{
  "AcquisitionMatrixPE": 104,
  "AcquisitionNumber": 1,
  "AcquisitionTime": "16:08:13.690000",
  "BandwidthPerPixelPhaseEncode": 17.17,
  "BaseResolution": 104,
  "BodyPartExamined": "BRAIN",
  "CoilString": "HC1-7;NC1_2",
  "ConsistencyInfo": "N4_VE11C_LATEST_20160120",
  "ConversionSoftware": "dcm2niix",
  "ConversionSoftwareVersion": "v1.0.20190902",
  "DerivedVendorReportedEchoSpacing": 0.000560011,
  "DeviceSerialNumber": "167006",
  "DwellTime": 2.1e-06,
  "EchoTime": 0.037,
  "EchoTrainLength": 104,
  "EffectiveEchoSpacing": 0.000560011,
  "FlipAngle": 52,
  "HeudiconvVersion": "0.10.0",
  "ImageComments": "Unaliased_MB4_PE3_LB",
  "ImageOrientationPatientDICOM": [0.999593, -0.012291, 0.0257471, 0.0237312, 0.859132, -0.511204],
  "ImageType": [
    "ORIGINAL",
    "PRIMARY",
    "M",
    "MB",
    "ND",
    "MOSAIC"
],
  "ImagingFrequency": 123.259,
  "InPlanePhaseEncodingDirectionDICOM": "COL",
  "InstitutionAddress": "Chemin_Queen-Mary_4565_Montreal_District_CA_H3W_1W5",
  "InstitutionName": "IUGM",
  "InstitutionalDepartmentName": "Department",
  "MRAcquisitionType": "2D",
  "MagneticFieldStrength": 3,
  "Manufacturer": "Siemens",
  "ManufacturersModelName": "Prisma_fit",
  "Modality": "MR",
  "MultibandAccelerationFactor": 4,
  "PartialFourier": 1,
  "PatientPosition": "HFS",
  "PercentPhaseFOV": 100,
  "PhaseEncodingDirection": "j",
  "PhaseEncodingSteps": 104,
  "PhaseResolution": 1,
  "PixelBandwidth": 2290,
  "ProcedureStepDescription": "video_friends",
  "ProtocolName": "func_task-friends-s06e19b",
  "PulseSequenceDetails": "%CustomerSeq%_cmrr_mbep2d_bold",
  "ReceiveCoilActiveElements": "HC1-7;NC1,2",
  "ReceiveCoilName": "HeadNeck_64",
  "ReconMatrixPE": 104,
  "RepetitionTime": 1.49,
  "SAR": 0.075979,
  "ScanOptions": "FS",
  "ScanningSequence": "EP",
  "SequenceName": "epfid2d1_104",
  "SequenceVariant": "SK_SS",
  "SeriesDescription": "func_task-friends-s06e19b",
  "SeriesNumber": 11,
  "ShimSetting": [632, -7181, -8860, 274, 15, -140, -28, 25],
  "SliceThickness": 2,
  "SliceTiming": [0, 0.785, 0.0975, 0.8825, 0.195, 0.98, 0.295, 1.0775, 0.3925, 1.175, 0.49, 1.275, 0.5875, 1.3725, 0.685, 0, 0.785, 0.0975, 0.8825, 0.195, 0.98, 0.295, 1.0775, 0.3925, 1.175, 0.49, 1.275, 0.5875, 1.3725, 0.685, 0, 0.785, 0.0975, 0.8825, 0.195, 0.98, 0.295, 1.0775, 0.3925, 1.175, 0.49, 1.275, 0.5875, 1.3725, 0.685, 0, 0.785, 0.0975, 0.8825, 0.195, 0.98, 0.295, 1.0775, 0.3925, 1.175, 0.49, 1.275, 0.5875, 1.3725, 0.685],
  "SoftwareVersions": "syngo_MR_E11",
  "SpacingBetweenSlices": 2,
  "StationName": "MRC35049",
  "TaskName": "s06e19b",
  "TotalReadoutTime": 0.0576811,
  "TxRefAmp": 326.183,
  "WipMemBlock": "27bf7b56-c394-4fcc-afc5-13dd1b772da7||Sequence: R016 ve11c/master r/e634e98; Dec 19 2017 11:00:25 by eja",
  "dcmmeta_affine": [
    [-1.9991858005523682, 0.04746249318122864, 0.03167396038770676, 100.45228576660156],
    [0.024581950157880783, 1.7182639837265015, -1.0232129096984863, -60.55609130859375],
    [0.051494233310222626, 1.0224071741104126, 1.718147873878479, -98.67986297607422],
    [0.0, 0.0, 0.0, 1.0]
],
  "dcmmeta_reorient_transform": [
    [0.0, -1.0, 0.0, 103.0],
    [1.0, 0.0, 0.0, 0.0],
    [0.0, 0.0, 1.0, 0.0],
    [0.0, 0.0, 0.0, 1.0]
],
  "dcmmeta_shape": [104, 104, 60, 468],
  "dcmmeta_slice_dim": 2,
  "dcmmeta_version": 0.6,
  "global": {
    "const": {
      "AcquisitionMatrix": [104, 0, 0, 104],
      "AngioFlag": "N",
      "BitsAllocated": 16,
      "BitsStored": 16,
      "BodyPartExamined": "BRAIN",
      "Columns": 832,
      "EchoNumbers": 1,
      "EchoTime": 37.0,
      "EchoTrainLength": 104,
      "FlipAngle": 52.0,
      "HighBit": 15,
      "ImageOrientationPatient": [0.99959292611699, -0.0122909746504, 0.02574711632436, 0.0237312474039, 0.85913196723097, -0.5112035707803],
      "ImagePositionPatient": [-850.3209197554, -732.92533589297, 360.04036840444],
      "ImageType": [
        "ORIGINAL",
        "PRIMARY",
        "M",
        "MB",
        "ND",
        "MOSAIC"
],
      "ImagedNucleus": "1H",
      "ImagingFrequency": 123.258847,
      "InPlanePhaseEncodingDirection": "COL",
      "MRAcquisitionType": "2D",
      "MagneticFieldStrength": 3.0,
      "Manufacturer": "SIEMENS",
      "ManufacturerModelName": "Prisma_fit",
      "Modality": "MR",
      "NumberOfAverages": 1.0,
      "NumberOfPhaseEncodingSteps": 104,
      "PercentPhaseFieldOfView": 100.0,
      "PercentSampling": 100.0,
      "PerformedProcedureStepStartTime": "155207.325000",
      "PhotometricInterpretation": "MONOCHROME2",
      "PixelBandwidth": 2290.0,
      "PixelRepresentation": 0,
      "PixelSpacing": [2.0, 2.0],
      "ProtocolName": "func_task-friends-s06e19b",
      "RepetitionTime": 1490.0,
      "Rows": 832,
      "SAR": 0.07597900022203,
      "SamplesPerPixel": 1,
      "ScanOptions": "FS",
      "ScanningSequence": "EP",
      "SequenceName": "epfid2d1_104",
      "SequenceVariant": [
        "SK",
        "SS"
],
      "SeriesDescription": "func_task-friends-s06e19b",
      "SeriesNumber": 11,
      "SeriesTime": "160945.493000",
      "SliceLocation": -52.201548863171,
      "SliceThickness": 2.0,
      "SmallestImagePixelValue": 0,
      "SoftwareVersions": "syngo MR E11",
      "SpacingBetweenSlices": 1.9999999890893,
      "SpecificCharacterSet": "ISO_IR 100",
      "StudyID": "1",
      "StudyTime": "155207.280000",
      "TransmitCoilName": "Body",
      "VariableFlipAngleFlag": "N",
      "WindowCenterWidthExplanation": "Algo1",
      "dBdt": 0.0},
    "slices": {}
  },
  "time": {
    "samples": {
      "AcquisitionNumber": [1, 2, 3, 4, 5, 6, 7, 8, 9, 10, 11, 12, 13, 14, 15, 16, 17, 18, 19, 20, 21, 22, 23, 24, 25, 26, 27, 28, 29, 30, 31, 32, 33, 34, 35, 36, 37, 38, 39, 40, 41, 42, 43, 44, 45, 46, 47, 48, 49, 50, 51, 52, 53, 54, 55, 56, 57, 58, 59, 60, 61, 62, 63, 64, 65, 66, 67, 68, 69, 70, 71, 72, 73, 74, 75, 76, 77, 78, 79, 80, 81, 82, 83, 84, 85, 86, 87, 88, 89, 90, 91, 92, 93, 94, 95, 96, 97, 98, 99, 100, 101, 102, 103, 104, 105, 106, 107, 108, 109, 110, 111, 112, 113, 114, 115, 116, 117, 118, 119, 120, 121, 122, 123, 124, 125, 126, 127, 128, 129, 130, 131, 132, 133, 134, 135, 136, 137, 138, 139, 140, 141, 142, 143, 144, 145, 146, 147, 148, 149, 150, 151, 152, 153, 154, 155, 156, 157, 158, 159, 160, 161, 162, 163, 164, 165, 166, 167, 168, 169, 170, 171, 172, 173, 174, 175, 176, 177, 178, 179, 180, 181, 182, 183, 184, 185, 186, 187, 188, 189, 190, 191, 192, 193, 194, 195, 196, 197, 198, 199, 200, 201, 202, 203, 204, 205, 206, 207, 208, 209, 210, 211, 212, 213, 214, 215, 216, 217, 218, 219, 220, 221, 222, 223, 224, 225, 226, 227, 228, 229, 230, 231, 232, 233, 234, 235, 236, 237, 238, 239, 240, 241, 242, 243, 244, 245, 246, 247, 248, 249, 250, 251, 252, 253, 254, 255, 256, 257, 258, 259, 260, 261, 262, 263, 264, 265, 266, 267, 268, 269, 270, 271, 272, 273, 274, 275, 276, 277, 278, 279, 280, 281, 282, 283, 284, 285, 286, 287, 288, 289, 290, 291, 292, 293, 294, 295, 296, 297, 298, 299, 300, 301, 302, 303, 304, 305, 306, 307, 308, 309, 310, 311, 312, 313, 314, 315, 316, 317, 318, 319, 320, 321, 322, 323, 324, 325, 326, 327, 328, 329, 330, 331, 332, 333, 334, 335, 336, 337, 338, 339, 340, 341, 342, 343, 344, 345, 346, 347, 348, 349, 350, 351, 352, 353, 354, 355, 356, 357, 358, 359, 360, 361, 362, 363, 364, 365, 366, 367, 368, 369, 370, 371, 372, 373, 374, 375, 376, 377, 378, 379, 380, 381, 382, 383, 384, 385, 386, 387, 388, 389, 390, 391, 392, 393, 394, 395, 396, 397, 398, 399, 400, 401, 402, 403, 404, 405, 406, 407, 408, 409, 410, 411, 412, 413, 414, 415, 416, 417, 418, 419, 420, 421, 422, 423, 424, 425, 426, 427, 428, 429, 430, 431, 432, 433, 434, 435, 436, 437, 438, 439, 440, 441, 442, 443, 444, 445, 446, 447, 448, 449, 450, 451, 452, 453, 454, 455, 456, 457, 458, 459, 460, 461, 462, 463, 464, 465, 466, 467, 468],
      "AcquisitionTime": ["160813.690000", "160815.180000", "160816.670000", "160818.160000", "160819.650000", "160821.140000", "160822.630000", "160824.120000", "160825.610000", "160827.100000", "160828.590000", "160830.080000", "160831.570000", "160833.060000", "160834.550000", "160836.040000", "160837.530000", "160839.020000", "160840.510000", "160842.000000", "160843.490000", "160844.980000", "160846.470000", "160847.960000", "160849.450000", "160850.940000", "160852.430000", "160853.920000", "160855.410000", "160856.900000", "160858.390000", "160859.880000", "160901.370000", "160902.860000", "160904.350000", "160905.840000", "160907.330000", "160908.820000", "160910.310000", "160911.800000", "160913.290000", "160914.780000", "160916.270000", "160917.760000", "160919.250000", "160920.740000", "160922.230000", "160923.720000", "160925.210000", "160926.700000", "160928.190000", "160929.680000", "160931.170000", "160932.660000", "160934.150000", "160935.640000", "160937.130000", "160938.620000", "160940.110000", "160941.600000", "160943.090000", "160944.580000", "160946.070000", "160947.560000", "160949.050000", "160950.540000", "160952.030000", "160953.520000", "160955.010000", "160956.500000", "160957.990000", "160959.480000", "161000.970000", "161002.460000", "161003.950000", "161005.440000", "161006.930000", "161008.420000", "161009.910000", "161011.400000", "161012.890000", "161014.380000", "161015.870000", "161017.360000", "161018.850000", "161020.340000", "161021.830000", "161023.320000", "161024.810000", "161026.300000", "161027.790000", "161029.280000", "161030.770000", "161032.260000", "161033.750000", "161035.240000", "161036.730000", "161038.220000", "161039.710000", "161041.200000", "161042.690000", "161044.180000", "161045.670000", "161047.160000", "161048.650000", "161050.140000", "161051.630000", "161053.120000", "161054.610000", "161056.100000", "161057.590000", "161059.080000", "161100.570000", "161102.060000", "161103.550000", "161105.040000", "161106.530000", "161108.020000", "161109.510000", "161111.000000", "161112.490000", "161113.980000", "161115.470000", "161116.960000", "161118.450000", "161119.940000", "161121.430000", "161122.920000", "161124.410000", "161125.900000", "161127.390000", "161128.880000", "161130.370000", "161131.860000", "161133.350000", "161134.840000", "161136.330000", "161137.820000", "161139.310000", "161140.800000", "161142.290000", "161143.780000", "161145.270000", "161146.760000", "161148.250000", "161149.740000", "161151.230000", "161152.720000", "161154.210000", "161155.700000", "161157.190000", "161158.680000", "161200.170000", "161201.660000", "161203.150000", "161204.640000", "161206.130000", "161207.620000", "161209.110000", "161210.600000", "161212.090000", "161213.580000", "161215.070000", "161216.560000", "161218.050000", "161219.540000", "161221.030000", "161222.520000", "161224.010000", "161225.500000", "161226.990000", "161228.480000", "161229.970000", "161231.460000", "161232.950000", "161234.440000", "161235.930000", "161237.420000", "161238.910000", "161240.400000", "161241.890000", "161243.380000", "161244.870000", "161246.360000", "161247.850000", "161249.340000", "161250.830000", "161252.320000", "161253.810000", "161255.300000", "161256.790000", "161258.280000", "161259.770000", "161301.260000", "161302.750000", "161304.240000", "161305.730000", "161307.220000", "161308.710000", "161310.200000", "161311.690000", "161313.180000", "161314.670000", "161316.160000", "161317.650000", "161319.140000", "161320.630000", "161322.120000", "161323.610000", "161325.100000", "161326.590000", "161328.080000", "161329.570000", "161331.060000", "161332.550000", "161334.040000", "161335.530000", "161337.020000", "161338.510000", "161340.000000", "161341.490000", "161342.980000", "161344.470000", "161345.960000", "161347.450000", "161348.940000", "161350.430000", "161351.920000", "161353.410000", "161354.900000", "161356.390000", "161357.880000", "161359.370000", "161400.860000", "161402.350000", "161403.840000", "161405.330000", "161406.820000", "161408.310000", "161409.800000", "161411.290000", "161412.780000", "161414.270000", "161415.760000", "161417.250000", "161418.740000", "161420.230000", "161421.720000", "161423.210000", "161424.700000", "161426.190000", "161427.680000", "161429.170000", "161430.660000", "161432.150000", "161433.640000", "161435.130000", "161436.620000", "161438.110000", "161439.600000", "161441.090000", "161442.580000", "161444.070000", "161445.560000", "161447.050000", "161448.540000", "161450.030000", "161451.520000", "161453.010000", "161454.500000", "161455.990000", "161457.480000", "161458.970000", "161500.460000", "161501.950000", "161503.440000", "161504.930000", "161506.420000", "161507.910000", "161509.400000", "161510.890000", "161512.380000", "161513.870000", "161515.360000", "161516.850000", "161518.340000", "161519.830000", "161521.320000", "161522.810000", "161524.300000", "161525.790000", "161527.280000", "161528.770000", "161530.260000", "161531.750000", "161533.240000", "161534.730000", "161536.220000", "161537.710000", "161539.200000", "161540.690000", "161542.180000", "161543.670000", "161545.160000", "161546.650000", "161548.140000", "161549.630000", "161551.120000", "161552.610000", "161554.100000", "161555.590000", "161557.080000", "161558.570000", "161600.060000", "161601.550000", "161603.040000", "161604.530000", "161606.020000", "161607.510000", "161609.000000", "161610.490000", "161611.980000", "161613.470000", "161614.960000", "161616.450000", "161617.940000", "161619.430000", "161620.920000", "161622.410000", "161623.900000", "161625.390000", "161626.880000", "161628.370000", "161629.860000", "161631.350000", "161632.840000", "161634.330000", "161635.820000", "161637.310000", "161638.800000", "161640.290000", "161641.780000", "161643.270000", "161644.760000", "161646.250000", "161647.740000", "161649.230000", "161650.720000", "161652.210000", "161653.700000", "161655.190000", "161656.680000", "161658.170000", "161659.660000", "161701.150000", "161702.640000", "161704.130000", "161705.620000", "161707.110000", "161708.600000", "161710.090000", "161711.580000", "161713.070000", "161714.560000", "161716.050000", "161717.540000", "161719.030000", "161720.520000", "161722.010000", "161723.500000", "161724.990000", "161726.480000", "161727.970000", "161729.460000", "161730.950000", "161732.440000", "161733.930000", "161735.420000", "161736.910000", "161738.400000", "161739.890000", "161741.380000", "161742.870000", "161744.360000", "161745.850000", "161747.340000", "161748.830000", "161750.320000", "161751.810000", "161753.300000", "161754.790000", "161756.280000", "161757.770000", "161759.260000", "161800.750000", "161802.240000", "161803.730000", "161805.220000", "161806.710000", "161808.200000", "161809.690000", "161811.180000", "161812.670000", "161814.160000", "161815.650000", "161817.140000", "161818.630000", "161820.120000", "161821.610000", "161823.100000", "161824.590000", "161826.080000", "161827.570000", "161829.060000", "161830.550000", "161832.040000", "161833.530000", "161835.020000", "161836.510000", "161838.000000", "161839.490000", "161840.980000", "161842.470000", "161843.960000", "161845.450000", "161846.940000", "161848.430000", "161849.920000", "161851.410000", "161852.900000", "161854.390000", "161855.880000", "161857.370000", "161858.860000", "161900.350000", "161901.840000", "161903.330000", "161904.820000", "161906.310000", "161907.800000", "161909.290000", "161910.780000", "161912.270000", "161913.760000", "161915.250000", "161916.740000", "161918.230000", "161919.720000", "161921.210000", "161922.700000", "161924.190000", "161925.680000", "161927.170000", "161928.660000", "161930.150000", "161931.640000", "161933.130000", "161934.620000", "161936.110000", "161937.600000", "161939.090000", "161940.580000", "161942.070000", "161943.560000", "161945.050000", "161946.540000", "161948.030000", "161949.520000"],
      "ContentTime": ["160945.495000", "160945.499000", "160945.502000", "160945.505000", "160945.507000", "160945.510000", "160945.513000", "160945.516000", "160945.519000", "160945.521000", "160945.524000", "160945.527000", "160945.530000", "160945.533000", "160945.536000", "160945.539000", "160945.541000", "160945.544000", "160945.547000", "160945.556000", "160945.559000", "160945.561000", "160945.564000", "160945.567000", "160945.570000", "160945.573000", "160945.576000", "160945.579000", "160945.581000", "160945.584000", "160945.587000", "160945.590000", "160945.593000", "160945.606000", "161005.463000", "161005.466000", "161005.469000", "161005.487000", "161005.490000", "161005.493000", "161005.496000", "161005.498000", "161005.501000", "161005.504000", "161005.507000", "161005.510000", "161005.513000", "161005.516000", "161005.518000", "161005.521000", "161005.524000", "161005.527000", "161005.530000", "161005.533000", "161025.463000", "161025.466000", "161025.469000", "161025.472000", "161025.474000", "161025.477000", "161025.480000", "161025.483000", "161025.486000", "161025.488000", "161025.491000", "161025.494000", "161025.497000", "161025.500000", "161025.503000", "161025.506000", "161025.508000", "161025.511000", "161025.514000", "161025.517000", "161045.463000", "161045.466000", "161045.469000", "161045.472000", "161045.474000", "161045.477000", "161045.480000", "161045.483000", "161045.488000", "161045.490000", "161045.493000", "161045.496000", "161045.499000", "161045.502000", "161045.504000", "161045.507000", "161045.510000", "161045.513000", "161045.516000", "161045.519000", "161045.521000", "161125.463000", "161125.466000", "161125.469000", "161125.472000", "161125.474000", "161125.477000", "161125.480000", "161125.483000", "161125.486000", "161125.488000", "161125.491000", "161125.494000", "161125.497000", "161125.500000", "161125.503000", "161125.506000", "161125.508000", "161125.511000", "161125.514000", "161125.517000", "161125.520000", "161125.522000", "161125.525000", "161125.528000", "161125.549000", "161125.552000", "161125.555000", "161125.557000", "161125.560000", "161125.563000", "161125.566000", "161125.569000", "161125.572000", "161205.463000", "161205.466000", "161205.469000", "161205.472000", "161205.474000", "161205.477000", "161205.480000", "161205.483000", "161205.486000", "161205.489000", "161205.492000", "161205.494000", "161205.497000", "161205.500000", "161205.503000", "161205.506000", "161205.509000", "161205.511000", "161205.514000", "161205.517000", "161205.520000", "161205.523000", "161205.526000", "161205.529000", "161205.552000", "161205.555000", "161205.558000", "161245.463000", "161245.466000", "161245.469000", "161245.472000", "161245.475000", "161245.477000", "161245.480000", "161245.483000", "161245.486000", "161245.489000", "161245.492000", "161245.494000", "161245.497000", "161245.500000", "161245.503000", "161245.506000", "161245.509000", "161245.511000", "161245.514000", "161245.517000", "161245.520000", "161245.523000", "161245.526000", "161245.529000", "161245.531000", "161245.534000", "161245.537000", "161325.463000", "161325.466000", "161325.469000", "161325.471000", "161325.474000", "161325.477000", "161325.480000", "161325.483000", "161325.486000", "161325.489000", "161325.491000", "161325.494000", "161325.497000", "161325.500000", "161325.503000", "161325.506000", "161325.508000", "161325.511000", "161325.514000", "161325.517000", "161325.520000", "161325.523000", "161325.525000", "161325.528000", "161325.531000", "161325.534000", "161405.462000", "161405.465000", "161405.468000", "161405.471000", "161405.473000", "161405.476000", "161405.486000", "161405.489000", "161405.492000", "161405.494000", "161405.497000", "161405.500000", "161405.503000", "161405.506000", "161405.509000", "161405.512000", "161405.514000", "161405.517000", "161405.520000", "161405.523000", "161405.526000", "161405.529000", "161405.532000", "161405.534000", "161405.537000", "161405.540000", "161405.543000", "161445.463000", "161445.470000", "161445.473000", "161445.476000", "161445.479000", "161445.482000", "161445.485000", "161445.488000", "161445.491000", "161445.494000", "161445.496000", "161445.499000", "161445.502000", "161445.505000", "161445.508000", "161445.511000", "161445.514000", "161445.516000", "161445.519000", "161445.522000", "161445.525000", "161445.528000", "161445.531000", "161445.533000", "161445.536000", "161445.539000", "161445.542000", "161525.463000", "161525.466000", "161525.469000", "161525.472000", "161525.474000", "161525.477000", "161525.480000", "161525.483000", "161525.486000", "161525.489000", "161525.492000", "161525.495000", "161525.497000", "161525.500000", "161525.503000", "161525.506000", "161525.509000", "161525.512000", "161525.515000", "161525.518000", "161525.520000", "161525.523000", "161525.526000", "161525.529000", "161525.532000", "161525.535000", "161525.538000", "161605.463000", "161605.466000", "161605.469000", "161605.472000", "161605.475000", "161605.477000", "161605.480000", "161605.483000", "161605.486000", "161605.489000", "161605.492000", "161605.495000", "161605.497000", "161605.500000", "161605.503000", "161605.506000", "161605.509000", "161605.512000", "161605.515000", "161605.532000", "161605.534000", "161605.537000", "161605.540000", "161605.543000", "161605.546000", "161605.549000", "161605.551000", "161645.463000", "161645.466000", "161645.469000", "161645.472000", "161645.475000", "161645.477000", "161645.480000", "161645.483000", "161645.486000", "161645.489000", "161645.492000", "161645.495000", "161645.497000", "161645.500000", "161645.503000", "161645.506000", "161645.509000", "161645.512000", "161645.514000", "161645.517000", "161645.520000", "161645.523000", "161645.526000", "161645.529000", "161645.532000", "161645.535000", "161645.538000", "161725.463000", "161725.466000", "161725.469000", "161725.472000", "161725.475000", "161725.477000", "161725.480000", "161725.483000", "161725.486000", "161725.489000", "161725.492000", "161725.495000", "161725.498000", "161725.500000", "161725.503000", "161725.506000", "161725.509000", "161725.512000", "161725.515000", "161725.518000", "161725.520000", "161725.523000", "161725.526000", "161725.529000", "161725.532000", "161725.534000", "161805.463000", "161805.466000", "161805.469000", "161805.472000", "161805.474000", "161805.477000", "161805.480000", "161805.483000", "161805.486000", "161805.489000", "161805.492000", "161805.495000", "161805.497000", "161805.500000", "161805.503000", "161805.513000", "161805.516000", "161805.519000", "161805.521000", "161805.524000", "161805.527000", "161805.530000", "161805.533000", "161805.536000", "161805.539000", "161805.541000", "161805.544000", "161845.462000", "161845.465000", "161845.468000", "161845.471000", "161845.474000", "161845.477000", "161845.479000", "161845.482000", "161845.485000", "161845.488000", "161845.491000", "161845.494000", "161845.497000", "161845.500000", "161845.503000", "161845.505000", "161845.508000", "161845.511000", "161845.514000", "161845.517000", "161845.520000", "161845.523000", "161845.525000", "161845.528000", "161845.531000", "161845.534000", "161845.537000", "161925.463000", "161925.466000", "161925.469000", "161925.472000", "161925.474000", "161925.477000", "161925.480000", "161925.483000", "161925.486000", "161925.489000", "161925.492000", "161925.495000", "161925.497000", "161925.500000", "161925.503000", "161925.506000", "161925.509000", "161925.512000", "161925.514000", "161925.517000", "161925.520000", "161925.523000", "161925.526000", "161925.529000", "161925.532000", "161925.535000", "161925.537000", "161951.654000", "161951.658000", "161951.662000", "161951.665000", "161951.668000", "161951.671000", "161951.676000", "161951.679000", "161951.683000", "161951.686000", "161951.689000", "161951.692000", "161951.695000", "161951.698000", "161951.702000", "161951.705000", "161951.708000", "161951.711000"],
