{
  "AcquisitionMatrixPE": 104,
  "AcquisitionNumber": 1,
  "AcquisitionTime": "19:39:55.707500",
  "BandwidthPerPixelPhaseEncode": 17.17,
  "BaseResolution": 104,
  "BodyPartExamined": "BRAIN",
  "CoilString": "HC1-7;NC1_2",
  "ConsistencyInfo": "N4_VE11C_LATEST_20160120",
  "ConversionSoftware": "dcm2niix",
  "ConversionSoftwareVersion": "v1.0.20190720  (JP2:OpenJPEG) GCC7.3.0",
  "DerivedVendorReportedEchoSpacing": 0.000560011,
  "DeviceSerialNumber": "167006",
  "DwellTime": 2.1e-06,
  "EchoTime": 0.037,
  "EchoTrainLength": 104,
  "EffectiveEchoSpacing": 0.000560011,
  "FlipAngle": 52,
  "ImageComments": "Unaliased_MB4_PE3_LB",
  "ImageOrientationPatientDICOM": [0.998697, -0.0490175, -0.0142232, 0.0381915, 0.902565, -0.428857],
  "ImageType": [
    "ORIGINAL",
    "PRIMARY",
    "M",
    "MB",
    "ND",
    "MOSAIC"
],
  "ImagingFrequency": 123.259,
  "InPlanePhaseEncodingDirectionDICOM": "COL",
  "InstitutionAddress": "Chemin_Queen-Mary_4565_Montreal_District_CA_H3W_1W5",
  "InstitutionName": "IUGM",
  "InstitutionalDepartmentName": "Department",
  "MRAcquisitionType": "2D",
  "MagneticFieldStrength": 3,
  "Manufacturer": "Siemens",
  "ManufacturersModelName": "Prisma_fit",
  "Modality": "MR",
  "MultibandAccelerationFactor": 4,
  "PartialFourier": 1,
  "PatientPosition": "HFS",
  "PercentPhaseFOV": 100,
  "PhaseEncodingDirection": "j",
  "PhaseEncodingSteps": 104,
  "PhaseResolution": 1,
  "PixelBandwidth": 2290,
  "ProcedureStepDescription": "video_friends",
  "ProtocolName": "func_task-s01e07a",
  "PulseSequenceDetails": "%CustomerSeq%_cmrr_mbep2d_bold",
  "ReceiveCoilActiveElements": "HC1-7;NC1,2",
  "ReceiveCoilName": "HeadNeck_64",
  "ReconMatrixPE": 104,
  "RepetitionTime": 1.49,
  "SAR": 0.0370699,
  "ScanOptions": "FS",
  "ScanningSequence": "EP",
  "SequenceName": "epfid2d1_104",
  "SequenceVariant": "SK_SS",
  "SeriesDescription": "func_task-s01e07a",
  "SeriesNumber": 28,
  "ShimSetting": [618, -7277, -8847, 368, 38, -442, 7, 28],
  "SliceThickness": 2,
  "SliceTiming": [0, 0.785, 0.0975, 0.8825, 0.1975, 0.98, 0.295, 1.0775, 0.3925, 1.1775, 0.49, 1.275, 0.5875, 1.3725, 0.6875, 0, 0.785, 0.0975, 0.8825, 0.1975, 0.98, 0.295, 1.0775, 0.3925, 1.1775, 0.49, 1.275, 0.5875, 1.3725, 0.6875, 0, 0.785, 0.0975, 0.8825, 0.1975, 0.98, 0.295, 1.0775, 0.3925, 1.1775, 0.49, 1.275, 0.5875, 1.3725, 0.6875, 0, 0.785, 0.0975, 0.8825, 0.1975, 0.98, 0.295, 1.0775, 0.3925, 1.1775, 0.49, 1.275, 0.5875, 1.3725, 0.6875],
  "SoftwareVersions": "syngo_MR_E11",
  "SpacingBetweenSlices": 2,
  "StationName": "MRC35049",
  "TaskName": "friends",
  "TotalReadoutTime": 0.0576811,
  "TxRefAmp": 238.151,
  "WipMemBlock": "221535e8-ba48-4442-ad71-29866d7cd1ae||Sequence: R016 ve11c/master r/e634e98; Dec 19 2017 11:00:25 by eja",
  "dcmmeta_affine": [
    [-1.997393250465393, 0.07638294994831085, -0.06771769374608994, 97.6009292602539],
    [0.09803490340709686, 1.8051294088363647, -0.855509877204895, -70.48368835449219],
    [-0.028446417301893234, 0.8577141761779785, 1.806520700454712, -73.44615936279297],
    [0.0, 0.0, 0.0, 1.0]
],
  "dcmmeta_reorient_transform": [
    [0.0, -1.0, 0.0, 103.0],
    [1.0, 0.0, 0.0, 0.0],
    [0.0, 0.0, 1.0, 0.0],
    [0.0, 0.0, 0.0, 1.0]
],
  "dcmmeta_shape": [104, 104, 60, 493],
  "dcmmeta_slice_dim": 2,
  "dcmmeta_version": 0.6,
  "global": {
    "const": {
      "AcquisitionMatrix": [104, 0, 0, 104],
      "AngioFlag": "N",
      "BitsAllocated": 16,
      "BitsStored": 16,
      "BodyPartExamined": "BRAIN",
      "Columns": 832,
      "EchoNumbers": 1,
      "EchoTime": 37.0,
      "EchoTrainLength": 104,
      "FlipAngle": 52.0,
      "HighBit": 15,
      "ImageOrientationPatient": [0.99869664552978, -0.0490174515469, -0.0142232081969, 0.03819147368826, 0.90256467961455, -0.4288570979357],
      "ImagePositionPatient": [-860.32292374196, -736.82701587445, 337.46086890155],
      "ImageType": [
        "ORIGINAL",
        "PRIMARY",
        "M",
        "MB",
        "ND",
        "MOSAIC"
],
      "ImagedNucleus": "1H",
      "ImagingFrequency": 123.259176,
      "InPlanePhaseEncodingDirection": "COL",
      "MRAcquisitionType": "2D",
      "MagneticFieldStrength": 3.0,
      "Manufacturer": "SIEMENS",
      "ManufacturerModelName": "Prisma_fit",
      "Modality": "MR",
      "NumberOfAverages": 1.0,
      "NumberOfPhaseEncodingSteps": 104,
      "PercentPhaseFieldOfView": 100.0,
      "PercentSampling": 100.0,
      "PerformedProcedureStepStartTime": "173550.574000",
      "PhotometricInterpretation": "MONOCHROME2",
      "PixelBandwidth": 2290.0,
      "PixelRepresentation": 0,
      "PixelSpacing": [2.0, 2.0],
      "ProtocolName": "func_task-s01e07a",
      "RepetitionTime": 1490.0,
      "Rows": 832,
      "SAR": 0.03706991430633,
      "SamplesPerPixel": 1,
      "ScanOptions": "FS",
      "ScanningSequence": "EP",
      "SequenceName": "epfid2d1_104",
      "SequenceVariant": [
        "SK",
        "SS"
],
      "SeriesDescription": "func_task-s01e07a",
      "SeriesNumber": 28,
      "SeriesTime": "194113.933000",
      "SliceLocation": -39.495910246341,
      "SliceThickness": 2.0,
      "SmallestImagePixelValue": 0,
      "SoftwareVersions": "syngo MR E11",
      "SpacingBetweenSlices": 2.0000000145675,
      "SpecificCharacterSet": "ISO_IR 100",
      "StudyID": "1",
      "StudyTime": "173550.501000",
      "TransmitCoilName": "Body",
      "VariableFlipAngleFlag": "N",
      "WindowCenterWidthExplanation": "Algo1",
      "dBdt": 0.0},
    "slices": {}
  },
  "time": {
    "samples": {
      "AcquisitionNumber": [1, 2, 3, 4, 5, 6, 7, 8, 9, 10, 11, 12, 13, 14, 15, 16, 17, 18, 19, 20, 21, 22, 23, 24, 25, 26, 27, 28, 29, 30, 31, 32, 33, 34, 35, 36, 37, 38, 39, 40, 41, 42, 43, 44, 45, 46, 47, 48, 49, 50, 51, 52, 53, 54, 55, 56, 57, 58, 59, 60, 61, 62, 63, 64, 65, 66, 67, 68, 69, 70, 71, 72, 73, 74, 75, 76, 77, 78, 79, 80, 81, 82, 83, 84, 85, 86, 87, 88, 89, 90, 91, 92, 93, 94, 95, 96, 97, 98, 99, 100, 101, 102, 103, 104, 105, 106, 107, 108, 109, 110, 111, 112, 113, 114, 115, 116, 117, 118, 119, 120, 121, 122, 123, 124, 125, 126, 127, 128, 129, 130, 131, 132, 133, 134, 135, 136, 137, 138, 139, 140, 141, 142, 143, 144, 145, 146, 147, 148, 149, 150, 151, 152, 153, 154, 155, 156, 157, 158, 159, 160, 161, 162, 163, 164, 165, 166, 167, 168, 169, 170, 171, 172, 173, 174, 175, 176, 177, 178, 179, 180, 181, 182, 183, 184, 185, 186, 187, 188, 189, 190, 191, 192, 193, 194, 195, 196, 197, 198, 199, 200, 201, 202, 203, 204, 205, 206, 207, 208, 209, 210, 211, 212, 213, 214, 215, 216, 217, 218, 219, 220, 221, 222, 223, 224, 225, 226, 227, 228, 229, 230, 231, 232, 233, 234, 235, 236, 237, 238, 239, 240, 241, 242, 243, 244, 245, 246, 247, 248, 249, 250, 251, 252, 253, 254, 255, 256, 257, 258, 259, 260, 261, 262, 263, 264, 265, 266, 267, 268, 269, 270, 271, 272, 273, 274, 275, 276, 277, 278, 279, 280, 281, 282, 283, 284, 285, 286, 287, 288, 289, 290, 291, 292, 293, 294, 295, 296, 297, 298, 299, 300, 301, 302, 303, 304, 305, 306, 307, 308, 309, 310, 311, 312, 313, 314, 315, 316, 317, 318, 319, 320, 321, 322, 323, 324, 325, 326, 327, 328, 329, 330, 331, 332, 333, 334, 335, 336, 337, 338, 339, 340, 341, 342, 343, 344, 345, 346, 347, 348, 349, 350, 351, 352, 353, 354, 355, 356, 357, 358, 359, 360, 361, 362, 363, 364, 365, 366, 367, 368, 369, 370, 371, 372, 373, 374, 375, 376, 377, 378, 379, 380, 381, 382, 383, 384, 385, 386, 387, 388, 389, 390, 391, 392, 393, 394, 395, 396, 397, 398, 399, 400, 401, 402, 403, 404, 405, 406, 407, 408, 409, 410, 411, 412, 413, 414, 415, 416, 417, 418, 419, 420, 421, 422, 423, 424, 425, 426, 427, 428, 429, 430, 431, 432, 433, 434, 435, 436, 437, 438, 439, 440, 441, 442, 443, 444, 445, 446, 447, 448, 449, 450, 451, 452, 453, 454, 455, 456, 457, 458, 459, 460, 461, 462, 463, 464, 465, 466, 467, 468, 469, 470, 471, 472, 473, 474, 475, 476, 477, 478, 479, 480, 481, 482, 483, 484, 485, 486, 487, 488, 489, 490, 491, 492, 493],
      "AcquisitionTime": ["193955.707500", "193957.197500", "193958.687500", "194000.177500", "194001.667500", "194003.157500", "194004.647500", "194006.137500", "194007.627500", "194009.117500", "194010.607500", "194012.097500", "194013.587500", "194015.077500", "194016.567500", "194018.057500", "194019.547500", "194021.037500", "194022.527500", "194024.017500", "194025.507500", "194026.997500", "194028.487500", "194029.977500", "194031.467500", "194032.957500", "194034.447500", "194035.937500", "194037.427500", "194038.917500", "194040.407500", "194041.897500", "194043.387500", "194044.877500", "194046.367500", "194047.857500", "194049.347500", "194050.837500", "194052.327500", "194053.817500", "194055.307500", "194056.797500", "194058.287500", "194059.777500", "194101.267500", "194102.757500", "194104.247500", "194105.737500", "194107.227500", "194108.717500", "194110.207500", "194111.697500", "194113.187500", "194114.677500", "194116.167500", "194117.657500", "194119.147500", "194120.637500", "194122.127500", "194123.617500", "194125.107500", "194126.597500", "194128.087500", "194129.577500", "194131.067500", "194132.557500", "194134.047500", "194135.537500", "194137.027500", "194138.517500", "194140.007500", "194141.497500", "194142.987500", "194144.477500", "194145.967500", "194147.457500", "194148.947500", "194150.437500", "194151.927500", "194153.417500", "194154.907500", "194156.397500", "194157.887500", "194159.377500", "194200.867500", "194202.357500", "194203.847500", "194205.337500", "194206.827500", "194208.317500", "194209.807500", "194211.297500", "194212.787500", "194214.277500", "194215.767500", "194217.257500", "194218.747500", "194220.237500", "194221.727500", "194223.217500", "194224.707500", "194226.197500", "194227.687500", "194229.177500", "194230.667500", "194232.157500", "194233.647500", "194235.137500", "194236.627500", "194238.117500", "194239.607500", "194241.097500", "194242.587500", "194244.077500", "194245.567500", "194247.057500", "194248.547500", "194250.037500", "194251.527500", "194253.017500", "194254.507500", "194255.997500", "194257.487500", "194258.977500", "194300.467500", "194301.957500", "194303.447500", "194304.937500", "194306.427500", "194307.917500", "194309.407500", "194310.897500", "194312.387500", "194313.877500", "194315.367500", "194316.857500", "194318.347500", "194319.837500", "194321.327500", "194322.817500", "194324.307500", "194325.797500", "194327.287500", "194328.777500", "194330.267500", "194331.757500", "194333.247500", "194334.737500", "194336.227500", "194337.717500", "194339.207500", "194340.697500", "194342.187500", "194343.677500", "194345.167500", "194346.657500", "194348.147500", "194349.637500", "194351.127500", "194352.617500", "194354.107500", "194355.597500", "194357.087500", "194358.577500", "194400.067500", "194401.557500", "194403.047500", "194404.537500", "194406.027500", "194407.517500", "194409.007500", "194410.497500", "194411.987500", "194413.477500", "194414.967500", "194416.457500", "194417.947500", "194419.437500", "194420.927500", "194422.417500", "194423.907500", "194425.397500", "194426.887500", "194428.377500", "194429.867500", "194431.357500", "194432.847500", "194434.337500", "194435.827500", "194437.317500", "194438.807500", "194440.297500", "194441.787500", "194443.277500", "194444.767500", "194446.257500", "194447.747500", "194449.237500", "194450.727500", "194452.217500", "194453.707500", "194455.197500", "194456.687500", "194458.177500", "194459.667500", "194501.157500", "194502.647500", "194504.137500", "194505.627500", "194507.117500", "194508.607500", "194510.097500", "194511.587500", "194513.077500", "194514.567500", "194516.057500", "194517.547500", "194519.037500", "194520.527500", "194522.017500", "194523.507500", "194524.997500", "194526.487500", "194527.977500", "194529.467500", "194530.957500", "194532.447500", "194533.937500", "194535.427500", "194536.917500", "194538.407500", "194539.897500", "194541.387500", "194542.877500", "194544.367500", "194545.857500", "194547.347500", "194548.837500", "194550.327500", "194551.817500", "194553.307500", "194554.797500", "194556.287500", "194557.777500", "194559.267500", "194600.757500", "194602.247500", "194603.737500", "194605.227500", "194606.717500", "194608.207500", "194609.697500", "194611.187500", "194612.677500", "194614.167500", "194615.657500", "194617.147500", "194618.637500", "194620.127500", "194621.617500", "194623.107500", "194624.597500", "194626.087500", "194627.577500", "194629.067500", "194630.557500", "194632.047500", "194633.537500", "194635.027500", "194636.517500", "194638.007500", "194639.497500", "194640.987500", "194642.477500", "194643.967500", "194645.457500", "194646.947500", "194648.437500", "194649.927500", "194651.417500", "194652.907500", "194654.397500", "194655.887500", "194657.377500", "194658.867500", "194700.357500", "194701.847500", "194703.337500", "194704.827500", "194706.317500", "194707.807500", "194709.297500", "194710.787500", "194712.277500", "194713.767500", "194715.257500", "194716.747500", "194718.237500", "194719.727500", "194721.217500", "194722.707500", "194724.197500", "194725.687500", "194727.177500", "194728.667500", "194730.157500", "194731.647500", "194733.137500", "194734.627500", "194736.117500", "194737.607500", "194739.097500", "194740.587500", "194742.077500", "194743.567500", "194745.057500", "194746.547500", "194748.037500", "194749.527500", "194751.017500", "194752.507500", "194753.997500", "194755.487500", "194756.977500", "194758.467500", "194759.957500", "194801.447500", "194802.937500", "194804.427500", "194805.917500", "194807.407500", "194808.897500", "194810.387500", "194811.877500", "194813.367500", "194814.857500", "194816.347500", "194817.837500", "194819.327500", "194820.817500", "194822.307500", "194823.797500", "194825.287500", "194826.777500", "194828.267500", "194829.757500", "194831.247500", "194832.737500", "194834.227500", "194835.717500", "194837.207500", "194838.697500", "194840.187500", "194841.677500", "194843.167500", "194844.657500", "194846.147500", "194847.637500", "194849.127500", "194850.617500", "194852.107500", "194853.597500", "194855.087500", "194856.577500", "194858.067500", "194859.557500", "194901.047500", "194902.537500", "194904.027500", "194905.517500", "194907.007500", "194908.497500", "194909.987500", "194911.477500", "194912.967500", "194914.457500", "194915.947500", "194917.437500", "194918.927500", "194920.417500", "194921.907500", "194923.397500", "194924.887500", "194926.377500", "194927.867500", "194929.357500", "194930.847500", "194932.337500", "194933.827500", "194935.317500", "194936.807500", "194938.297500", "194939.787500", "194941.277500", "194942.767500", "194944.257500", "194945.747500", "194947.237500", "194948.727500", "194950.217500", "194951.707500", "194953.197500", "194954.687500", "194956.177500", "194957.667500", "194959.157500", "195000.647500", "195002.137500", "195003.627500", "195005.117500", "195006.607500", "195008.097500", "195009.587500", "195011.077500", "195012.567500", "195014.057500", "195015.547500", "195017.037500", "195018.527500", "195020.017500", "195021.507500", "195022.997500", "195024.487500", "195025.977500", "195027.467500", "195028.957500", "195030.447500", "195031.937500", "195033.427500", "195034.917500", "195036.407500", "195037.897500", "195039.387500", "195040.877500", "195042.367500", "195043.857500", "195045.347500", "195046.837500", "195048.327500", "195049.817500", "195051.307500", "195052.797500", "195054.287500", "195055.777500", "195057.267500", "195058.757500", "195100.247500", "195101.737500", "195103.227500", "195104.717500", "195106.207500", "195107.697500", "195109.187500", "195110.677500", "195112.167500", "195113.657500", "195115.147500", "195116.637500", "195118.127500", "195119.617500", "195121.107500", "195122.597500", "195124.087500", "195125.577500", "195127.067500", "195128.557500", "195130.047500", "195131.537500", "195133.027500", "195134.517500", "195136.007500", "195137.497500", "195138.987500", "195140.477500", "195141.967500", "195143.457500", "195144.947500", "195146.437500", "195147.927500", "195149.417500", "195150.907500", "195152.397500", "195153.887500", "195155.377500", "195156.867500", "195158.357500", "195159.847500", "195201.337500", "195202.827500", "195204.317500", "195205.807500", "195207.297500", "195208.787500"],
      "ContentTime": ["194113.936000", "194113.940000", "194113.945000", "194113.948000", "194113.950000", "194113.953000", "194113.956000", "194113.959000", "194113.962000", "194113.965000", "194113.968000", "194113.971000", "194113.980000", "194113.983000", "194113.986000", "194113.989000", "194113.992000", "194113.995000", "194113.998000", "194114.002000", "194114.005000", "194114.008000", "194114.011000", "194114.014000", "194114.017000", "194133.886000", "194133.889000", "194133.892000", "194133.895000", "194133.898000", "194133.901000", "194133.904000", "194133.907000", "194133.909000", "194133.912000", "194133.915000", "194133.918000", "194133.921000", "194133.924000", "194133.927000", "194133.930000", "194133.933000", "194133.936000", "194133.939000", "194133.942000", "194153.886000", "194153.889000", "194153.892000", "194153.895000", "194153.898000", "194153.901000", "194153.904000", "194153.907000", "194153.910000", "194153.913000", "194153.916000", "194153.918000", "194153.921000", "194153.924000", "194153.927000", "194153.930000", "194153.933000", "194153.936000", "194153.940000", "194153.943000", "194213.886000", "194213.889000", "194213.892000", "194213.895000", "194213.898000", "194213.901000", "194213.904000", "194213.907000", "194213.909000", "194213.912000", "194213.915000", "194213.918000", "194213.921000", "194213.924000", "194213.927000", "194213.930000", "194213.933000", "194213.936000", "194213.939000", "194213.942000", "194213.944000", "194253.886000", "194253.890000", "194253.893000", "194253.896000", "194253.899000", "194253.902000", "194253.904000", "194253.907000", "194253.910000", "194253.913000", "194253.916000", "194253.923000", "194253.926000", "194253.929000", "194253.932000", "194253.935000", "194253.938000", "194253.941000", "194253.944000", "194253.947000", "194253.950000", "194253.953000", "194253.956000", "194253.958000", "194253.961000", "194253.964000", "194253.967000", "194253.970000", "194253.973000", "194253.976000", "194253.979000", "194253.982000", "194333.886000", "194333.889000", "194333.892000", "194333.895000", "194333.898000", "194333.901000", "194333.904000", "194333.907000", "194333.910000", "194333.913000", "194333.915000", "194333.918000", "194333.921000", "194333.924000", "194333.927000", "194333.930000", "194333.933000", "194333.936000", "194333.939000", "194333.942000", "194333.945000", "194333.948000", "194333.951000", "194333.953000", "194333.956000", "194333.959000", "194333.962000", "194413.886000", "194413.889000", "194413.892000", "194413.895000", "194413.898000", "194413.901000", "194413.904000", "194413.907000", "194413.910000", "194413.913000", "194413.916000", "194413.919000", "194413.922000", "194413.925000", "194413.928000", "194413.936000", "194413.939000", "194413.942000", "194413.945000", "194413.948000", "194413.951000", "194413.954000", "194413.957000", "194413.960000", "194413.977000", "194413.980000", "194413.983000", "194453.887000", "194453.890000", "194453.893000", "194453.896000", "194453.899000", "194453.902000", "194453.905000", "194453.908000", "194453.911000", "194453.914000", "194453.917000", "194453.920000", "194453.923000", "194453.925000", "194453.928000", "194453.931000", "194453.934000", "194453.938000", "194453.941000", "194453.944000", "194453.947000", "194453.950000", "194453.953000", "194453.956000", "194453.959000", "194453.962000", "194453.965000", "194533.886000", "194533.889000", "194533.892000", "194533.895000", "194533.898000", "194533.901000", "194533.904000", "194533.908000", "194533.911000", "194533.914000", "194533.917000", "194533.920000", "194533.923000", "194533.926000", "194533.929000", "194533.932000", "194533.935000", "194533.939000", "194533.942000", "194533.945000", "194533.948000", "194533.951000", "194533.954000", "194533.957000", "194533.960000", "194533.963000", "194533.966000", "194613.886000", "194613.889000", "194613.892000", "194613.895000", "194613.898000", "194613.901000", "194613.904000", "194613.907000", "194613.910000", "194613.913000", "194613.916000", "194613.919000", "194613.922000", "194613.925000", "194613.927000", "194613.930000", "194613.933000", "194613.936000", "194613.939000", "194613.942000", "194613.945000", "194613.948000", "194613.951000", "194613.954000", "194613.957000", "194613.960000", "194613.963000", "194653.886000", "194653.889000", "194653.892000", "194653.895000", "194653.899000", "194653.902000", "194653.905000", "194653.909000", "194653.912000", "194653.915000", "194653.918000", "194653.921000", "194653.924000", "194653.927000", "194653.930000", "194653.933000", "194653.936000", "194653.939000", "194653.942000", "194653.945000", "194653.948000", "194653.951000", "194653.954000", "194653.957000", "194653.960000", "194653.963000", "194653.966000", "194733.887000", "194733.891000", "194733.894000", "194733.897000", "194733.900000", "194733.903000", "194733.906000", "194733.909000", "194733.912000", "194733.915000", "194733.918000", "194733.921000", "194733.923000", "194733.926000", "194733.929000", "194733.932000", "194733.935000", "194733.938000", "194733.941000", "194733.945000", "194733.948000", "194733.951000", "194733.954000", "194733.957000", "194733.959000", "194733.963000", "194813.886000", "194813.889000", "194813.892000", "194813.895000", "194813.898000", "194813.901000", "194813.904000", "194813.907000", "194813.910000", "194813.922000", "194813.925000", "194813.928000", "194813.931000", "194813.934000", "194813.937000", "194813.940000", "194813.943000", "194813.946000", "194813.949000", "194813.952000", "194813.955000", "194813.958000", "194813.961000", "194813.963000", "194813.966000", "194813.969000", "194813.972000", "194853.886000", "194853.889000", "194853.892000", "194853.895000", "194853.899000", "194853.902000", "194853.916000", "194853.919000", "194853.923000", "194853.926000", "194853.929000", "194853.932000", "194853.935000", "194853.938000", "194853.941000", "194853.944000", "194853.948000", "194853.951000", "194853.954000", "194853.957000", "194853.960000", "194853.963000", "194853.966000", "194853.969000", "194853.972000", "194853.975000", "194853.978000", "194913.886000", "194913.889000", "194913.892000", "194913.895000", "194913.898000", "194913.901000", "194913.904000", "194913.907000", "194913.910000", "194913.913000", "194913.916000", "194913.919000", "194913.921000", "194913.924000", "194953.886000", "194953.889000", "194953.892000", "194953.895000", "194953.898000", "194953.901000", "194953.904000", "194954.046000", "194954.049000", "194954.052000", "194954.055000", "194954.058000", "194954.061000", "194954.065000", "194954.068000", "194954.071000", "194954.074000", "194954.077000", "194954.080000", "194954.083000", "194954.086000", "194954.089000", "194954.092000", "194954.095000", "194954.098000", "194954.101000", "195033.886000", "195033.889000", "195033.893000", "195033.896000", "195033.899000", "195033.902000", "195033.905000", "195033.908000", "195033.911000", "195033.915000", "195033.918000", "195033.921000", "195033.924000", "195033.927000", "195033.930000", "195033.933000", "195033.936000", "195033.939000", "195033.942000", "195033.945000", "195033.948000", "195033.951000", "195033.954000", "195033.957000", "195033.960000", "195033.963000", "195033.966000", "195113.886000", "195113.889000", "195113.892000", "195113.895000", "195113.898000", "195113.901000", "195113.904000", "195113.907000", "195113.910000", "195113.913000", "195113.916000", "195113.919000", "195113.922000", "195113.925000", "195113.928000", "195113.931000", "195113.934000", "195113.937000", "195113.940000", "195113.943000", "195113.946000", "195113.949000", "195113.952000", "195113.956000", "195113.959000", "195113.962000", "195113.965000", "195153.886000", "195153.889000", "195153.892000", "195153.895000", "195153.898000", "195153.901000", "195153.904000", "195153.907000", "195153.910000", "195153.913000", "195153.916000", "195153.919000", "195153.921000", "195153.924000", "195153.927000", "195153.930000", "195153.933000", "195153.936000", "195153.939000", "195153.942000", "195153.945000", "195153.948000", "195153.951000", "195153.954000", "195153.957000", "195153.960000", "195153.963000", "195211.192000", "195211.195000", "195211.206000", "195211.209000", "195211.212000", "195211.215000", "195211.218000", "195211.221000", "195211.224000", "195211.227000", "195211.230000", "195211.234000"],
