{
  "AcquisitionMatrixPE": 104,
  "AcquisitionNumber": 1,
  "AcquisitionTime": "18:00:6.265000",
  "BandwidthPerPixelPhaseEncode": 17.17,
  "BaseResolution": 104,
  "BodyPartExamined": "BRAIN",
  "CoilString": "HC1-7;NC1_2",
  "ConsistencyInfo": "N4_VE11C_LATEST_20160120",
  "ConversionSoftware": "dcm2niix",
  "ConversionSoftwareVersion": "v1.0.20190720  (JP2:OpenJPEG) GCC7.3.0",
  "DerivedVendorReportedEchoSpacing": 0.000560011,
  "DeviceSerialNumber": "167006",
  "DwellTime": 2.1e-06,
  "EchoTime": 0.037,
  "EchoTrainLength": 104,
  "EffectiveEchoSpacing": 0.000560011,
  "FlipAngle": 52,
  "ImageComments": "Unaliased_MB4_PE3_LB",
  "ImageOrientationPatientDICOM": [0.99828, -0.0491619, -0.031934, 0.0318954, 0.912533, -0.407758],
  "ImageType": [
    "ORIGINAL",
    "PRIMARY",
    "M",
    "MB",
    "ND",
    "MOSAIC"
],
  "ImagingFrequency": 123.259,
  "InPlanePhaseEncodingDirectionDICOM": "COL",
  "InstitutionAddress": "Chemin_Queen-Mary_4565_Montreal_District_CA_H3W_1W5",
  "InstitutionName": "IUGM",
  "InstitutionalDepartmentName": "Department",
  "MRAcquisitionType": "2D",
  "MagneticFieldStrength": 3,
  "Manufacturer": "Siemens",
  "ManufacturersModelName": "Prisma_fit",
  "Modality": "MR",
  "MultibandAccelerationFactor": 4,
  "PartialFourier": 1,
  "PatientPosition": "HFS",
  "PercentPhaseFOV": 100,
  "PhaseEncodingDirection": "j",
  "PhaseEncodingSteps": 104,
  "PhaseResolution": 1,
  "PixelBandwidth": 2290,
  "ProcedureStepDescription": "video_friends",
  "ProtocolName": "func_task-s01e04a",
  "PulseSequenceDetails": "%CustomerSeq%_cmrr_mbep2d_bold",
  "ReceiveCoilActiveElements": "HC1-7;NC1,2",
  "ReceiveCoilName": "HeadNeck_64",
  "ReconMatrixPE": 104,
  "RepetitionTime": 1.49,
  "SAR": 0.0361332,
  "ScanOptions": "FS",
  "ScanningSequence": "EP",
  "SequenceName": "epfid2d1_104",
  "SequenceVariant": "SK_SS",
  "SeriesDescription": "func_task-s01e04a",
  "SeriesNumber": 9,
  "ShimSetting": [615, -7259, -8848, 411, 50, -410, -8, 44],
  "SliceThickness": 2,
  "SliceTiming": [0, 0.7825, 0.0975, 0.88, 0.195, 0.98, 0.2925, 1.0775, 0.39, 1.175, 0.49, 1.2725, 0.5875, 1.37, 0.685, 0, 0.7825, 0.0975, 0.88, 0.195, 0.98, 0.2925, 1.0775, 0.39, 1.175, 0.49, 1.2725, 0.5875, 1.37, 0.685, 0, 0.7825, 0.0975, 0.88, 0.195, 0.98, 0.2925, 1.0775, 0.39, 1.175, 0.49, 1.2725, 0.5875, 1.37, 0.685, 0, 0.7825, 0.0975, 0.88, 0.195, 0.98, 0.2925, 1.0775, 0.39, 1.175, 0.49, 1.2725, 0.5875, 1.37, 0.685],
  "SoftwareVersions": "syngo_MR_E11",
  "SpacingBetweenSlices": 2,
  "StationName": "MRC35049",
  "TaskName": "friends",
  "TotalReadoutTime": 0.0576811,
  "TxRefAmp": 237.322,
  "WipMemBlock": "f1ac0556-f2a1-4002-a991-cb7b087ca2d6||Sequence: R016 ve11c/master r/e634e98; Dec 19 2017 11:00:25 by eja",
  "dcmmeta_affine": [
    [-1.9965603351593018, 0.06379079073667526, -0.0983738899230957, 98.36591339111328],
    [0.09832380712032318, 1.8250659704208374, -0.8120754361152649, -72.7469253540039],
    [-0.063867948949337, 0.8155150413513184, 1.8250633478164673, -72.46204376220703],
    [0.0, 0.0, 0.0, 1.0]
],
  "dcmmeta_reorient_transform": [
    [0.0, -1.0, 0.0, 103.0],
    [1.0, 0.0, 0.0, 0.0],
    [0.0, 0.0, 1.0, 0.0],
    [0.0, 0.0, 0.0, 1.0]
],
  "dcmmeta_shape": [104, 104, 60, 468],
  "dcmmeta_slice_dim": 2,
  "dcmmeta_version": 0.6,
  "global": {
    "const": {
      "AcquisitionMatrix": [104, 0, 0, 104],
      "AngioFlag": "N",
      "BitsAllocated": 16,
      "BitsStored": 16,
      "BodyPartExamined": "BRAIN",
      "Columns": 832,
      "EchoNumbers": 1,
      "EchoTime": 37.0,
      "EchoTrainLength": 104,
      "FlipAngle": 52.0,
      "HighBit": 15,
      "ImageOrientationPatient": [0.99828018540691, -0.0491619023461, -0.0319339753502, 0.03189539369212, 0.91253300317642, -0.40775752841],
      "ImagePositionPatient": [-854.90418705026, -743.76903270055, 331.63142515321],
      "ImageType": [
        "ORIGINAL",
        "PRIMARY",
        "M",
        "MB",
        "ND",
        "MOSAIC"
],
      "ImagedNucleus": "1H",
      "ImagingFrequency": 123.259161,
      "InPlanePhaseEncodingDirection": "COL",
      "MRAcquisitionType": "2D",
      "MagneticFieldStrength": 3.0,
      "Manufacturer": "SIEMENS",
      "ManufacturerModelName": "Prisma_fit",
      "Modality": "MR",
      "NumberOfAverages": 1.0,
      "NumberOfPhaseEncodingSteps": 104,
      "PercentPhaseFieldOfView": 100.0,
      "PercentSampling": 100.0,
      "PerformedProcedureStepStartTime": "173550.574000",
      "PhotometricInterpretation": "MONOCHROME2",
      "PixelBandwidth": 2290.0,
      "PixelRepresentation": 0,
      "PixelSpacing": [2.0, 2.0],
      "ProtocolName": "func_task-s01e04a",
      "RepetitionTime": 1490.0,
      "Rows": 832,
      "SAR": 0.03613319450428,
      "SamplesPerPixel": 1,
      "ScanOptions": "FS",
      "ScanningSequence": "EP",
      "SequenceName": "epfid2d1_104",
      "SequenceVariant": [
        "SK",
        "SS"
],
      "SeriesDescription": "func_task-s01e04a",
      "SeriesNumber": 9,
      "SeriesTime": "180111.248000",
      "SliceLocation": -41.424228035963,
      "SliceThickness": 2.0,
      "SmallestImagePixelValue": 0,
      "SoftwareVersions": "syngo MR E11",
      "SpacingBetweenSlices": 2.0000000449625,
      "SpecificCharacterSet": "ISO_IR 100",
      "StudyID": "1",
      "StudyTime": "173550.501000",
      "TransmitCoilName": "Body",
      "VariableFlipAngleFlag": "N",
      "WindowCenterWidthExplanation": "Algo1",
      "dBdt": 0.0},
    "slices": {}
  },
  "time": {
    "samples": {
      "AcquisitionNumber": [1, 2, 3, 4, 5, 6, 7, 8, 9, 10, 11, 12, 13, 14, 15, 16, 17, 18, 19, 20, 21, 22, 23, 24, 25, 26, 27, 28, 29, 30, 31, 32, 33, 34, 35, 36, 37, 38, 39, 40, 41, 42, 43, 44, 45, 46, 47, 48, 49, 50, 51, 52, 53, 54, 55, 56, 57, 58, 59, 60, 61, 62, 63, 64, 65, 66, 67, 68, 69, 70, 71, 72, 73, 74, 75, 76, 77, 78, 79, 80, 81, 82, 83, 84, 85, 86, 87, 88, 89, 90, 91, 92, 93, 94, 95, 96, 97, 98, 99, 100, 101, 102, 103, 104, 105, 106, 107, 108, 109, 110, 111, 112, 113, 114, 115, 116, 117, 118, 119, 120, 121, 122, 123, 124, 125, 126, 127, 128, 129, 130, 131, 132, 133, 134, 135, 136, 137, 138, 139, 140, 141, 142, 143, 144, 145, 146, 147, 148, 149, 150, 151, 152, 153, 154, 155, 156, 157, 158, 159, 160, 161, 162, 163, 164, 165, 166, 167, 168, 169, 170, 171, 172, 173, 174, 175, 176, 177, 178, 179, 180, 181, 182, 183, 184, 185, 186, 187, 188, 189, 190, 191, 192, 193, 194, 195, 196, 197, 198, 199, 200, 201, 202, 203, 204, 205, 206, 207, 208, 209, 210, 211, 212, 213, 214, 215, 216, 217, 218, 219, 220, 221, 222, 223, 224, 225, 226, 227, 228, 229, 230, 231, 232, 233, 234, 235, 236, 237, 238, 239, 240, 241, 242, 243, 244, 245, 246, 247, 248, 249, 250, 251, 252, 253, 254, 255, 256, 257, 258, 259, 260, 261, 262, 263, 264, 265, 266, 267, 268, 269, 270, 271, 272, 273, 274, 275, 276, 277, 278, 279, 280, 281, 282, 283, 284, 285, 286, 287, 288, 289, 290, 291, 292, 293, 294, 295, 296, 297, 298, 299, 300, 301, 302, 303, 304, 305, 306, 307, 308, 309, 310, 311, 312, 313, 314, 315, 316, 317, 318, 319, 320, 321, 322, 323, 324, 325, 326, 327, 328, 329, 330, 331, 332, 333, 334, 335, 336, 337, 338, 339, 340, 341, 342, 343, 344, 345, 346, 347, 348, 349, 350, 351, 352, 353, 354, 355, 356, 357, 358, 359, 360, 361, 362, 363, 364, 365, 366, 367, 368, 369, 370, 371, 372, 373, 374, 375, 376, 377, 378, 379, 380, 381, 382, 383, 384, 385, 386, 387, 388, 389, 390, 391, 392, 393, 394, 395, 396, 397, 398, 399, 400, 401, 402, 403, 404, 405, 406, 407, 408, 409, 410, 411, 412, 413, 414, 415, 416, 417, 418, 419, 420, 421, 422, 423, 424, 425, 426, 427, 428, 429, 430, 431, 432, 433, 434, 435, 436, 437, 438, 439, 440, 441, 442, 443, 444, 445, 446, 447, 448, 449, 450, 451, 452, 453, 454, 455, 456, 457, 458, 459, 460, 461, 462, 463, 464, 465, 466, 467, 468],
      "AcquisitionTime": ["180006.265000", "180007.755000", "180009.245000", "180010.735000", "180012.225000", "180013.715000", "180015.205000", "180016.695000", "180018.185000", "180019.675000", "180021.165000", "180022.655000", "180024.145000", "180025.635000", "180027.125000", "180028.615000", "180030.105000", "180031.595000", "180033.085000", "180034.575000", "180036.065000", "180037.555000", "180039.045000", "180040.535000", "180042.025000", "180043.515000", "180045.005000", "180046.495000", "180047.985000", "180049.475000", "180050.965000", "180052.455000", "180053.945000", "180055.435000", "180056.925000", "180058.415000", "180059.905000", "180101.395000", "180102.885000", "180104.375000", "180105.865000", "180107.355000", "180108.845000", "180110.335000", "180111.825000", "180113.315000", "180114.805000", "180116.295000", "180117.785000", "180119.275000", "180120.765000", "180122.255000", "180123.745000", "180125.235000", "180126.725000", "180128.215000", "180129.705000", "180131.195000", "180132.685000", "180134.175000", "180135.665000", "180137.155000", "180138.645000", "180140.135000", "180141.625000", "180143.115000", "180144.605000", "180146.095000", "180147.585000", "180149.075000", "180150.565000", "180152.055000", "180153.545000", "180155.035000", "180156.525000", "180158.015000", "180159.505000", "180200.995000", "180202.485000", "180203.975000", "180205.465000", "180206.955000", "180208.445000", "180209.935000", "180211.425000", "180212.915000", "180214.405000", "180215.895000", "180217.385000", "180218.875000", "180220.365000", "180221.855000", "180223.345000", "180224.835000", "180226.325000", "180227.815000", "180229.305000", "180230.795000", "180232.285000", "180233.775000", "180235.265000", "180236.755000", "180238.245000", "180239.735000", "180241.225000", "180242.715000", "180244.205000", "180245.695000", "180247.185000", "180248.675000", "180250.165000", "180251.655000", "180253.145000", "180254.635000", "180256.125000", "180257.615000", "180259.105000", "180300.595000", "180302.085000", "180303.575000", "180305.065000", "180306.555000", "180308.045000", "180309.535000", "180311.025000", "180312.515000", "180314.005000", "180315.495000", "180316.985000", "180318.475000", "180319.965000", "180321.455000", "180322.945000", "180324.435000", "180325.925000", "180327.415000", "180328.905000", "180330.395000", "180331.885000", "180333.375000", "180334.865000", "180336.355000", "180337.845000", "180339.335000", "180340.825000", "180342.315000", "180343.805000", "180345.295000", "180346.785000", "180348.275000", "180349.765000", "180351.255000", "180352.745000", "180354.235000", "180355.725000", "180357.215000", "180358.705000", "180400.195000", "180401.685000", "180403.175000", "180404.665000", "180406.155000", "180407.645000", "180409.135000", "180410.625000", "180412.115000", "180413.605000", "180415.095000", "180416.585000", "180418.075000", "180419.565000", "180421.055000", "180422.545000", "180424.035000", "180425.525000", "180427.015000", "180428.505000", "180429.995000", "180431.485000", "180432.975000", "180434.465000", "180435.955000", "180437.445000", "180438.935000", "180440.425000", "180441.915000", "180443.405000", "180444.895000", "180446.385000", "180447.875000", "180449.365000", "180450.855000", "180452.345000", "180453.835000", "180455.325000", "180456.815000", "180458.305000", "180459.795000", "180501.285000", "180502.775000", "180504.265000", "180505.755000", "180507.245000", "180508.735000", "180510.225000", "180511.715000", "180513.205000", "180514.695000", "180516.185000", "180517.675000", "180519.165000", "180520.655000", "180522.145000", "180523.635000", "180525.125000", "180526.615000", "180528.105000", "180529.595000", "180531.085000", "180532.575000", "180534.065000", "180535.555000", "180537.045000", "180538.535000", "180540.025000", "180541.515000", "180543.005000", "180544.495000", "180545.985000", "180547.475000", "180548.965000", "180550.455000", "180551.945000", "180553.435000", "180554.925000", "180556.415000", "180557.905000", "180559.395000", "180600.885000", "180602.375000", "180603.865000", "180605.355000", "180606.845000", "180608.335000", "180609.825000", "180611.315000", "180612.805000", "180614.295000", "180615.785000", "180617.275000", "180618.765000", "180620.255000", "180621.745000", "180623.235000", "180624.725000", "180626.215000", "180627.705000", "180629.195000", "180630.685000", "180632.175000", "180633.665000", "180635.155000", "180636.645000", "180638.135000", "180639.625000", "180641.115000", "180642.605000", "180644.095000", "180645.585000", "180647.075000", "180648.565000", "180650.055000", "180651.545000", "180653.035000", "180654.525000", "180656.015000", "180657.505000", "180658.995000", "180700.485000", "180701.975000", "180703.465000", "180704.955000", "180706.445000", "180707.935000", "180709.425000", "180710.915000", "180712.405000", "180713.895000", "180715.385000", "180716.875000", "180718.365000", "180719.855000", "180721.345000", "180722.835000", "180724.325000", "180725.815000", "180727.305000", "180728.795000", "180730.285000", "180731.775000", "180733.265000", "180734.755000", "180736.245000", "180737.735000", "180739.225000", "180740.715000", "180742.205000", "180743.695000", "180745.185000", "180746.675000", "180748.165000", "180749.655000", "180751.145000", "180752.635000", "180754.125000", "180755.615000", "180757.105000", "180758.595000", "180800.085000", "180801.575000", "180803.065000", "180804.555000", "180806.045000", "180807.535000", "180809.025000", "180810.515000", "180812.005000", "180813.495000", "180814.985000", "180816.475000", "180817.965000", "180819.455000", "180820.945000", "180822.435000", "180823.925000", "180825.415000", "180826.905000", "180828.395000", "180829.885000", "180831.375000", "180832.865000", "180834.355000", "180835.845000", "180837.335000", "180838.825000", "180840.315000", "180841.805000", "180843.295000", "180844.785000", "180846.275000", "180847.765000", "180849.255000", "180850.745000", "180852.235000", "180853.725000", "180855.215000", "180856.705000", "180858.195000", "180859.685000", "180901.175000", "180902.665000", "180904.155000", "180905.645000", "180907.135000", "180908.625000", "180910.115000", "180911.605000", "180913.095000", "180914.585000", "180916.075000", "180917.565000", "180919.055000", "180920.545000", "180922.035000", "180923.525000", "180925.015000", "180926.505000", "180927.995000", "180929.485000", "180930.975000", "180932.465000", "180933.955000", "180935.445000", "180936.935000", "180938.425000", "180939.915000", "180941.405000", "180942.895000", "180944.385000", "180945.875000", "180947.365000", "180948.855000", "180950.345000", "180951.835000", "180953.325000", "180954.815000", "180956.305000", "180957.795000", "180959.285000", "181000.775000", "181002.265000", "181003.755000", "181005.245000", "181006.735000", "181008.225000", "181009.715000", "181011.205000", "181012.695000", "181014.185000", "181015.675000", "181017.165000", "181018.655000", "181020.145000", "181021.635000", "181023.125000", "181024.615000", "181026.105000", "181027.595000", "181029.085000", "181030.575000", "181032.065000", "181033.555000", "181035.045000", "181036.535000", "181038.025000", "181039.515000", "181041.005000", "181042.495000", "181043.985000", "181045.475000", "181046.965000", "181048.455000", "181049.945000", "181051.435000", "181052.925000", "181054.415000", "181055.905000", "181057.395000", "181058.885000", "181100.375000", "181101.865000", "181103.355000", "181104.845000", "181106.335000", "181107.825000", "181109.315000", "181110.805000", "181112.295000", "181113.785000", "181115.275000", "181116.765000", "181118.255000", "181119.745000", "181121.235000", "181122.725000", "181124.215000", "181125.705000", "181127.195000", "181128.685000", "181130.175000", "181131.665000", "181133.155000", "181134.645000", "181136.135000", "181137.625000", "181139.115000", "181140.605000", "181142.095000"],
      "ContentTime": ["180111.250000", "180111.254000", "180111.266000", "180111.270000", "180111.273000", "180111.276000", "180111.279000", "180111.282000", "180111.285000", "180111.288000", "180131.209000", "180131.212000", "180131.225000", "180131.236000", "180131.239000", "180131.242000", "180131.245000", "180131.247000", "180131.250000", "180131.253000", "180131.256000", "180131.259000", "180131.262000", "180131.265000", "180131.268000", "180131.271000", "180131.274000", "180131.277000", "180131.280000", "180131.283000", "180151.209000", "180151.212000", "180151.215000", "180151.218000", "180151.221000", "180151.223000", "180151.226000", "180151.229000", "180151.232000", "180151.235000", "180151.238000", "180151.241000", "180151.244000", "180151.247000", "180151.250000", "180151.253000", "180151.256000", "180151.258000", "180151.261000", "180151.264000", "180151.267000", "180211.209000", "180211.212000", "180211.215000", "180211.218000", "180211.221000", "180211.224000", "180211.226000", "180211.229000", "180211.232000", "180211.235000", "180211.238000", "180211.241000", "180211.244000", "180211.247000", "180211.250000", "180211.253000", "180211.256000", "180211.259000", "180211.262000", "180211.264000", "180231.209000", "180231.212000", "180231.215000", "180231.218000", "180231.221000", "180231.224000", "180231.227000", "180231.229000", "180231.232000", "180231.235000", "180231.238000", "180231.241000", "180231.244000", "180231.247000", "180231.250000", "180231.253000", "180231.256000", "180231.258000", "180231.261000", "180231.264000", "180311.209000", "180311.212000", "180311.215000", "180311.218000", "180311.221000", "180311.224000", "180311.227000", "180311.230000", "180311.236000", "180311.238000", "180311.241000", "180311.244000", "180311.247000", "180311.250000", "180311.253000", "180311.256000", "180311.259000", "180311.263000", "180311.266000", "180311.268000", "180311.271000", "180311.274000", "180311.277000", "180311.280000", "180311.283000", "180311.286000", "180311.289000", "180311.292000", "180311.295000", "180311.298000", "180311.300000", "180311.303000", "180351.209000", "180351.212000", "180351.215000", "180351.218000", "180351.221000", "180351.224000", "180351.227000", "180351.230000", "180351.233000", "180351.236000", "180351.239000", "180351.242000", "180351.244000", "180351.247000", "180351.250000", "180351.253000", "180351.256000", "180351.259000", "180351.262000", "180351.265000", "180351.268000", "180351.271000", "180351.274000", "180351.277000", "180351.280000", "180351.283000", "180351.286000", "180431.209000", "180431.212000", "180431.215000", "180431.218000", "180431.221000", "180431.224000", "180431.227000", "180431.230000", "180431.233000", "180431.236000", "180431.239000", "180431.242000", "180431.245000", "180431.248000", "180431.251000", "180431.258000", "180431.261000", "180431.264000", "180431.267000", "180431.270000", "180431.273000", "180431.276000", "180431.278000", "180431.282000", "180431.285000", "180431.287000", "180431.290000", "180511.209000", "180511.212000", "180511.215000", "180511.218000", "180511.221000", "180511.224000", "180511.227000", "180511.230000", "180511.233000", "180511.236000", "180511.239000", "180511.242000", "180511.245000", "180511.248000", "180511.251000", "180511.254000", "180511.257000", "180511.260000", "180511.262000", "180511.265000", "180511.268000", "180511.271000", "180511.274000", "180511.277000", "180511.280000", "180511.283000", "180511.286000", "180551.210000", "180551.213000", "180551.216000", "180551.219000", "180551.222000", "180551.225000", "180551.228000", "180551.231000", "180551.234000", "180551.249000", "180551.252000", "180551.255000", "180551.258000", "180551.261000", "180551.264000", "180551.267000", "180551.270000", "180551.273000", "180551.275000", "180551.278000", "180551.281000", "180551.284000", "180551.287000", "180551.290000", "180551.293000", "180551.296000", "180551.299000", "180631.209000", "180631.212000", "180631.215000", "180631.218000", "180631.221000", "180631.224000", "180631.227000", "180631.230000", "180631.233000", "180631.236000", "180631.239000", "180631.242000", "180631.245000", "180631.248000", "180631.251000", "180631.254000", "180631.256000", "180631.259000", "180631.262000", "180631.265000", "180631.268000", "180631.271000", "180631.274000", "180631.277000", "180631.280000", "180631.283000", "180631.286000", "180711.209000", "180711.213000", "180711.216000", "180711.219000", "180711.222000", "180711.225000", "180711.228000", "180711.231000", "180711.234000", "180711.237000", "180711.240000", "180711.243000", "180711.246000", "180711.249000", "180711.252000", "180711.255000", "180711.258000", "180711.261000", "180711.264000", "180711.267000", "180711.270000", "180711.273000", "180711.276000", "180711.279000", "180711.282000", "180711.285000", "180751.210000", "180751.213000", "180751.216000", "180751.219000", "180751.222000", "180751.225000", "180751.228000", "180751.231000", "180751.234000", "180751.237000", "180751.240000", "180751.243000", "180751.246000", "180751.249000", "180751.252000", "180751.255000", "180751.258000", "180751.261000", "180751.264000", "180751.267000", "180751.270000", "180751.272000", "180751.275000", "180751.278000", "180751.281000", "180751.284000", "180751.287000", "180831.209000", "180831.212000", "180831.215000", "180831.218000", "180831.221000", "180831.224000", "180831.227000", "180831.230000", "180831.233000", "180831.236000", "180831.239000", "180831.242000", "180831.245000", "180831.248000", "180831.251000", "180831.254000", "180831.257000", "180831.260000", "180831.263000", "180831.266000", "180831.269000", "180831.272000", "180831.275000", "180831.278000", "180831.281000", "180831.284000", "180831.287000", "180911.209000", "180911.212000", "180911.215000", "180911.218000", "180911.221000", "180911.224000", "180911.227000", "180911.230000", "180911.233000", "180911.236000", "180911.239000", "180911.242000", "180911.245000", "180911.248000", "180911.251000", "180911.254000", "180911.257000", "180911.260000", "180911.263000", "180911.266000", "180911.268000", "180911.271000", "180911.274000", "180911.277000", "180911.280000", "180911.283000", "180911.286000", "180951.209000", "180951.212000", "180951.215000", "180951.218000", "180951.221000", "180951.224000", "180951.227000", "180951.230000", "180951.233000", "180951.236000", "180951.239000", "180951.242000", "180951.245000", "180951.248000", "180951.251000", "180951.254000", "180951.257000", "180951.260000", "180951.263000", "180951.266000", "180951.268000", "180951.271000", "180951.274000", "180951.277000", "180951.280000", "180951.283000", "180951.286000", "181031.210000", "181031.213000", "181031.216000", "181031.219000", "181031.222000", "181031.225000", "181031.228000", "181031.231000", "181031.243000", "181031.246000", "181031.261000", "181031.264000", "181031.267000", "181031.270000", "181031.273000", "181031.275000", "181031.278000", "181031.281000", "181031.284000", "181031.287000", "181031.290000", "181031.293000", "181031.296000", "181031.299000", "181031.302000", "181031.305000", "181031.308000", "181111.209000", "181111.212000", "181111.215000", "181111.218000", "181111.221000", "181111.224000", "181111.228000", "181111.231000", "181111.234000", "181111.237000", "181111.240000", "181111.243000", "181111.246000", "181111.249000", "181111.252000", "181111.255000", "181111.258000", "181111.261000", "181111.264000", "181111.267000", "181111.270000", "181111.273000", "181111.276000", "181111.279000", "181111.282000", "181111.285000", "181144.077000", "181144.081000", "181144.084000", "181144.087000", "181144.090000", "181144.093000", "181144.096000", "181144.099000", "181144.102000", "181144.105000", "181144.108000", "181144.111000", "181144.114000", "181144.117000", "181144.121000", "181144.124000", "181144.127000", "181144.130000", "181144.133000", "181144.136000", "181144.139000", "181144.142000", "181144.145000"],
