{
  "AcquisitionMatrixPE": 104,
  "AcquisitionNumber": 1,
  "AcquisitionTime": "18:12:18.157500",
  "BandwidthPerPixelPhaseEncode": 17.17,
  "BaseResolution": 104,
  "BodyPartExamined": "BRAIN",
  "CoilString": "HC1-7;NC1_2",
  "ConsistencyInfo": "N4_VE11C_LATEST_20160120",
  "ConversionSoftware": "dcm2niix",
  "ConversionSoftwareVersion": "v1.0.20190720  (JP2:OpenJPEG) GCC7.3.0",
  "DerivedVendorReportedEchoSpacing": 0.000560011,
  "DeviceSerialNumber": "167006",
  "DwellTime": 2.1e-06,
  "EchoTime": 0.037,
  "EchoTrainLength": 104,
  "EffectiveEchoSpacing": 0.000560011,
  "FlipAngle": 52,
  "ImageComments": "Unaliased_MB4_PE3_LB",
  "ImageOrientationPatientDICOM": [0.99828, -0.0491619, -0.031934, 0.0318954, 0.912533, -0.407758],
  "ImageType": [
    "ORIGINAL",
    "PRIMARY",
    "M",
    "MB",
    "ND",
    "MOSAIC"
],
  "ImagingFrequency": 123.259,
  "InPlanePhaseEncodingDirectionDICOM": "COL",
  "InstitutionAddress": "Chemin_Queen-Mary_4565_Montreal_District_CA_H3W_1W5",
  "InstitutionName": "IUGM",
  "InstitutionalDepartmentName": "Department",
  "MRAcquisitionType": "2D",
  "MagneticFieldStrength": 3,
  "Manufacturer": "Siemens",
  "ManufacturersModelName": "Prisma_fit",
  "Modality": "MR",
  "MultibandAccelerationFactor": 4,
  "PartialFourier": 1,
  "PatientPosition": "HFS",
  "PercentPhaseFOV": 100,
  "PhaseEncodingDirection": "j",
  "PhaseEncodingSteps": 104,
  "PhaseResolution": 1,
  "PixelBandwidth": 2290,
  "ProcedureStepDescription": "video_friends",
  "ProtocolName": "func_task-s01e04b",
  "PulseSequenceDetails": "%CustomerSeq%_cmrr_mbep2d_bold",
  "ReceiveCoilActiveElements": "HC1-7;NC1,2",
  "ReceiveCoilName": "HeadNeck_64",
  "ReconMatrixPE": 104,
  "RepetitionTime": 1.49,
  "SAR": 0.0361332,
  "ScanOptions": "FS",
  "ScanningSequence": "EP",
  "SequenceName": "epfid2d1_104",
  "SequenceVariant": "SK_SS",
  "SeriesDescription": "func_task-s01e04b",
  "SeriesNumber": 11,
  "ShimSetting": [615, -7259, -8848, 411, 50, -410, -8, 44],
  "SliceThickness": 2,
  "SliceTiming": [0, 0.7825, 0.0975, 0.88, 0.195, 0.9775, 0.2925, 1.0775, 0.39, 1.175, 0.4875, 1.2725, 0.5875, 1.37, 0.685, 0, 0.7825, 0.0975, 0.88, 0.195, 0.9775, 0.2925, 1.0775, 0.39, 1.175, 0.4875, 1.2725, 0.5875, 1.37, 0.685, 0, 0.7825, 0.0975, 0.88, 0.195, 0.9775, 0.2925, 1.0775, 0.39, 1.175, 0.4875, 1.2725, 0.5875, 1.37, 0.685, 0, 0.7825, 0.0975, 0.88, 0.195, 0.9775, 0.2925, 1.0775, 0.39, 1.175, 0.4875, 1.2725, 0.5875, 1.37, 0.685],
  "SoftwareVersions": "syngo_MR_E11",
  "SpacingBetweenSlices": 2,
  "StationName": "MRC35049",
  "TaskName": "friends",
  "TotalReadoutTime": 0.0576811,
  "TxRefAmp": 237.322,
  "WipMemBlock": "b481cebb-5661-4582-95f7-d18f66d506bd||Sequence: R016 ve11c/master r/e634e98; Dec 19 2017 11:00:25 by eja",
  "dcmmeta_affine": [
    [-1.9965603351593018, 0.06379079073667526, -0.0983738899230957, 98.36591339111328],
    [0.09832380712032318, 1.8250659704208374, -0.8120754361152649, -72.7469253540039],
    [-0.063867948949337, 0.8155150413513184, 1.8250633478164673, -72.46204376220703],
    [0.0, 0.0, 0.0, 1.0]
],
  "dcmmeta_reorient_transform": [
    [0.0, -1.0, 0.0, 103.0],
    [1.0, 0.0, 0.0, 0.0],
    [0.0, 0.0, 1.0, 0.0],
    [0.0, 0.0, 0.0, 1.0]
],
  "dcmmeta_shape": [104, 104, 60, 468],
  "dcmmeta_slice_dim": 2,
  "dcmmeta_version": 0.6,
  "global": {
    "const": {
      "AcquisitionMatrix": [104, 0, 0, 104],
      "AngioFlag": "N",
      "BitsAllocated": 16,
      "BitsStored": 16,
      "BodyPartExamined": "BRAIN",
      "Columns": 832,
      "EchoNumbers": 1,
      "EchoTime": 37.0,
      "EchoTrainLength": 104,
      "FlipAngle": 52.0,
      "HighBit": 15,
      "ImageOrientationPatient": [0.99828018540691, -0.0491619023461, -0.0319339753502, 0.03189539369212, 0.91253300317642, -0.40775752841],
      "ImagePositionPatient": [-854.90418705026, -743.76903270055, 331.63142515321],
      "ImageType": [
        "ORIGINAL",
        "PRIMARY",
        "M",
        "MB",
        "ND",
        "MOSAIC"
],
      "ImagedNucleus": "1H",
      "ImagingFrequency": 123.259173,
      "InPlanePhaseEncodingDirection": "COL",
      "MRAcquisitionType": "2D",
      "MagneticFieldStrength": 3.0,
      "Manufacturer": "SIEMENS",
      "ManufacturerModelName": "Prisma_fit",
      "Modality": "MR",
      "NumberOfAverages": 1.0,
      "NumberOfPhaseEncodingSteps": 104,
      "PercentPhaseFieldOfView": 100.0,
      "PercentSampling": 100.0,
      "PerformedProcedureStepStartTime": "173550.574000",
      "PhotometricInterpretation": "MONOCHROME2",
      "PixelBandwidth": 2290.0,
      "PixelRepresentation": 0,
      "PixelSpacing": [2.0, 2.0],
      "ProtocolName": "func_task-s01e04b",
      "RepetitionTime": 1490.0,
      "Rows": 832,
      "SAR": 0.03613319450428,
      "SamplesPerPixel": 1,
      "ScanOptions": "FS",
      "ScanningSequence": "EP",
      "SequenceName": "epfid2d1_104",
      "SequenceVariant": [
        "SK",
        "SS"
],
      "SeriesDescription": "func_task-s01e04b",
      "SeriesNumber": 11,
      "SeriesTime": "181333.920000",
      "SliceLocation": -41.424228035963,
      "SliceThickness": 2.0,
      "SmallestImagePixelValue": 0,
      "SoftwareVersions": "syngo MR E11",
      "SpacingBetweenSlices": 2.0000000449625,
      "SpecificCharacterSet": "ISO_IR 100",
      "StudyID": "1",
      "StudyTime": "173550.501000",
      "TransmitCoilName": "Body",
      "VariableFlipAngleFlag": "N",
      "WindowCenterWidthExplanation": "Algo1",
      "dBdt": 0.0},
    "slices": {}
  },
  "time": {
    "samples": {
      "AcquisitionNumber": [1, 2, 3, 4, 5, 6, 7, 8, 9, 10, 11, 12, 13, 14, 15, 16, 17, 18, 19, 20, 21, 22, 23, 24, 25, 26, 27, 28, 29, 30, 31, 32, 33, 34, 35, 36, 37, 38, 39, 40, 41, 42, 43, 44, 45, 46, 47, 48, 49, 50, 51, 52, 53, 54, 55, 56, 57, 58, 59, 60, 61, 62, 63, 64, 65, 66, 67, 68, 69, 70, 71, 72, 73, 74, 75, 76, 77, 78, 79, 80, 81, 82, 83, 84, 85, 86, 87, 88, 89, 90, 91, 92, 93, 94, 95, 96, 97, 98, 99, 100, 101, 102, 103, 104, 105, 106, 107, 108, 109, 110, 111, 112, 113, 114, 115, 116, 117, 118, 119, 120, 121, 122, 123, 124, 125, 126, 127, 128, 129, 130, 131, 132, 133, 134, 135, 136, 137, 138, 139, 140, 141, 142, 143, 144, 145, 146, 147, 148, 149, 150, 151, 152, 153, 154, 155, 156, 157, 158, 159, 160, 161, 162, 163, 164, 165, 166, 167, 168, 169, 170, 171, 172, 173, 174, 175, 176, 177, 178, 179, 180, 181, 182, 183, 184, 185, 186, 187, 188, 189, 190, 191, 192, 193, 194, 195, 196, 197, 198, 199, 200, 201, 202, 203, 204, 205, 206, 207, 208, 209, 210, 211, 212, 213, 214, 215, 216, 217, 218, 219, 220, 221, 222, 223, 224, 225, 226, 227, 228, 229, 230, 231, 232, 233, 234, 235, 236, 237, 238, 239, 240, 241, 242, 243, 244, 245, 246, 247, 248, 249, 250, 251, 252, 253, 254, 255, 256, 257, 258, 259, 260, 261, 262, 263, 264, 265, 266, 267, 268, 269, 270, 271, 272, 273, 274, 275, 276, 277, 278, 279, 280, 281, 282, 283, 284, 285, 286, 287, 288, 289, 290, 291, 292, 293, 294, 295, 296, 297, 298, 299, 300, 301, 302, 303, 304, 305, 306, 307, 308, 309, 310, 311, 312, 313, 314, 315, 316, 317, 318, 319, 320, 321, 322, 323, 324, 325, 326, 327, 328, 329, 330, 331, 332, 333, 334, 335, 336, 337, 338, 339, 340, 341, 342, 343, 344, 345, 346, 347, 348, 349, 350, 351, 352, 353, 354, 355, 356, 357, 358, 359, 360, 361, 362, 363, 364, 365, 366, 367, 368, 369, 370, 371, 372, 373, 374, 375, 376, 377, 378, 379, 380, 381, 382, 383, 384, 385, 386, 387, 388, 389, 390, 391, 392, 393, 394, 395, 396, 397, 398, 399, 400, 401, 402, 403, 404, 405, 406, 407, 408, 409, 410, 411, 412, 413, 414, 415, 416, 417, 418, 419, 420, 421, 422, 423, 424, 425, 426, 427, 428, 429, 430, 431, 432, 433, 434, 435, 436, 437, 438, 439, 440, 441, 442, 443, 444, 445, 446, 447, 448, 449, 450, 451, 452, 453, 454, 455, 456, 457, 458, 459, 460, 461, 462, 463, 464, 465, 466, 467, 468],
      "AcquisitionTime": ["181218.157500", "181219.647500", "181221.137500", "181222.627500", "181224.117500", "181225.607500", "181227.097500", "181228.587500", "181230.077500", "181231.567500", "181233.057500", "181234.547500", "181236.037500", "181237.527500", "181239.017500", "181240.507500", "181241.997500", "181243.487500", "181244.977500", "181246.467500", "181247.957500", "181249.447500", "181250.937500", "181252.427500", "181253.917500", "181255.407500", "181256.897500", "181258.387500", "181259.877500", "181301.367500", "181302.857500", "181304.347500", "181305.837500", "181307.327500", "181308.817500", "181310.307500", "181311.797500", "181313.287500", "181314.777500", "181316.267500", "181317.757500", "181319.247500", "181320.737500", "181322.227500", "181323.717500", "181325.207500", "181326.697500", "181328.187500", "181329.677500", "181331.167500", "181332.657500", "181334.147500", "181335.637500", "181337.127500", "181338.617500", "181340.107500", "181341.597500", "181343.087500", "181344.577500", "181346.067500", "181347.557500", "181349.047500", "181350.537500", "181352.027500", "181353.517500", "181355.007500", "181356.497500", "181357.987500", "181359.477500", "181400.967500", "181402.457500", "181403.947500", "181405.437500", "181406.927500", "181408.417500", "181409.907500", "181411.397500", "181412.887500", "181414.377500", "181415.867500", "181417.357500", "181418.847500", "181420.337500", "181421.827500", "181423.317500", "181424.807500", "181426.297500", "181427.787500", "181429.277500", "181430.767500", "181432.257500", "181433.747500", "181435.237500", "181436.727500", "181438.217500", "181439.707500", "181441.197500", "181442.687500", "181444.177500", "181445.667500", "181447.157500", "181448.647500", "181450.137500", "181451.627500", "181453.117500", "181454.607500", "181456.097500", "181457.587500", "181459.077500", "181500.567500", "181502.057500", "181503.547500", "181505.037500", "181506.527500", "181508.017500", "181509.507500", "181510.997500", "181512.487500", "181513.977500", "181515.467500", "181516.957500", "181518.447500", "181519.937500", "181521.427500", "181522.917500", "181524.407500", "181525.897500", "181527.387500", "181528.877500", "181530.367500", "181531.857500", "181533.347500", "181534.837500", "181536.327500", "181537.817500", "181539.307500", "181540.797500", "181542.287500", "181543.777500", "181545.267500", "181546.757500", "181548.247500", "181549.737500", "181551.227500", "181552.717500", "181554.207500", "181555.697500", "181557.187500", "181558.677500", "181600.167500", "181601.657500", "181603.147500", "181604.637500", "181606.127500", "181607.617500", "181609.107500", "181610.597500", "181612.087500", "181613.577500", "181615.067500", "181616.557500", "181618.047500", "181619.537500", "181621.027500", "181622.517500", "181624.007500", "181625.497500", "181626.987500", "181628.477500", "181629.967500", "181631.457500", "181632.947500", "181634.437500", "181635.927500", "181637.417500", "181638.907500", "181640.397500", "181641.887500", "181643.377500", "181644.867500", "181646.357500", "181647.847500", "181649.337500", "181650.827500", "181652.317500", "181653.807500", "181655.297500", "181656.787500", "181658.277500", "181659.767500", "181701.257500", "181702.747500", "181704.237500", "181705.727500", "181707.217500", "181708.707500", "181710.197500", "181711.687500", "181713.177500", "181714.667500", "181716.157500", "181717.647500", "181719.137500", "181720.627500", "181722.117500", "181723.607500", "181725.097500", "181726.587500", "181728.077500", "181729.567500", "181731.057500", "181732.547500", "181734.037500", "181735.527500", "181737.017500", "181738.507500", "181739.997500", "181741.487500", "181742.977500", "181744.467500", "181745.957500", "181747.447500", "181748.937500", "181750.427500", "181751.917500", "181753.407500", "181754.897500", "181756.387500", "181757.877500", "181759.367500", "181800.857500", "181802.347500", "181803.837500", "181805.327500", "181806.817500", "181808.307500", "181809.797500", "181811.287500", "181812.777500", "181814.267500", "181815.757500", "181817.247500", "181818.737500", "181820.227500", "181821.717500", "181823.207500", "181824.697500", "181826.187500", "181827.677500", "181829.167500", "181830.657500", "181832.147500", "181833.637500", "181835.127500", "181836.617500", "181838.107500", "181839.597500", "181841.087500", "181842.577500", "181844.067500", "181845.557500", "181847.047500", "181848.537500", "181850.027500", "181851.517500", "181853.007500", "181854.497500", "181855.987500", "181857.477500", "181858.967500", "181900.457500", "181901.947500", "181903.437500", "181904.927500", "181906.417500", "181907.907500", "181909.397500", "181910.887500", "181912.377500", "181913.867500", "181915.357500", "181916.847500", "181918.337500", "181919.827500", "181921.317500", "181922.807500", "181924.297500", "181925.787500", "181927.277500", "181928.767500", "181930.257500", "181931.747500", "181933.237500", "181934.727500", "181936.217500", "181937.707500", "181939.197500", "181940.687500", "181942.177500", "181943.667500", "181945.157500", "181946.647500", "181948.137500", "181949.627500", "181951.117500", "181952.607500", "181954.097500", "181955.587500", "181957.077500", "181958.567500", "182000.057500", "182001.547500", "182003.037500", "182004.527500", "182006.017500", "182007.507500", "182008.997500", "182010.487500", "182011.977500", "182013.467500", "182014.957500", "182016.447500", "182017.937500", "182019.427500", "182020.917500", "182022.407500", "182023.897500", "182025.387500", "182026.877500", "182028.367500", "182029.857500", "182031.347500", "182032.837500", "182034.327500", "182035.817500", "182037.307500", "182038.797500", "182040.287500", "182041.777500", "182043.267500", "182044.757500", "182046.247500", "182047.737500", "182049.227500", "182050.717500", "182052.207500", "182053.697500", "182055.187500", "182056.677500", "182058.167500", "182059.657500", "182101.147500", "182102.637500", "182104.127500", "182105.617500", "182107.107500", "182108.597500", "182110.087500", "182111.577500", "182113.067500", "182114.557500", "182116.047500", "182117.537500", "182119.027500", "182120.517500", "182122.007500", "182123.497500", "182124.987500", "182126.477500", "182127.967500", "182129.457500", "182130.947500", "182132.437500", "182133.927500", "182135.417500", "182136.907500", "182138.397500", "182139.887500", "182141.377500", "182142.867500", "182144.357500", "182145.847500", "182147.337500", "182148.827500", "182150.317500", "182151.807500", "182153.297500", "182154.787500", "182156.277500", "182157.767500", "182159.257500", "182200.747500", "182202.237500", "182203.727500", "182205.217500", "182206.707500", "182208.197500", "182209.687500", "182211.177500", "182212.667500", "182214.157500", "182215.647500", "182217.137500", "182218.627500", "182220.117500", "182221.607500", "182223.097500", "182224.587500", "182226.077500", "182227.567500", "182229.057500", "182230.547500", "182232.037500", "182233.527500", "182235.017500", "182236.507500", "182237.997500", "182239.487500", "182240.977500", "182242.467500", "182243.957500", "182245.447500", "182246.937500", "182248.427500", "182249.917500", "182251.407500", "182252.897500", "182254.387500", "182255.877500", "182257.367500", "182258.857500", "182300.347500", "182301.837500", "182303.327500", "182304.817500", "182306.307500", "182307.797500", "182309.287500", "182310.777500", "182312.267500", "182313.757500", "182315.247500", "182316.737500", "182318.227500", "182319.717500", "182321.207500", "182322.697500", "182324.187500", "182325.677500", "182327.167500", "182328.657500", "182330.147500", "182331.637500", "182333.127500", "182334.617500", "182336.107500", "182337.597500", "182339.087500", "182340.577500", "182342.067500", "182343.557500", "182345.047500", "182346.537500", "182348.027500", "182349.517500", "182351.007500", "182352.497500", "182353.987500"],
      "ContentTime": ["181333.923000", "181333.936000", "181333.939000", "181333.942000", "181333.945000", "181333.948000", "181333.950000", "181333.953000", "181333.956000", "181333.959000", "181333.962000", "181333.965000", "181333.968000", "181333.971000", "181333.975000", "181333.978000", "181333.981000", "181334.010000", "181334.013000", "181334.016000", "181353.886000", "181353.889000", "181353.892000", "181353.895000", "181353.897000", "181353.901000", "181353.904000", "181353.907000", "181353.910000", "181353.912000", "181353.915000", "181353.918000", "181353.921000", "181353.924000", "181353.927000", "181353.930000", "181353.933000", "181353.936000", "181353.939000", "181353.942000", "181353.944000", "181413.886000", "181413.889000", "181413.892000", "181413.895000", "181413.898000", "181413.901000", "181413.904000", "181413.907000", "181413.910000", "181413.912000", "181413.915000", "181413.918000", "181413.921000", "181413.924000", "181413.927000", "181413.930000", "181413.933000", "181413.936000", "181413.939000", "181413.942000", "181433.887000", "181433.890000", "181433.893000", "181433.896000", "181433.899000", "181433.902000", "181433.904000", "181433.907000", "181433.910000", "181433.913000", "181433.916000", "181433.919000", "181433.922000", "181433.925000", "181433.928000", "181433.931000", "181433.934000", "181433.937000", "181433.940000", "181433.943000", "181453.886000", "181453.889000", "181453.892000", "181453.895000", "181453.898000", "181453.901000", "181453.903000", "181453.906000", "181453.909000", "181453.912000", "181453.915000", "181453.918000", "181453.921000", "181453.924000", "181453.927000", "181453.930000", "181453.933000", "181453.935000", "181453.938000", "181453.941000", "181453.944000", "181533.886000", "181533.889000", "181533.892000", "181533.895000", "181533.898000", "181533.901000", "181533.904000", "181533.907000", "181533.909000", "181533.916000", "181533.919000", "181533.921000", "181533.924000", "181533.927000", "181533.930000", "181533.933000", "181533.936000", "181533.939000", "181533.942000", "181533.945000", "181533.948000", "181533.951000", "181533.954000", "181533.956000", "181533.959000", "181533.962000", "181533.965000", "181533.968000", "181533.971000", "181613.886000", "181613.889000", "181613.906000", "181613.909000", "181613.912000", "181613.915000", "181613.918000", "181613.921000", "181613.923000", "181613.926000", "181613.929000", "181613.932000", "181613.935000", "181613.938000", "181613.941000", "181613.944000", "181613.947000", "181613.950000", "181613.953000", "181613.956000", "181613.959000", "181613.962000", "181613.965000", "181613.968000", "181613.971000", "181613.974000", "181653.887000", "181653.890000", "181653.893000", "181653.896000", "181653.899000", "181653.902000", "181653.911000", "181653.914000", "181653.917000", "181653.920000", "181653.923000", "181653.926000", "181653.928000", "181653.931000", "181653.934000", "181653.937000", "181653.940000", "181653.943000", "181653.946000", "181653.949000", "181653.952000", "181653.955000", "181653.958000", "181653.961000", "181653.964000", "181653.967000", "181653.970000", "181733.886000", "181733.889000", "181733.892000", "181733.895000", "181733.898000", "181733.901000", "181733.904000", "181733.907000", "181733.910000", "181733.913000", "181733.916000", "181733.919000", "181733.921000", "181733.924000", "181733.928000", "181733.931000", "181733.934000", "181733.937000", "181733.940000", "181733.943000", "181733.945000", "181733.948000", "181733.951000", "181733.954000", "181733.957000", "181733.960000", "181733.963000", "181813.886000", "181813.889000", "181813.892000", "181813.895000", "181813.898000", "181813.901000", "181813.904000", "181813.907000", "181813.910000", "181813.913000", "181813.916000", "181813.919000", "181813.922000", "181813.925000", "181813.927000", "181813.930000", "181813.933000", "181813.936000", "181813.939000", "181813.942000", "181813.945000", "181813.948000", "181813.951000", "181813.954000", "181813.957000", "181813.960000", "181813.963000", "181853.886000", "181853.889000", "181853.892000", "181853.895000", "181853.898000", "181853.901000", "181853.904000", "181853.907000", "181853.910000", "181853.913000", "181853.916000", "181853.918000", "181853.921000", "181853.924000", "181853.927000", "181853.930000", "181853.933000", "181853.936000", "181853.939000", "181853.942000", "181853.945000", "181853.948000", "181853.951000", "181853.954000", "181853.957000", "181853.960000", "181853.963000", "181913.886000", "181913.889000", "181913.892000", "181913.895000", "181913.898000", "181913.901000", "181913.904000", "181913.907000", "181913.910000", "181913.913000", "181913.916000", "181913.919000", "181913.922000", "181953.886000", "181953.889000", "181953.892000", "181953.895000", "181953.898000", "181953.901000", "181953.904000", "181953.907000", "181953.910000", "181953.913000", "181953.915000", "181953.918000", "181953.921000", "181953.924000", "181953.927000", "181953.930000", "181953.933000", "181953.936000", "181953.939000", "181953.942000", "181953.945000", "181953.948000", "181953.951000", "181953.954000", "181953.957000", "181953.960000", "181953.963000", "182033.886000", "182033.889000", "182033.946000", "182033.949000", "182033.952000", "182033.955000", "182033.958000", "182033.961000", "182033.964000", "182033.967000", "182033.970000", "182033.973000", "182033.976000", "182033.979000", "182033.982000", "182033.985000", "182034.000000", "182034.003000", "182034.006000", "182034.009000", "182034.012000", "182034.015000", "182034.017000", "182034.020000", "182034.023000", "182034.026000", "182034.029000", "182113.886000", "182113.889000", "182113.892000", "182113.895000", "182113.898000", "182113.901000", "182113.904000", "182113.907000", "182113.910000", "182113.913000", "182113.916000", "182113.919000", "182113.922000", "182113.925000", "182113.928000", "182113.930000", "182113.933000", "182113.936000", "182113.939000", "182113.942000", "182113.945000", "182113.948000", "182113.951000", "182113.954000", "182113.957000", "182113.960000", "182113.963000", "182153.886000", "182153.889000", "182153.892000", "182153.895000", "182153.898000", "182153.901000", "182153.904000", "182153.907000", "182153.910000", "182153.912000", "182153.915000", "182153.918000", "182153.921000", "182153.924000", "182153.927000", "182153.930000", "182153.933000", "182153.936000", "182153.939000", "182153.942000", "182153.945000", "182153.948000", "182153.951000", "182153.954000", "182153.957000", "182153.960000", "182153.962000", "182233.886000", "182233.889000", "182233.899000", "182233.902000", "182233.905000", "182233.908000", "182233.911000", "182233.914000", "182233.917000", "182233.920000", "182233.923000", "182233.926000", "182233.929000", "182233.932000", "182233.935000", "182233.938000", "182233.941000", "182233.944000", "182233.947000", "182233.950000", "182233.953000", "182233.956000", "182233.958000", "182233.961000", "182233.965000", "182233.968000", "182313.886000", "182313.889000", "182313.892000", "182313.895000", "182313.898000", "182313.901000", "182313.904000", "182313.907000", "182313.910000", "182313.913000", "182313.916000", "182313.919000", "182313.922000", "182313.925000", "182313.928000", "182313.931000", "182313.934000", "182313.937000", "182313.940000", "182313.942000", "182313.945000", "182313.948000", "182313.951000", "182313.954000", "182313.957000", "182313.960000", "182313.963000", "182353.886000", "182353.889000", "182353.892000", "182353.895000", "182353.898000", "182353.901000", "182353.904000", "182353.907000", "182353.910000", "182353.913000", "182353.916000", "182353.919000", "182353.922000", "182353.925000", "182353.928000", "182353.931000", "182353.934000", "182353.937000", "182353.939000", "182353.942000", "182353.945000", "182353.948000", "182353.951000", "182353.954000", "182353.957000", "182353.960000", "182353.963000", "182356.013000", "182356.016000"],
