{
  "AcquisitionMatrixPE": 104,
  "AcquisitionNumber": 1,
  "AcquisitionTime": "19:52:39.890000",
  "BandwidthPerPixelPhaseEncode": 17.17,
  "BaseResolution": 104,
  "BodyPartExamined": "BRAIN",
  "CoilString": "HC1-7;NC1_2",
  "ConsistencyInfo": "N4_VE11C_LATEST_20160120",
  "ConversionSoftware": "dcm2niix",
  "ConversionSoftwareVersion": "v1.0.20190720  (JP2:OpenJPEG) GCC7.3.0",
  "DerivedVendorReportedEchoSpacing": 0.000560011,
  "DeviceSerialNumber": "167006",
  "DwellTime": 2.1e-06,
  "EchoTime": 0.037,
  "EchoTrainLength": 104,
  "EffectiveEchoSpacing": 0.000560011,
  "FlipAngle": 52,
  "ImageComments": "Unaliased_MB4_PE3_LB",
  "ImageOrientationPatientDICOM": [0.998697, -0.0490175, -0.0142232, 0.0381915, 0.902565, -0.428857],
  "ImageType": [
    "ORIGINAL",
    "PRIMARY",
    "M",
    "MB",
    "ND",
    "MOSAIC"
],
  "ImagingFrequency": 123.259,
  "InPlanePhaseEncodingDirectionDICOM": "COL",
  "InstitutionAddress": "Chemin_Queen-Mary_4565_Montreal_District_CA_H3W_1W5",
  "InstitutionName": "IUGM",
  "InstitutionalDepartmentName": "Department",
  "MRAcquisitionType": "2D",
  "MagneticFieldStrength": 3,
  "Manufacturer": "Siemens",
  "ManufacturersModelName": "Prisma_fit",
  "Modality": "MR",
  "MultibandAccelerationFactor": 4,
  "PartialFourier": 1,
  "PatientPosition": "HFS",
  "PercentPhaseFOV": 100,
  "PhaseEncodingDirection": "j",
  "PhaseEncodingSteps": 104,
  "PhaseResolution": 1,
  "PixelBandwidth": 2290,
  "ProcedureStepDescription": "video_friends",
  "ProtocolName": "func_task-s01e07b",
  "PulseSequenceDetails": "%CustomerSeq%_cmrr_mbep2d_bold",
  "ReceiveCoilActiveElements": "HC1-7;NC1,2",
  "ReceiveCoilName": "HeadNeck_64",
  "ReconMatrixPE": 104,
  "RepetitionTime": 1.49,
  "SAR": 0.0370699,
  "ScanOptions": "FS",
  "ScanningSequence": "EP",
  "SequenceName": "epfid2d1_104",
  "SequenceVariant": "SK_SS",
  "SeriesDescription": "func_task-s01e07b",
  "SeriesNumber": 30,
  "ShimSetting": [618, -7277, -8847, 368, 38, -442, 7, 28],
  "SliceThickness": 2,
  "SliceTiming": [0, 0.785, 0.0975, 0.8825, 0.1975, 0.98, 0.295, 1.0775, 0.3925, 1.1775, 0.49, 1.275, 0.5875, 1.3725, 0.6875, 0, 0.785, 0.0975, 0.8825, 0.1975, 0.98, 0.295, 1.0775, 0.3925, 1.1775, 0.49, 1.275, 0.5875, 1.3725, 0.6875, 0, 0.785, 0.0975, 0.8825, 0.1975, 0.98, 0.295, 1.0775, 0.3925, 1.1775, 0.49, 1.275, 0.5875, 1.3725, 0.6875, 0, 0.785, 0.0975, 0.8825, 0.1975, 0.98, 0.295, 1.0775, 0.3925, 1.1775, 0.49, 1.275, 0.5875, 1.3725, 0.6875],
  "SoftwareVersions": "syngo_MR_E11",
  "SpacingBetweenSlices": 2,
  "StationName": "MRC35049",
  "TaskName": "friends",
  "TotalReadoutTime": 0.0576811,
  "TxRefAmp": 238.151,
  "WipMemBlock": "a4a6487f-28a4-407f-b9d3-cd711c16a909||Sequence: R016 ve11c/master r/e634e98; Dec 19 2017 11:00:25 by eja",
  "dcmmeta_affine": [
    [-1.997393250465393, 0.07638294994831085, -0.06771769374608994, 97.6009292602539],
    [0.09803490340709686, 1.8051294088363647, -0.855509877204895, -70.48368835449219],
    [-0.028446417301893234, 0.8577141761779785, 1.806520700454712, -73.44615936279297],
    [0.0, 0.0, 0.0, 1.0]
],
  "dcmmeta_reorient_transform": [
    [0.0, -1.0, 0.0, 103.0],
    [1.0, 0.0, 0.0, 0.0],
    [0.0, 0.0, 1.0, 0.0],
    [0.0, 0.0, 0.0, 1.0]
],
  "dcmmeta_shape": [104, 104, 60, 493],
  "dcmmeta_slice_dim": 2,
  "dcmmeta_version": 0.6,
  "global": {
    "const": {
      "AcquisitionMatrix": [104, 0, 0, 104],
      "AngioFlag": "N",
      "BitsAllocated": 16,
      "BitsStored": 16,
      "BodyPartExamined": "BRAIN",
      "Columns": 832,
      "EchoNumbers": 1,
      "EchoTime": 37.0,
      "EchoTrainLength": 104,
      "FlipAngle": 52.0,
      "HighBit": 15,
      "ImageOrientationPatient": [0.99869664552978, -0.0490174515469, -0.0142232081969, 0.03819147368826, 0.90256467961455, -0.4288570979357],
      "ImagePositionPatient": [-860.32292374196, -736.82701587445, 337.46086890155],
      "ImageType": [
        "ORIGINAL",
        "PRIMARY",
        "M",
        "MB",
        "ND",
        "MOSAIC"
],
      "ImagedNucleus": "1H",
      "ImagingFrequency": 123.259182,
      "InPlanePhaseEncodingDirection": "COL",
      "MRAcquisitionType": "2D",
      "MagneticFieldStrength": 3.0,
      "Manufacturer": "SIEMENS",
      "ManufacturerModelName": "Prisma_fit",
      "Modality": "MR",
      "NumberOfAverages": 1.0,
      "NumberOfPhaseEncodingSteps": 104,
      "PercentPhaseFieldOfView": 100.0,
      "PercentSampling": 100.0,
      "PerformedProcedureStepStartTime": "173550.574000",
      "PhotometricInterpretation": "MONOCHROME2",
      "PixelBandwidth": 2290.0,
      "PixelRepresentation": 0,
      "PixelSpacing": [2.0, 2.0],
      "ProtocolName": "func_task-s01e07b",
      "RepetitionTime": 1490.0,
      "Rows": 832,
      "SAR": 0.03706991430633,
      "SamplesPerPixel": 1,
      "ScanOptions": "FS",
      "ScanningSequence": "EP",
      "SequenceName": "epfid2d1_104",
      "SequenceVariant": [
        "SK",
        "SS"
],
      "SeriesDescription": "func_task-s01e07b",
      "SeriesNumber": 30,
      "SeriesTime": "195354.026000",
      "SliceLocation": -39.495910246341,
      "SliceThickness": 2.0,
      "SmallestImagePixelValue": 0,
      "SoftwareVersions": "syngo MR E11",
      "SpacingBetweenSlices": 2.0000000145675,
      "SpecificCharacterSet": "ISO_IR 100",
      "StudyID": "1",
      "StudyTime": "173550.501000",
      "TransmitCoilName": "Body",
      "VariableFlipAngleFlag": "N",
      "WindowCenterWidthExplanation": "Algo1",
      "dBdt": 0.0},
    "slices": {}
  },
  "time": {
    "samples": {
      "AcquisitionNumber": [1, 2, 3, 4, 5, 6, 7, 8, 9, 10, 11, 12, 13, 14, 15, 16, 17, 18, 19, 20, 21, 22, 23, 24, 25, 26, 27, 28, 29, 30, 31, 32, 33, 34, 35, 36, 37, 38, 39, 40, 41, 42, 43, 44, 45, 46, 47, 48, 49, 50, 51, 52, 53, 54, 55, 56, 57, 58, 59, 60, 61, 62, 63, 64, 65, 66, 67, 68, 69, 70, 71, 72, 73, 74, 75, 76, 77, 78, 79, 80, 81, 82, 83, 84, 85, 86, 87, 88, 89, 90, 91, 92, 93, 94, 95, 96, 97, 98, 99, 100, 101, 102, 103, 104, 105, 106, 107, 108, 109, 110, 111, 112, 113, 114, 115, 116, 117, 118, 119, 120, 121, 122, 123, 124, 125, 126, 127, 128, 129, 130, 131, 132, 133, 134, 135, 136, 137, 138, 139, 140, 141, 142, 143, 144, 145, 146, 147, 148, 149, 150, 151, 152, 153, 154, 155, 156, 157, 158, 159, 160, 161, 162, 163, 164, 165, 166, 167, 168, 169, 170, 171, 172, 173, 174, 175, 176, 177, 178, 179, 180, 181, 182, 183, 184, 185, 186, 187, 188, 189, 190, 191, 192, 193, 194, 195, 196, 197, 198, 199, 200, 201, 202, 203, 204, 205, 206, 207, 208, 209, 210, 211, 212, 213, 214, 215, 216, 217, 218, 219, 220, 221, 222, 223, 224, 225, 226, 227, 228, 229, 230, 231, 232, 233, 234, 235, 236, 237, 238, 239, 240, 241, 242, 243, 244, 245, 246, 247, 248, 249, 250, 251, 252, 253, 254, 255, 256, 257, 258, 259, 260, 261, 262, 263, 264, 265, 266, 267, 268, 269, 270, 271, 272, 273, 274, 275, 276, 277, 278, 279, 280, 281, 282, 283, 284, 285, 286, 287, 288, 289, 290, 291, 292, 293, 294, 295, 296, 297, 298, 299, 300, 301, 302, 303, 304, 305, 306, 307, 308, 309, 310, 311, 312, 313, 314, 315, 316, 317, 318, 319, 320, 321, 322, 323, 324, 325, 326, 327, 328, 329, 330, 331, 332, 333, 334, 335, 336, 337, 338, 339, 340, 341, 342, 343, 344, 345, 346, 347, 348, 349, 350, 351, 352, 353, 354, 355, 356, 357, 358, 359, 360, 361, 362, 363, 364, 365, 366, 367, 368, 369, 370, 371, 372, 373, 374, 375, 376, 377, 378, 379, 380, 381, 382, 383, 384, 385, 386, 387, 388, 389, 390, 391, 392, 393, 394, 395, 396, 397, 398, 399, 400, 401, 402, 403, 404, 405, 406, 407, 408, 409, 410, 411, 412, 413, 414, 415, 416, 417, 418, 419, 420, 421, 422, 423, 424, 425, 426, 427, 428, 429, 430, 431, 432, 433, 434, 435, 436, 437, 438, 439, 440, 441, 442, 443, 444, 445, 446, 447, 448, 449, 450, 451, 452, 453, 454, 455, 456, 457, 458, 459, 460, 461, 462, 463, 464, 465, 466, 467, 468, 469, 470, 471, 472, 473, 474, 475, 476, 477, 478, 479, 480, 481, 482, 483, 484, 485, 486, 487, 488, 489, 490, 491, 492, 493],
      "AcquisitionTime": ["195239.890000", "195241.380000", "195242.870000", "195244.360000", "195245.850000", "195247.340000", "195248.830000", "195250.320000", "195251.810000", "195253.300000", "195254.790000", "195256.280000", "195257.770000", "195259.260000", "195300.750000", "195302.240000", "195303.730000", "195305.220000", "195306.710000", "195308.200000", "195309.690000", "195311.180000", "195312.670000", "195314.160000", "195315.650000", "195317.140000", "195318.630000", "195320.120000", "195321.610000", "195323.100000", "195324.590000", "195326.080000", "195327.570000", "195329.060000", "195330.550000", "195332.040000", "195333.530000", "195335.020000", "195336.510000", "195338.000000", "195339.490000", "195340.980000", "195342.470000", "195343.960000", "195345.450000", "195346.940000", "195348.430000", "195349.920000", "195351.410000", "195352.900000", "195354.390000", "195355.880000", "195357.370000", "195358.860000", "195400.350000", "195401.840000", "195403.330000", "195404.820000", "195406.310000", "195407.800000", "195409.290000", "195410.780000", "195412.270000", "195413.760000", "195415.250000", "195416.740000", "195418.230000", "195419.720000", "195421.210000", "195422.700000", "195424.190000", "195425.680000", "195427.170000", "195428.660000", "195430.150000", "195431.640000", "195433.130000", "195434.620000", "195436.110000", "195437.600000", "195439.090000", "195440.580000", "195442.070000", "195443.560000", "195445.050000", "195446.540000", "195448.030000", "195449.520000", "195451.010000", "195452.500000", "195453.990000", "195455.480000", "195456.970000", "195458.460000", "195459.950000", "195501.440000", "195502.930000", "195504.420000", "195505.910000", "195507.400000", "195508.890000", "195510.380000", "195511.870000", "195513.360000", "195514.850000", "195516.340000", "195517.830000", "195519.320000", "195520.810000", "195522.300000", "195523.790000", "195525.280000", "195526.770000", "195528.260000", "195529.750000", "195531.240000", "195532.730000", "195534.220000", "195535.710000", "195537.200000", "195538.690000", "195540.180000", "195541.670000", "195543.160000", "195544.650000", "195546.140000", "195547.630000", "195549.120000", "195550.610000", "195552.100000", "195553.590000", "195555.080000", "195556.570000", "195558.060000", "195559.550000", "195601.040000", "195602.530000", "195604.020000", "195605.510000", "195607.000000", "195608.490000", "195609.980000", "195611.470000", "195612.960000", "195614.450000", "195615.940000", "195617.430000", "195618.920000", "195620.410000", "195621.900000", "195623.390000", "195624.880000", "195626.370000", "195627.860000", "195629.350000", "195630.840000", "195632.330000", "195633.820000", "195635.310000", "195636.800000", "195638.290000", "195639.780000", "195641.270000", "195642.760000", "195644.250000", "195645.740000", "195647.230000", "195648.720000", "195650.210000", "195651.700000", "195653.190000", "195654.680000", "195656.170000", "195657.660000", "195659.150000", "195700.640000", "195702.130000", "195703.620000", "195705.110000", "195706.600000", "195708.090000", "195709.580000", "195711.070000", "195712.560000", "195714.050000", "195715.540000", "195717.030000", "195718.520000", "195720.010000", "195721.500000", "195722.990000", "195724.480000", "195725.970000", "195727.460000", "195728.950000", "195730.440000", "195731.930000", "195733.420000", "195734.910000", "195736.400000", "195737.890000", "195739.380000", "195740.870000", "195742.360000", "195743.850000", "195745.340000", "195746.830000", "195748.320000", "195749.810000", "195751.300000", "195752.790000", "195754.280000", "195755.770000", "195757.260000", "195758.750000", "195800.240000", "195801.730000", "195803.220000", "195804.710000", "195806.200000", "195807.690000", "195809.180000", "195810.670000", "195812.160000", "195813.650000", "195815.140000", "195816.630000", "195818.120000", "195819.610000", "195821.100000", "195822.590000", "195824.080000", "195825.570000", "195827.060000", "195828.550000", "195830.040000", "195831.530000", "195833.020000", "195834.510000", "195836.000000", "195837.490000", "195838.980000", "195840.470000", "195841.960000", "195843.450000", "195844.940000", "195846.430000", "195847.920000", "195849.410000", "195850.900000", "195852.390000", "195853.880000", "195855.370000", "195856.860000", "195858.350000", "195859.840000", "195901.330000", "195902.820000", "195904.310000", "195905.800000", "195907.290000", "195908.780000", "195910.270000", "195911.760000", "195913.250000", "195914.740000", "195916.230000", "195917.720000", "195919.210000", "195920.700000", "195922.190000", "195923.680000", "195925.170000", "195926.660000", "195928.150000", "195929.640000", "195931.130000", "195932.620000", "195934.110000", "195935.600000", "195937.090000", "195938.580000", "195940.070000", "195941.560000", "195943.050000", "195944.540000", "195946.030000", "195947.520000", "195949.010000", "195950.500000", "195951.990000", "195953.480000", "195954.970000", "195956.460000", "195957.950000", "195959.440000", "200000.930000", "200002.420000", "200003.910000", "200005.400000", "200006.890000", "200008.380000", "200009.870000", "200011.360000", "200012.850000", "200014.340000", "200015.830000", "200017.320000", "200018.810000", "200020.300000", "200021.790000", "200023.280000", "200024.770000", "200026.260000", "200027.750000", "200029.240000", "200030.730000", "200032.220000", "200033.710000", "200035.200000", "200036.690000", "200038.180000", "200039.670000", "200041.160000", "200042.650000", "200044.140000", "200045.630000", "200047.120000", "200048.610000", "200050.100000", "200051.590000", "200053.080000", "200054.570000", "200056.060000", "200057.550000", "200059.040000", "200100.530000", "200102.020000", "200103.510000", "200105.000000", "200106.490000", "200107.980000", "200109.470000", "200110.960000", "200112.450000", "200113.940000", "200115.430000", "200116.920000", "200118.410000", "200119.900000", "200121.390000", "200122.880000", "200124.370000", "200125.860000", "200127.350000", "200128.840000", "200130.330000", "200131.820000", "200133.310000", "200134.800000", "200136.290000", "200137.780000", "200139.270000", "200140.760000", "200142.250000", "200143.740000", "200145.230000", "200146.720000", "200148.210000", "200149.700000", "200151.190000", "200152.680000", "200154.170000", "200155.660000", "200157.150000", "200158.640000", "200200.130000", "200201.620000", "200203.110000", "200204.600000", "200206.090000", "200207.580000", "200209.070000", "200210.560000", "200212.050000", "200213.540000", "200215.030000", "200216.520000", "200218.010000", "200219.500000", "200220.990000", "200222.480000", "200223.970000", "200225.460000", "200226.950000", "200228.440000", "200229.930000", "200231.420000", "200232.910000", "200234.400000", "200235.890000", "200237.380000", "200238.870000", "200240.360000", "200241.850000", "200243.340000", "200244.830000", "200246.320000", "200247.810000", "200249.300000", "200250.790000", "200252.280000", "200253.770000", "200255.260000", "200256.750000", "200258.240000", "200259.730000", "200301.220000", "200302.710000", "200304.200000", "200305.690000", "200307.180000", "200308.670000", "200310.160000", "200311.650000", "200313.140000", "200314.630000", "200316.120000", "200317.610000", "200319.100000", "200320.590000", "200322.080000", "200323.570000", "200325.060000", "200326.550000", "200328.040000", "200329.530000", "200331.020000", "200332.510000", "200334.000000", "200335.490000", "200336.980000", "200338.470000", "200339.960000", "200341.450000", "200342.940000", "200344.430000", "200345.920000", "200347.410000", "200348.900000", "200350.390000", "200351.880000", "200353.370000", "200354.860000", "200356.350000", "200357.840000", "200359.330000", "200400.820000", "200402.310000", "200403.800000", "200405.290000", "200406.780000", "200408.270000", "200409.760000", "200411.250000", "200412.740000", "200414.230000", "200415.720000", "200417.210000", "200418.700000", "200420.190000", "200421.680000", "200423.170000", "200424.660000", "200426.150000", "200427.640000", "200429.130000", "200430.620000", "200432.110000", "200433.600000", "200435.090000", "200436.580000", "200438.070000", "200439.560000", "200441.050000", "200442.540000", "200444.030000", "200445.520000", "200447.010000", "200448.500000", "200449.990000", "200451.480000", "200452.970000"],
      "ContentTime": ["195354.029000", "195354.038000", "195354.041000", "195354.043000", "195354.046000", "195354.049000", "195354.052000", "195354.055000", "195354.058000", "195354.061000", "195354.064000", "195354.067000", "195354.070000", "195354.073000", "195354.076000", "195354.081000", "195354.084000", "195354.087000", "195354.090000", "195354.092000", "195354.095000", "195413.996000", "195414.000000", "195414.003000", "195414.006000", "195414.009000", "195414.012000", "195414.015000", "195414.018000", "195414.021000", "195414.024000", "195414.027000", "195414.030000", "195414.033000", "195414.036000", "195414.039000", "195414.042000", "195414.044000", "195414.047000", "195414.050000", "195414.053000", "195433.995000", "195433.998000", "195434.001000", "195434.004000", "195434.007000", "195434.010000", "195434.013000", "195434.016000", "195434.019000", "195434.022000", "195434.025000", "195434.028000", "195434.031000", "195434.034000", "195434.037000", "195434.040000", "195434.043000", "195434.046000", "195434.049000", "195434.052000", "195453.995000", "195453.998000", "195454.002000", "195454.005000", "195454.008000", "195454.011000", "195454.014000", "195454.017000", "195454.020000", "195454.023000", "195454.027000", "195454.030000", "195454.033000", "195454.036000", "195454.039000", "195454.042000", "195454.045000", "195454.048000", "195454.051000", "195454.054000", "195513.995000", "195513.998000", "195514.003000", "195514.007000", "195514.010000", "195514.013000", "195514.016000", "195514.019000", "195514.022000", "195514.025000", "195514.028000", "195514.031000", "195514.033000", "195514.036000", "195514.039000", "195514.042000", "195514.045000", "195514.048000", "195514.051000", "195514.054000", "195553.995000", "195553.998000", "195554.002000", "195554.005000", "195554.008000", "195554.011000", "195554.014000", "195554.017000", "195554.020000", "195554.023000", "195554.026000", "195554.029000", "195554.034000", "195554.037000", "195554.040000", "195554.043000", "195554.046000", "195554.049000", "195554.052000", "195554.055000", "195554.058000", "195554.061000", "195554.064000", "195554.067000", "195554.070000", "195554.073000", "195554.076000", "195554.079000", "195554.099000", "195633.996000", "195634.000000", "195634.004000", "195634.007000", "195634.010000", "195634.013000", "195634.016000", "195634.019000", "195634.022000", "195634.025000", "195634.028000", "195634.031000", "195634.034000", "195634.037000", "195634.040000", "195634.043000", "195634.046000", "195634.049000", "195634.052000", "195634.055000", "195634.058000", "195634.061000", "195634.064000", "195634.067000", "195634.070000", "195634.073000", "195634.076000", "195713.995000", "195713.998000", "195714.002000", "195714.005000", "195714.008000", "195714.011000", "195714.014000", "195714.017000", "195714.020000", "195714.023000", "195714.026000", "195714.029000", "195714.032000", "195714.035000", "195714.038000", "195714.041000", "195714.044000", "195714.047000", "195714.050000", "195714.053000", "195714.056000", "195714.058000", "195714.061000", "195714.064000", "195714.067000", "195714.070000", "195753.995000", "195753.998000", "195754.002000", "195754.005000", "195754.008000", "195754.011000", "195754.014000", "195754.017000", "195754.020000", "195754.023000", "195754.025000", "195754.028000", "195754.031000", "195754.034000", "195754.037000", "195754.040000", "195754.043000", "195754.046000", "195754.049000", "195754.052000", "195754.055000", "195754.058000", "195754.061000", "195754.064000", "195754.067000", "195754.070000", "195754.073000", "195833.995000", "195833.998000", "195834.002000", "195834.005000", "195834.008000", "195834.011000", "195834.014000", "195834.017000", "195834.020000", "195834.023000", "195834.026000", "195834.029000", "195834.032000", "195834.035000", "195834.038000", "195834.041000", "195834.044000", "195834.047000", "195834.049000", "195834.052000", "195834.055000", "195834.058000", "195834.061000", "195834.064000", "195834.067000", "195834.070000", "195834.073000", "195913.995000", "195913.998000", "195914.001000", "195914.004000", "195914.007000", "195914.010000", "195914.013000", "195914.016000", "195914.019000", "195914.022000", "195914.026000", "195914.029000", "195914.032000", "195914.034000", "195914.037000", "195914.040000", "195914.043000", "195914.046000", "195914.049000", "195914.052000", "195914.055000", "195914.058000", "195914.061000", "195914.064000", "195914.067000", "195914.070000", "195914.073000", "195953.995000", "195953.998000", "195954.002000", "195954.005000", "195954.008000", "195954.011000", "195954.014000", "195954.017000", "195954.020000", "195954.023000", "195954.026000", "195954.029000", "195954.032000", "195954.035000", "195954.038000", "195954.041000", "195954.044000", "195954.047000", "195954.050000", "195954.053000", "195954.056000", "195954.059000", "195954.062000", "195954.074000", "195954.077000", "195954.080000", "195954.083000", "200033.995000", "200033.998000", "200034.002000", "200034.005000", "200034.008000", "200034.011000", "200034.014000", "200034.017000", "200034.020000", "200034.023000", "200034.026000", "200034.029000", "200034.032000", "200034.035000", "200034.038000", "200034.041000", "200034.044000", "200034.047000", "200034.050000", "200034.053000", "200034.055000", "200034.059000", "200034.062000", "200034.064000", "200034.067000", "200034.070000", "200034.073000", "200113.996000", "200114.000000", "200114.003000", "200114.006000", "200114.009000", "200114.012000", "200114.015000", "200114.018000", "200114.021000", "200114.024000", "200114.027000", "200114.030000", "200114.033000", "200114.036000", "200114.039000", "200114.042000", "200114.052000", "200114.055000", "200114.058000", "200114.061000", "200114.064000", "200114.067000", "200114.070000", "200114.073000", "200114.076000", "200114.079000", "200153.995000", "200153.998000", "200154.001000", "200154.004000", "200154.007000", "200154.010000", "200154.013000", "200154.016000", "200154.019000", "200154.022000", "200154.025000", "200154.028000", "200154.031000", "200154.034000", "200154.037000", "200154.040000", "200154.043000", "200154.046000", "200154.049000", "200154.052000", "200154.055000", "200154.058000", "200154.060000", "200154.063000", "200154.066000", "200154.069000", "200154.072000", "200233.995000", "200233.998000", "200234.002000", "200234.005000", "200234.008000", "200234.011000", "200234.014000", "200234.017000", "200234.020000", "200234.023000", "200234.026000", "200234.029000", "200234.032000", "200234.035000", "200234.038000", "200234.041000", "200234.044000", "200234.047000", "200234.050000", "200234.053000", "200234.056000", "200234.059000", "200234.062000", "200234.065000", "200234.068000", "200234.071000", "200234.073000", "200313.995000", "200313.998000", "200314.002000", "200314.005000", "200314.008000", "200314.011000", "200314.014000", "200314.017000", "200314.020000", "200314.023000", "200314.026000", "200314.029000", "200314.032000", "200314.035000", "200314.038000", "200314.041000", "200314.044000", "200314.047000", "200314.050000", "200314.052000", "200314.056000", "200314.058000", "200314.061000", "200314.064000", "200314.067000", "200314.070000", "200314.073000", "200353.995000", "200353.998000", "200354.001000", "200354.004000", "200354.007000", "200354.010000", "200354.013000", "200354.016000", "200354.019000", "200354.022000", "200354.025000", "200354.028000", "200354.031000", "200354.034000", "200354.037000", "200354.040000", "200354.043000", "200354.046000", "200354.049000", "200354.066000", "200354.069000", "200354.072000", "200354.075000", "200354.078000", "200354.081000", "200354.084000", "200354.087000", "200433.995000", "200433.999000", "200434.002000", "200434.005000", "200434.008000", "200434.011000", "200434.014000", "200434.017000", "200434.021000", "200434.024000", "200434.027000", "200434.030000", "200434.033000", "200434.036000", "200434.039000", "200434.042000", "200434.045000", "200434.049000", "200434.052000", "200434.056000", "200434.059000", "200434.062000", "200434.066000", "200434.069000", "200434.073000", "200434.076000", "200434.079000", "200454.672000", "200454.675000", "200454.678000", "200454.681000", "200454.684000", "200454.687000", "200454.690000", "200454.693000", "200454.697000", "200454.700000", "200454.703000", "200454.706000", "200454.709000", "200454.712000"],
