{
  "AcquisitionMatrixPE": 104,
  "AcquisitionNumber": 1,
  "AcquisitionTime": "18:37:1.380000",
  "BandwidthPerPixelPhaseEncode": 17.17,
  "BaseResolution": 104,
  "BodyPartExamined": "BRAIN",
  "CoilString": "HC1-7;NC1_2",
  "ConsistencyInfo": "N4_VE11C_LATEST_20160120",
  "ConversionSoftware": "dcm2niix",
  "ConversionSoftwareVersion": "v1.0.20190720  (JP2:OpenJPEG) GCC7.3.0",
  "DerivedVendorReportedEchoSpacing": 0.000560011,
  "DeviceSerialNumber": "167006",
  "DwellTime": 2.1e-06,
  "EchoTime": 0.037,
  "EchoTrainLength": 104,
  "EffectiveEchoSpacing": 0.000560011,
  "FlipAngle": 52,
  "ImageComments": "Unaliased_MB4_PE3_LB",
  "ImageOrientationPatientDICOM": [0.99828, -0.0491619, -0.031934, 0.0318954, 0.912533, -0.407758],
  "ImageType": [
    "ORIGINAL",
    "PRIMARY",
    "M",
    "MB",
    "ND",
    "MOSAIC"
],
  "ImagingFrequency": 123.259,
  "InPlanePhaseEncodingDirectionDICOM": "COL",
  "InstitutionAddress": "Chemin_Queen-Mary_4565_Montreal_District_CA_H3W_1W5",
  "InstitutionName": "IUGM",
  "InstitutionalDepartmentName": "Department",
  "MRAcquisitionType": "2D",
  "MagneticFieldStrength": 3,
  "Manufacturer": "Siemens",
  "ManufacturersModelName": "Prisma_fit",
  "Modality": "MR",
  "MultibandAccelerationFactor": 4,
  "PartialFourier": 1,
  "PatientPosition": "HFS",
  "PercentPhaseFOV": 100,
  "PhaseEncodingDirection": "j",
  "PhaseEncodingSteps": 104,
  "PhaseResolution": 1,
  "PixelBandwidth": 2290,
  "ProcedureStepDescription": "video_friends",
  "ProtocolName": "func_task-s01e05b",
  "PulseSequenceDetails": "%CustomerSeq%_cmrr_mbep2d_bold",
  "ReceiveCoilActiveElements": "HC1-7;NC1,2",
  "ReceiveCoilName": "HeadNeck_64",
  "ReconMatrixPE": 104,
  "RepetitionTime": 1.49,
  "SAR": 0.0361394,
  "ScanOptions": "FS",
  "ScanningSequence": "EP",
  "SequenceName": "epfid2d1_104",
  "SequenceVariant": "SK_SS",
  "SeriesDescription": "func_task-s01e05b",
  "SeriesNumber": 15,
  "ShimSetting": [615, -7259, -8848, 411, 50, -410, -8, 44],
  "SliceThickness": 2,
  "SliceTiming": [0, 0.7825, 0.0975, 0.8825, 0.195, 0.98, 0.2925, 1.0775, 0.3925, 1.175, 0.49, 1.2725, 0.5875, 1.37, 0.685, 0, 0.7825, 0.0975, 0.8825, 0.195, 0.98, 0.2925, 1.0775, 0.3925, 1.175, 0.49, 1.2725, 0.5875, 1.37, 0.685, 0, 0.7825, 0.0975, 0.8825, 0.195, 0.98, 0.2925, 1.0775, 0.3925, 1.175, 0.49, 1.2725, 0.5875, 1.37, 0.685, 0, 0.7825, 0.0975, 0.8825, 0.195, 0.98, 0.2925, 1.0775, 0.3925, 1.175, 0.49, 1.2725, 0.5875, 1.37, 0.685],
  "SoftwareVersions": "syngo_MR_E11",
  "SpacingBetweenSlices": 2,
  "StationName": "MRC35049",
  "TaskName": "friends",
  "TotalReadoutTime": 0.0576811,
  "TxRefAmp": 237.322,
  "WipMemBlock": "6723a400-04a9-4403-833f-b41928479db4||Sequence: R016 ve11c/master r/e634e98; Dec 19 2017 11:00:25 by eja",
  "dcmmeta_affine": [
    [-1.9965603351593018, 0.06379079073667526, -0.0983738899230957, 98.36591339111328],
    [0.09832380712032318, 1.8250659704208374, -0.8120754361152649, -72.7469253540039],
    [-0.063867948949337, 0.8155150413513184, 1.8250633478164673, -72.46204376220703],
    [0.0, 0.0, 0.0, 1.0]
],
  "dcmmeta_reorient_transform": [
    [0.0, -1.0, 0.0, 103.0],
    [1.0, 0.0, 0.0, 0.0],
    [0.0, 0.0, 1.0, 0.0],
    [0.0, 0.0, 0.0, 1.0]
],
  "dcmmeta_shape": [104, 104, 60, 488],
  "dcmmeta_slice_dim": 2,
  "dcmmeta_version": 0.6,
  "global": {
    "const": {
      "AcquisitionMatrix": [104, 0, 0, 104],
      "AngioFlag": "N",
      "BitsAllocated": 16,
      "BitsStored": 16,
      "BodyPartExamined": "BRAIN",
      "Columns": 832,
      "EchoNumbers": 1,
      "EchoTime": 37.0,
      "EchoTrainLength": 104,
      "FlipAngle": 52.0,
      "HighBit": 15,
      "ImageOrientationPatient": [0.99828018540691, -0.0491619023461, -0.0319339753502, 0.03189539369212, 0.91253300317642, -0.40775752841],
      "ImagePositionPatient": [-854.90418705026, -743.76903270055, 331.63142515321],
      "ImageType": [
        "ORIGINAL",
        "PRIMARY",
        "M",
        "MB",
        "ND",
        "MOSAIC"
],
      "ImagedNucleus": "1H",
      "ImagingFrequency": 123.259188,
      "InPlanePhaseEncodingDirection": "COL",
      "MRAcquisitionType": "2D",
      "MagneticFieldStrength": 3.0,
      "Manufacturer": "SIEMENS",
      "ManufacturerModelName": "Prisma_fit",
      "Modality": "MR",
      "NumberOfAverages": 1.0,
      "NumberOfPhaseEncodingSteps": 104,
      "PercentPhaseFieldOfView": 100.0,
      "PercentSampling": 100.0,
      "PerformedProcedureStepStartTime": "173550.574000",
      "PhotometricInterpretation": "MONOCHROME2",
      "PixelBandwidth": 2290.0,
      "PixelRepresentation": 0,
      "PixelSpacing": [2.0, 2.0],
      "ProtocolName": "func_task-s01e05b",
      "RepetitionTime": 1490.0,
      "Rows": 832,
      "SAR": 0.03613944817421,
      "SamplesPerPixel": 1,
      "ScanOptions": "FS",
      "ScanningSequence": "EP",
      "SequenceName": "epfid2d1_104",
      "SequenceVariant": [
        "SK",
        "SS"
],
      "SeriesDescription": "func_task-s01e05b",
      "SeriesNumber": 15,
      "SeriesTime": "183831.240000",
      "SliceLocation": -41.424228035963,
      "SliceThickness": 2.0,
      "SmallestImagePixelValue": 0,
      "SoftwareVersions": "syngo MR E11",
      "SpacingBetweenSlices": 2.0000000449625,
      "SpecificCharacterSet": "ISO_IR 100",
      "StudyID": "1",
      "StudyTime": "173550.501000",
      "TransmitCoilName": "Body",
      "VariableFlipAngleFlag": "N",
      "WindowCenterWidthExplanation": "Algo1",
      "dBdt": 0.0},
    "slices": {}
  },
  "time": {
    "samples": {
      "AcquisitionNumber": [1, 2, 3, 4, 5, 6, 7, 8, 9, 10, 11, 12, 13, 14, 15, 16, 17, 18, 19, 20, 21, 22, 23, 24, 25, 26, 27, 28, 29, 30, 31, 32, 33, 34, 35, 36, 37, 38, 39, 40, 41, 42, 43, 44, 45, 46, 47, 48, 49, 50, 51, 52, 53, 54, 55, 56, 57, 58, 59, 60, 61, 62, 63, 64, 65, 66, 67, 68, 69, 70, 71, 72, 73, 74, 75, 76, 77, 78, 79, 80, 81, 82, 83, 84, 85, 86, 87, 88, 89, 90, 91, 92, 93, 94, 95, 96, 97, 98, 99, 100, 101, 102, 103, 104, 105, 106, 107, 108, 109, 110, 111, 112, 113, 114, 115, 116, 117, 118, 119, 120, 121, 122, 123, 124, 125, 126, 127, 128, 129, 130, 131, 132, 133, 134, 135, 136, 137, 138, 139, 140, 141, 142, 143, 144, 145, 146, 147, 148, 149, 150, 151, 152, 153, 154, 155, 156, 157, 158, 159, 160, 161, 162, 163, 164, 165, 166, 167, 168, 169, 170, 171, 172, 173, 174, 175, 176, 177, 178, 179, 180, 181, 182, 183, 184, 185, 186, 187, 188, 189, 190, 191, 192, 193, 194, 195, 196, 197, 198, 199, 200, 201, 202, 203, 204, 205, 206, 207, 208, 209, 210, 211, 212, 213, 214, 215, 216, 217, 218, 219, 220, 221, 222, 223, 224, 225, 226, 227, 228, 229, 230, 231, 232, 233, 234, 235, 236, 237, 238, 239, 240, 241, 242, 243, 244, 245, 246, 247, 248, 249, 250, 251, 252, 253, 254, 255, 256, 257, 258, 259, 260, 261, 262, 263, 264, 265, 266, 267, 268, 269, 270, 271, 272, 273, 274, 275, 276, 277, 278, 279, 280, 281, 282, 283, 284, 285, 286, 287, 288, 289, 290, 291, 292, 293, 294, 295, 296, 297, 298, 299, 300, 301, 302, 303, 304, 305, 306, 307, 308, 309, 310, 311, 312, 313, 314, 315, 316, 317, 318, 319, 320, 321, 322, 323, 324, 325, 326, 327, 328, 329, 330, 331, 332, 333, 334, 335, 336, 337, 338, 339, 340, 341, 342, 343, 344, 345, 346, 347, 348, 349, 350, 351, 352, 353, 354, 355, 356, 357, 358, 359, 360, 361, 362, 363, 364, 365, 366, 367, 368, 369, 370, 371, 372, 373, 374, 375, 376, 377, 378, 379, 380, 381, 382, 383, 384, 385, 386, 387, 388, 389, 390, 391, 392, 393, 394, 395, 396, 397, 398, 399, 400, 401, 402, 403, 404, 405, 406, 407, 408, 409, 410, 411, 412, 413, 414, 415, 416, 417, 418, 419, 420, 421, 422, 423, 424, 425, 426, 427, 428, 429, 430, 431, 432, 433, 434, 435, 436, 437, 438, 439, 440, 441, 442, 443, 444, 445, 446, 447, 448, 449, 450, 451, 452, 453, 454, 455, 456, 457, 458, 459, 460, 461, 462, 463, 464, 465, 466, 467, 468, 469, 470, 471, 472, 473, 474, 475, 476, 477, 478, 479, 480, 481, 482, 483, 484, 485, 486, 487, 488],
      "AcquisitionTime": ["183701.380000", "183702.870000", "183704.360000", "183705.850000", "183707.340000", "183708.830000", "183710.320000", "183711.810000", "183713.300000", "183714.790000", "183716.280000", "183717.770000", "183719.260000", "183720.750000", "183722.240000", "183723.730000", "183725.220000", "183726.710000", "183728.200000", "183729.690000", "183731.180000", "183732.670000", "183734.160000", "183735.650000", "183737.140000", "183738.630000", "183740.120000", "183741.610000", "183743.100000", "183744.590000", "183746.080000", "183747.570000", "183749.060000", "183750.550000", "183752.040000", "183753.530000", "183755.020000", "183756.510000", "183758.000000", "183759.490000", "183800.980000", "183802.470000", "183803.960000", "183805.450000", "183806.940000", "183808.430000", "183809.920000", "183811.410000", "183812.900000", "183814.390000", "183815.880000", "183817.370000", "183818.860000", "183820.350000", "183821.840000", "183823.330000", "183824.820000", "183826.310000", "183827.800000", "183829.290000", "183830.780000", "183832.270000", "183833.760000", "183835.250000", "183836.740000", "183838.230000", "183839.720000", "183841.210000", "183842.700000", "183844.190000", "183845.680000", "183847.170000", "183848.660000", "183850.150000", "183851.640000", "183853.130000", "183854.620000", "183856.110000", "183857.600000", "183859.090000", "183900.580000", "183902.070000", "183903.560000", "183905.050000", "183906.540000", "183908.030000", "183909.520000", "183911.010000", "183912.500000", "183913.990000", "183915.480000", "183916.970000", "183918.460000", "183919.950000", "183921.440000", "183922.930000", "183924.420000", "183925.910000", "183927.400000", "183928.890000", "183930.380000", "183931.870000", "183933.360000", "183934.850000", "183936.340000", "183937.830000", "183939.320000", "183940.810000", "183942.300000", "183943.790000", "183945.280000", "183946.770000", "183948.260000", "183949.750000", "183951.240000", "183952.730000", "183954.220000", "183955.710000", "183957.200000", "183958.690000", "184000.180000", "184001.670000", "184003.160000", "184004.650000", "184006.140000", "184007.630000", "184009.120000", "184010.610000", "184012.100000", "184013.590000", "184015.080000", "184016.570000", "184018.060000", "184019.550000", "184021.040000", "184022.530000", "184024.020000", "184025.510000", "184027.000000", "184028.490000", "184029.980000", "184031.470000", "184032.960000", "184034.450000", "184035.940000", "184037.430000", "184038.920000", "184040.410000", "184041.900000", "184043.390000", "184044.880000", "184046.370000", "184047.860000", "184049.350000", "184050.840000", "184052.330000", "184053.820000", "184055.310000", "184056.800000", "184058.290000", "184059.780000", "184101.270000", "184102.760000", "184104.250000", "184105.740000", "184107.230000", "184108.720000", "184110.210000", "184111.700000", "184113.190000", "184114.680000", "184116.170000", "184117.660000", "184119.150000", "184120.640000", "184122.130000", "184123.620000", "184125.110000", "184126.600000", "184128.090000", "184129.580000", "184131.070000", "184132.560000", "184134.050000", "184135.540000", "184137.030000", "184138.520000", "184140.010000", "184141.500000", "184142.990000", "184144.480000", "184145.970000", "184147.460000", "184148.950000", "184150.440000", "184151.930000", "184153.420000", "184154.910000", "184156.400000", "184157.890000", "184159.380000", "184200.870000", "184202.360000", "184203.850000", "184205.340000", "184206.830000", "184208.320000", "184209.810000", "184211.300000", "184212.790000", "184214.280000", "184215.770000", "184217.260000", "184218.750000", "184220.240000", "184221.730000", "184223.220000", "184224.710000", "184226.200000", "184227.690000", "184229.180000", "184230.670000", "184232.160000", "184233.650000", "184235.140000", "184236.630000", "184238.120000", "184239.610000", "184241.100000", "184242.590000", "184244.080000", "184245.570000", "184247.060000", "184248.550000", "184250.040000", "184251.530000", "184253.020000", "184254.510000", "184256.000000", "184257.490000", "184258.980000", "184300.470000", "184301.960000", "184303.450000", "184304.940000", "184306.430000", "184307.920000", "184309.410000", "184310.900000", "184312.390000", "184313.880000", "184315.370000", "184316.860000", "184318.350000", "184319.840000", "184321.330000", "184322.820000", "184324.310000", "184325.800000", "184327.290000", "184328.780000", "184330.270000", "184331.760000", "184333.250000", "184334.740000", "184336.230000", "184337.720000", "184339.210000", "184340.700000", "184342.190000", "184343.680000", "184345.170000", "184346.660000", "184348.150000", "184349.640000", "184351.130000", "184352.620000", "184354.110000", "184355.600000", "184357.090000", "184358.580000", "184400.070000", "184401.560000", "184403.050000", "184404.540000", "184406.030000", "184407.520000", "184409.010000", "184410.500000", "184411.990000", "184413.480000", "184414.970000", "184416.460000", "184417.950000", "184419.440000", "184420.930000", "184422.420000", "184423.910000", "184425.400000", "184426.890000", "184428.380000", "184429.870000", "184431.360000", "184432.850000", "184434.340000", "184435.830000", "184437.320000", "184438.810000", "184440.300000", "184441.790000", "184443.280000", "184444.770000", "184446.260000", "184447.750000", "184449.240000", "184450.730000", "184452.220000", "184453.710000", "184455.200000", "184456.690000", "184458.180000", "184459.670000", "184501.160000", "184502.650000", "184504.140000", "184505.630000", "184507.120000", "184508.610000", "184510.100000", "184511.590000", "184513.080000", "184514.570000", "184516.060000", "184517.550000", "184519.040000", "184520.530000", "184522.020000", "184523.510000", "184525.000000", "184526.490000", "184527.980000", "184529.470000", "184530.960000", "184532.450000", "184533.940000", "184535.430000", "184536.920000", "184538.410000", "184539.900000", "184541.390000", "184542.880000", "184544.370000", "184545.860000", "184547.350000", "184548.840000", "184550.330000", "184551.820000", "184553.310000", "184554.800000", "184556.290000", "184557.780000", "184559.270000", "184600.760000", "184602.250000", "184603.740000", "184605.230000", "184606.720000", "184608.210000", "184609.700000", "184611.190000", "184612.680000", "184614.170000", "184615.660000", "184617.150000", "184618.640000", "184620.130000", "184621.620000", "184623.110000", "184624.600000", "184626.090000", "184627.580000", "184629.070000", "184630.560000", "184632.050000", "184633.540000", "184635.030000", "184636.520000", "184638.010000", "184639.500000", "184640.990000", "184642.480000", "184643.970000", "184645.460000", "184646.950000", "184648.440000", "184649.930000", "184651.420000", "184652.910000", "184654.400000", "184655.890000", "184657.380000", "184658.870000", "184700.360000", "184701.850000", "184703.340000", "184704.830000", "184706.320000", "184707.810000", "184709.300000", "184710.790000", "184712.280000", "184713.770000", "184715.260000", "184716.750000", "184718.240000", "184719.730000", "184721.220000", "184722.710000", "184724.200000", "184725.690000", "184727.180000", "184728.670000", "184730.160000", "184731.650000", "184733.140000", "184734.630000", "184736.120000", "184737.610000", "184739.100000", "184740.590000", "184742.080000", "184743.570000", "184745.060000", "184746.550000", "184748.040000", "184749.530000", "184751.020000", "184752.510000", "184754.000000", "184755.490000", "184756.980000", "184758.470000", "184759.960000", "184801.450000", "184802.940000", "184804.430000", "184805.920000", "184807.410000", "184808.900000", "184810.390000", "184811.880000", "184813.370000", "184814.860000", "184816.350000", "184817.840000", "184819.330000", "184820.820000", "184822.310000", "184823.800000", "184825.290000", "184826.780000", "184828.270000", "184829.760000", "184831.250000", "184832.740000", "184834.230000", "184835.720000", "184837.210000", "184838.700000", "184840.190000", "184841.680000", "184843.170000", "184844.660000", "184846.150000", "184847.640000", "184849.130000", "184850.620000", "184852.110000", "184853.600000", "184855.090000", "184856.580000", "184858.070000", "184859.560000", "184901.050000", "184902.540000", "184904.030000", "184905.520000", "184907.010000"],
      "ContentTime": ["183831.243000", "183831.246000", "183831.249000", "183831.252000", "183831.255000", "183831.280000", "183831.283000", "183831.286000", "183831.289000", "183831.291000", "183831.297000", "183831.300000", "183831.303000", "183831.306000", "183831.309000", "183831.312000", "183831.315000", "183831.318000", "183831.321000", "183831.325000", "183831.328000", "183831.331000", "183831.334000", "183831.337000", "183831.340000", "183831.343000", "183831.346000", "183831.349000", "183831.352000", "183831.355000", "183831.358000", "183831.361000", "183831.364000", "183831.367000", "183831.369000", "183851.209000", "183851.212000", "183851.215000", "183851.218000", "183851.221000", "183851.224000", "183851.227000", "183851.229000", "183851.232000", "183851.235000", "183851.238000", "183851.241000", "183851.244000", "183851.247000", "183851.250000", "183851.253000", "183851.256000", "183851.259000", "183851.262000", "183851.264000", "183911.209000", "183911.212000", "183911.215000", "183911.218000", "183911.221000", "183911.224000", "183911.227000", "183911.230000", "183911.233000", "183911.236000", "183911.239000", "183911.242000", "183911.244000", "183911.248000", "183911.251000", "183911.254000", "183911.257000", "183911.260000", "183911.263000", "183911.266000", "183931.209000", "183931.212000", "183931.215000", "183931.218000", "183931.221000", "183931.224000", "183931.227000", "183931.230000", "183931.232000", "183931.235000", "183931.238000", "183931.241000", "183931.244000", "183931.247000", "183931.250000", "183931.253000", "183931.256000", "183931.269000", "183931.272000", "183931.275000", "183931.278000", "184011.209000", "184011.212000", "184011.215000", "184011.218000", "184011.221000", "184011.224000", "184011.227000", "184011.230000", "184011.233000", "184011.236000", "184011.239000", "184011.242000", "184011.244000", "184011.247000", "184011.250000", "184011.253000", "184011.256000", "184011.259000", "184011.262000", "184011.265000", "184011.268000", "184011.271000", "184011.274000", "184011.277000", "184011.280000", "184011.283000", "184011.286000", "184011.289000", "184011.292000", "184011.295000", "184051.210000", "184051.213000", "184051.216000", "184051.219000", "184051.222000", "184051.225000", "184051.228000", "184051.231000", "184051.234000", "184051.237000", "184051.240000", "184051.242000", "184051.245000", "184051.248000", "184051.251000", "184051.254000", "184051.257000", "184051.260000", "184051.263000", "184051.265000", "184051.268000", "184051.271000", "184051.274000", "184051.277000", "184051.280000", "184051.283000", "184051.286000", "184131.209000", "184131.212000", "184131.215000", "184131.218000", "184131.221000", "184131.224000", "184131.227000", "184131.229000", "184131.232000", "184131.235000", "184131.238000", "184131.241000", "184131.244000", "184131.247000", "184131.250000", "184131.253000", "184131.256000", "184131.263000", "184131.266000", "184131.269000", "184131.272000", "184131.275000", "184131.278000", "184131.281000", "184131.284000", "184131.287000", "184131.290000", "184211.209000", "184211.212000", "184211.215000", "184211.218000", "184211.221000", "184211.224000", "184211.227000", "184211.230000", "184211.233000", "184211.236000", "184211.239000", "184211.242000", "184211.245000", "184211.247000", "184211.250000", "184211.253000", "184211.256000", "184211.259000", "184211.262000", "184211.265000", "184211.268000", "184211.271000", "184211.274000", "184211.277000", "184211.280000", "184211.283000", "184211.286000", "184251.210000", "184251.213000", "184251.216000", "184251.219000", "184251.222000", "184251.225000", "184251.228000", "184251.231000", "184251.234000", "184251.237000", "184251.240000", "184251.243000", "184251.246000", "184251.248000", "184251.251000", "184251.254000", "184251.257000", "184251.260000", "184251.263000", "184251.266000", "184251.269000", "184251.272000", "184251.275000", "184251.278000", "184251.281000", "184251.284000", "184251.287000", "184331.209000", "184331.212000", "184331.215000", "184331.218000", "184331.221000", "184331.224000", "184331.227000", "184331.230000", "184331.233000", "184331.236000", "184331.239000", "184331.241000", "184331.244000", "184331.247000", "184331.250000", "184331.253000", "184331.256000", "184331.259000", "184331.262000", "184331.265000", "184331.268000", "184331.271000", "184331.274000", "184331.277000", "184331.280000", "184331.283000", "184331.286000", "184411.209000", "184411.212000", "184411.215000", "184411.218000", "184411.221000", "184411.224000", "184411.227000", "184411.230000", "184411.233000", "184411.236000", "184411.239000", "184411.242000", "184411.245000", "184411.248000", "184411.251000", "184411.254000", "184411.257000", "184411.260000", "184411.263000", "184411.266000", "184411.269000", "184411.272000", "184411.275000", "184411.278000", "184411.281000", "184411.284000", "184451.209000", "184451.212000", "184451.215000", "184451.218000", "184451.221000", "184451.224000", "184451.227000", "184451.239000", "184451.242000", "184451.245000", "184451.248000", "184451.251000", "184451.254000", "184451.257000", "184451.259000", "184451.262000", "184451.265000", "184451.268000", "184451.271000", "184451.274000", "184451.277000", "184451.280000", "184451.283000", "184451.286000", "184451.289000", "184451.292000", "184451.295000", "184531.209000", "184531.212000", "184531.215000", "184531.218000", "184531.221000", "184531.224000", "184531.227000", "184531.230000", "184531.233000", "184531.236000", "184531.239000", "184531.242000", "184531.245000", "184531.248000", "184531.251000", "184531.254000", "184531.257000", "184531.259000", "184531.262000", "184531.265000", "184531.268000", "184531.271000", "184531.274000", "184531.277000", "184531.280000", "184531.283000", "184531.286000", "184611.209000", "184611.212000", "184611.215000", "184611.218000", "184611.221000", "184611.224000", "184611.227000", "184611.230000", "184611.233000", "184611.236000", "184611.239000", "184611.242000", "184611.245000", "184611.248000", "184611.251000", "184611.254000", "184611.257000", "184611.260000", "184611.263000", "184611.266000", "184611.269000", "184611.272000", "184611.275000", "184611.278000", "184611.281000", "184611.283000", "184611.286000", "184651.209000", "184651.212000", "184651.215000", "184651.218000", "184651.221000", "184651.224000", "184651.227000", "184651.230000", "184651.233000", "184651.236000", "184651.239000", "184651.242000", "184651.245000", "184651.248000", "184651.251000", "184651.253000", "184651.256000", "184651.259000", "184651.262000", "184651.265000", "184651.268000", "184651.271000", "184651.274000", "184651.277000", "184651.280000", "184651.283000", "184651.286000", "184731.210000", "184731.213000", "184731.216000", "184731.219000", "184731.222000", "184731.225000", "184731.228000", "184731.231000", "184731.234000", "184731.237000", "184731.240000", "184731.243000", "184731.246000", "184731.249000", "184731.251000", "184731.254000", "184731.257000", "184731.260000", "184731.263000", "184731.266000", "184731.269000", "184731.272000", "184731.275000", "184731.278000", "184731.281000", "184731.284000", "184731.287000", "184811.209000", "184811.212000", "184811.215000", "184811.218000", "184811.221000", "184811.224000", "184811.227000", "184811.230000", "184811.233000", "184811.236000", "184811.239000", "184811.242000", "184811.245000", "184811.248000", "184811.250000", "184811.253000", "184811.256000", "184811.259000", "184811.262000", "184811.265000", "184811.268000", "184811.271000", "184811.274000", "184811.278000", "184811.281000", "184811.283000", "184811.286000", "184851.209000", "184851.212000", "184851.215000", "184851.218000", "184851.230000", "184851.233000", "184851.235000", "184851.238000", "184851.241000", "184851.244000", "184851.247000", "184851.250000", "184851.253000", "184851.256000", "184851.259000", "184851.262000", "184851.265000", "184851.268000", "184851.271000", "184851.274000", "184851.277000", "184851.280000", "184851.283000", "184851.287000", "184851.290000", "184851.293000", "184909.353000", "184909.357000", "184909.360000", "184909.363000", "184909.365000", "184909.368000", "184909.371000", "184909.374000", "184909.387000", "184909.390000", "184909.393000", "184909.396000", "184909.399000"],
