{
  "AcquisitionMatrixPE": 104,
  "AcquisitionNumber": 1,
  "AcquisitionTime": "18:24:25.132500",
  "BandwidthPerPixelPhaseEncode": 17.17,
  "BaseResolution": 104,
  "BodyPartExamined": "BRAIN",
  "CoilString": "HC1-7;NC1_2",
  "ConsistencyInfo": "N4_VE11C_LATEST_20160120",
  "ConversionSoftware": "dcm2niix",
  "ConversionSoftwareVersion": "v1.0.20190720  (JP2:OpenJPEG) GCC7.3.0",
  "DerivedVendorReportedEchoSpacing": 0.000560011,
  "DeviceSerialNumber": "167006",
  "DwellTime": 2.1e-06,
  "EchoTime": 0.037,
  "EchoTrainLength": 104,
  "EffectiveEchoSpacing": 0.000560011,
  "FlipAngle": 52,
  "ImageComments": "Unaliased_MB4_PE3_LB",
  "ImageOrientationPatientDICOM": [0.99828, -0.0491619, -0.031934, 0.0318954, 0.912533, -0.407758],
  "ImageType": [
    "ORIGINAL",
    "PRIMARY",
    "M",
    "MB",
    "ND",
    "MOSAIC"
],
  "ImagingFrequency": 123.259,
  "InPlanePhaseEncodingDirectionDICOM": "COL",
  "InstitutionAddress": "Chemin_Queen-Mary_4565_Montreal_District_CA_H3W_1W5",
  "InstitutionName": "IUGM",
  "InstitutionalDepartmentName": "Department",
  "MRAcquisitionType": "2D",
  "MagneticFieldStrength": 3,
  "Manufacturer": "Siemens",
  "ManufacturersModelName": "Prisma_fit",
  "Modality": "MR",
  "MultibandAccelerationFactor": 4,
  "PartialFourier": 1,
  "PatientPosition": "HFS",
  "PercentPhaseFOV": 100,
  "PhaseEncodingDirection": "j",
  "PhaseEncodingSteps": 104,
  "PhaseResolution": 1,
  "PixelBandwidth": 2290,
  "ProcedureStepDescription": "video_friends",
  "ProtocolName": "func_task-s01e05a",
  "PulseSequenceDetails": "%CustomerSeq%_cmrr_mbep2d_bold",
  "ReceiveCoilActiveElements": "HC1-7;NC1,2",
  "ReceiveCoilName": "HeadNeck_64",
  "ReconMatrixPE": 104,
  "RepetitionTime": 1.49,
  "SAR": 0.0361394,
  "ScanOptions": "FS",
  "ScanningSequence": "EP",
  "SequenceName": "epfid2d1_104",
  "SequenceVariant": "SK_SS",
  "SeriesDescription": "func_task-s01e05a",
  "SeriesNumber": 13,
  "ShimSetting": [615, -7259, -8848, 411, 50, -410, -8, 44],
  "SliceThickness": 2,
  "SliceTiming": [0, 0.7825, 0.0975, 0.8825, 0.195, 0.98, 0.2925, 1.0775, 0.3925, 1.175, 0.49, 1.2725, 0.5875, 1.3725, 0.685, 0, 0.7825, 0.0975, 0.8825, 0.195, 0.98, 0.2925, 1.0775, 0.3925, 1.175, 0.49, 1.2725, 0.5875, 1.3725, 0.685, 0, 0.7825, 0.0975, 0.8825, 0.195, 0.98, 0.2925, 1.0775, 0.3925, 1.175, 0.49, 1.2725, 0.5875, 1.3725, 0.685, 0, 0.7825, 0.0975, 0.8825, 0.195, 0.98, 0.2925, 1.0775, 0.3925, 1.175, 0.49, 1.2725, 0.5875, 1.3725, 0.685],
  "SoftwareVersions": "syngo_MR_E11",
  "SpacingBetweenSlices": 2,
  "StationName": "MRC35049",
  "TaskName": "friends",
  "TotalReadoutTime": 0.0576811,
  "TxRefAmp": 237.322,
  "WipMemBlock": "c76412d4-5790-40f1-8686-49cef12daf2d||Sequence: R016 ve11c/master r/e634e98; Dec 19 2017 11:00:25 by eja",
  "dcmmeta_affine": [
    [-1.9965603351593018, 0.06379079073667526, -0.0983738899230957, 98.36591339111328],
    [0.09832380712032318, 1.8250659704208374, -0.8120754361152649, -72.7469253540039],
    [-0.063867948949337, 0.8155150413513184, 1.8250633478164673, -72.46204376220703],
    [0.0, 0.0, 0.0, 1.0]
],
  "dcmmeta_reorient_transform": [
    [0.0, -1.0, 0.0, 103.0],
    [1.0, 0.0, 0.0, 0.0],
    [0.0, 0.0, 1.0, 0.0],
    [0.0, 0.0, 0.0, 1.0]
],
  "dcmmeta_shape": [104, 104, 60, 488],
  "dcmmeta_slice_dim": 2,
  "dcmmeta_version": 0.6,
  "global": {
    "const": {
      "AcquisitionMatrix": [104, 0, 0, 104],
      "AngioFlag": "N",
      "BitsAllocated": 16,
      "BitsStored": 16,
      "BodyPartExamined": "BRAIN",
      "Columns": 832,
      "EchoNumbers": 1,
      "EchoTime": 37.0,
      "EchoTrainLength": 104,
      "FlipAngle": 52.0,
      "HighBit": 15,
      "ImageOrientationPatient": [0.99828018540691, -0.0491619023461, -0.0319339753502, 0.03189539369212, 0.91253300317642, -0.40775752841],
      "ImagePositionPatient": [-854.90418705026, -743.76903270055, 331.63142515321],
      "ImageType": [
        "ORIGINAL",
        "PRIMARY",
        "M",
        "MB",
        "ND",
        "MOSAIC"
],
      "ImagedNucleus": "1H",
      "ImagingFrequency": 123.25918,
      "InPlanePhaseEncodingDirection": "COL",
      "MRAcquisitionType": "2D",
      "MagneticFieldStrength": 3.0,
      "Manufacturer": "SIEMENS",
      "ManufacturerModelName": "Prisma_fit",
      "Modality": "MR",
      "NumberOfAverages": 1.0,
      "NumberOfPhaseEncodingSteps": 104,
      "PercentPhaseFieldOfView": 100.0,
      "PercentSampling": 100.0,
      "PerformedProcedureStepStartTime": "173550.574000",
      "PhotometricInterpretation": "MONOCHROME2",
      "PixelBandwidth": 2290.0,
      "PixelRepresentation": 0,
      "PixelSpacing": [2.0, 2.0],
      "ProtocolName": "func_task-s01e05a",
      "RepetitionTime": 1490.0,
      "Rows": 832,
      "SAR": 0.03613944817421,
      "SamplesPerPixel": 1,
      "ScanOptions": "FS",
      "ScanningSequence": "EP",
      "SequenceName": "epfid2d1_104",
      "SequenceVariant": [
        "SK",
        "SS"
],
      "SeriesDescription": "func_task-s01e05a",
      "SeriesNumber": 13,
      "SeriesTime": "182551.574000",
      "SliceLocation": -41.424228035963,
      "SliceThickness": 2.0,
      "SmallestImagePixelValue": 0,
      "SoftwareVersions": "syngo MR E11",
      "SpacingBetweenSlices": 2.0000000449625,
      "SpecificCharacterSet": "ISO_IR 100",
      "StudyID": "1",
      "StudyTime": "173550.501000",
      "TransmitCoilName": "Body",
      "VariableFlipAngleFlag": "N",
      "WindowCenterWidthExplanation": "Algo1",
      "dBdt": 0.0},
    "slices": {}
  },
  "time": {
    "samples": {
      "AcquisitionNumber": [1, 2, 3, 4, 5, 6, 7, 8, 9, 10, 11, 12, 13, 14, 15, 16, 17, 18, 19, 20, 21, 22, 23, 24, 25, 26, 27, 28, 29, 30, 31, 32, 33, 34, 35, 36, 37, 38, 39, 40, 41, 42, 43, 44, 45, 46, 47, 48, 49, 50, 51, 52, 53, 54, 55, 56, 57, 58, 59, 60, 61, 62, 63, 64, 65, 66, 67, 68, 69, 70, 71, 72, 73, 74, 75, 76, 77, 78, 79, 80, 81, 82, 83, 84, 85, 86, 87, 88, 89, 90, 91, 92, 93, 94, 95, 96, 97, 98, 99, 100, 101, 102, 103, 104, 105, 106, 107, 108, 109, 110, 111, 112, 113, 114, 115, 116, 117, 118, 119, 120, 121, 122, 123, 124, 125, 126, 127, 128, 129, 130, 131, 132, 133, 134, 135, 136, 137, 138, 139, 140, 141, 142, 143, 144, 145, 146, 147, 148, 149, 150, 151, 152, 153, 154, 155, 156, 157, 158, 159, 160, 161, 162, 163, 164, 165, 166, 167, 168, 169, 170, 171, 172, 173, 174, 175, 176, 177, 178, 179, 180, 181, 182, 183, 184, 185, 186, 187, 188, 189, 190, 191, 192, 193, 194, 195, 196, 197, 198, 199, 200, 201, 202, 203, 204, 205, 206, 207, 208, 209, 210, 211, 212, 213, 214, 215, 216, 217, 218, 219, 220, 221, 222, 223, 224, 225, 226, 227, 228, 229, 230, 231, 232, 233, 234, 235, 236, 237, 238, 239, 240, 241, 242, 243, 244, 245, 246, 247, 248, 249, 250, 251, 252, 253, 254, 255, 256, 257, 258, 259, 260, 261, 262, 263, 264, 265, 266, 267, 268, 269, 270, 271, 272, 273, 274, 275, 276, 277, 278, 279, 280, 281, 282, 283, 284, 285, 286, 287, 288, 289, 290, 291, 292, 293, 294, 295, 296, 297, 298, 299, 300, 301, 302, 303, 304, 305, 306, 307, 308, 309, 310, 311, 312, 313, 314, 315, 316, 317, 318, 319, 320, 321, 322, 323, 324, 325, 326, 327, 328, 329, 330, 331, 332, 333, 334, 335, 336, 337, 338, 339, 340, 341, 342, 343, 344, 345, 346, 347, 348, 349, 350, 351, 352, 353, 354, 355, 356, 357, 358, 359, 360, 361, 362, 363, 364, 365, 366, 367, 368, 369, 370, 371, 372, 373, 374, 375, 376, 377, 378, 379, 380, 381, 382, 383, 384, 385, 386, 387, 388, 389, 390, 391, 392, 393, 394, 395, 396, 397, 398, 399, 400, 401, 402, 403, 404, 405, 406, 407, 408, 409, 410, 411, 412, 413, 414, 415, 416, 417, 418, 419, 420, 421, 422, 423, 424, 425, 426, 427, 428, 429, 430, 431, 432, 433, 434, 435, 436, 437, 438, 439, 440, 441, 442, 443, 444, 445, 446, 447, 448, 449, 450, 451, 452, 453, 454, 455, 456, 457, 458, 459, 460, 461, 462, 463, 464, 465, 466, 467, 468, 469, 470, 471, 472, 473, 474, 475, 476, 477, 478, 479, 480, 481, 482, 483, 484, 485, 486, 487, 488],
      "AcquisitionTime": ["182425.132500", "182426.622500", "182428.112500", "182429.602500", "182431.092500", "182432.582500", "182434.072500", "182435.562500", "182437.052500", "182438.542500", "182440.032500", "182441.522500", "182443.012500", "182444.502500", "182445.992500", "182447.482500", "182448.972500", "182450.462500", "182451.952500", "182453.442500", "182454.932500", "182456.422500", "182457.912500", "182459.402500", "182500.892500", "182502.382500", "182503.872500", "182505.362500", "182506.852500", "182508.342500", "182509.832500", "182511.322500", "182512.812500", "182514.302500", "182515.792500", "182517.282500", "182518.772500", "182520.262500", "182521.752500", "182523.242500", "182524.732500", "182526.222500", "182527.712500", "182529.202500", "182530.692500", "182532.182500", "182533.672500", "182535.162500", "182536.652500", "182538.142500", "182539.632500", "182541.122500", "182542.612500", "182544.102500", "182545.592500", "182547.082500", "182548.572500", "182550.062500", "182551.552500", "182553.042500", "182554.532500", "182556.022500", "182557.512500", "182559.002500", "182600.492500", "182601.982500", "182603.472500", "182604.962500", "182606.452500", "182607.942500", "182609.432500", "182610.922500", "182612.412500", "182613.902500", "182615.392500", "182616.882500", "182618.372500", "182619.862500", "182621.352500", "182622.842500", "182624.332500", "182625.822500", "182627.312500", "182628.802500", "182630.292500", "182631.782500", "182633.272500", "182634.762500", "182636.252500", "182637.742500", "182639.232500", "182640.722500", "182642.212500", "182643.702500", "182645.192500", "182646.682500", "182648.172500", "182649.662500", "182651.152500", "182652.642500", "182654.132500", "182655.622500", "182657.112500", "182658.602500", "182700.092500", "182701.582500", "182703.072500", "182704.562500", "182706.052500", "182707.542500", "182709.032500", "182710.522500", "182712.012500", "182713.502500", "182714.992500", "182716.482500", "182717.972500", "182719.462500", "182720.952500", "182722.442500", "182723.932500", "182725.422500", "182726.912500", "182728.402500", "182729.892500", "182731.382500", "182732.872500", "182734.362500", "182735.852500", "182737.342500", "182738.832500", "182740.322500", "182741.812500", "182743.302500", "182744.792500", "182746.282500", "182747.772500", "182749.262500", "182750.752500", "182752.242500", "182753.732500", "182755.222500", "182756.712500", "182758.202500", "182759.692500", "182801.182500", "182802.672500", "182804.162500", "182805.652500", "182807.142500", "182808.632500", "182810.122500", "182811.612500", "182813.102500", "182814.592500", "182816.082500", "182817.572500", "182819.062500", "182820.552500", "182822.042500", "182823.532500", "182825.022500", "182826.512500", "182828.002500", "182829.492500", "182830.982500", "182832.472500", "182833.962500", "182835.452500", "182836.942500", "182838.432500", "182839.922500", "182841.412500", "182842.902500", "182844.392500", "182845.882500", "182847.372500", "182848.862500", "182850.352500", "182851.842500", "182853.332500", "182854.822500", "182856.312500", "182857.802500", "182859.292500", "182900.782500", "182902.272500", "182903.762500", "182905.252500", "182906.742500", "182908.232500", "182909.722500", "182911.212500", "182912.702500", "182914.192500", "182915.682500", "182917.172500", "182918.662500", "182920.152500", "182921.642500", "182923.132500", "182924.622500", "182926.112500", "182927.602500", "182929.092500", "182930.582500", "182932.072500", "182933.562500", "182935.052500", "182936.542500", "182938.032500", "182939.522500", "182941.012500", "182942.502500", "182943.992500", "182945.482500", "182946.972500", "182948.462500", "182949.952500", "182951.442500", "182952.932500", "182954.422500", "182955.912500", "182957.402500", "182958.892500", "183000.382500", "183001.872500", "183003.362500", "183004.852500", "183006.342500", "183007.832500", "183009.322500", "183010.812500", "183012.302500", "183013.792500", "183015.282500", "183016.772500", "183018.262500", "183019.752500", "183021.242500", "183022.732500", "183024.222500", "183025.712500", "183027.202500", "183028.692500", "183030.182500", "183031.672500", "183033.162500", "183034.652500", "183036.142500", "183037.632500", "183039.122500", "183040.612500", "183042.102500", "183043.592500", "183045.082500", "183046.572500", "183048.062500", "183049.552500", "183051.042500", "183052.532500", "183054.022500", "183055.512500", "183057.002500", "183058.492500", "183059.982500", "183101.472500", "183102.962500", "183104.452500", "183105.942500", "183107.432500", "183108.922500", "183110.412500", "183111.902500", "183113.392500", "183114.882500", "183116.372500", "183117.862500", "183119.352500", "183120.842500", "183122.332500", "183123.822500", "183125.312500", "183126.802500", "183128.292500", "183129.782500", "183131.272500", "183132.762500", "183134.252500", "183135.742500", "183137.232500", "183138.722500", "183140.212500", "183141.702500", "183143.192500", "183144.682500", "183146.172500", "183147.662500", "183149.152500", "183150.642500", "183152.132500", "183153.622500", "183155.112500", "183156.602500", "183158.092500", "183159.582500", "183201.072500", "183202.562500", "183204.052500", "183205.542500", "183207.032500", "183208.522500", "183210.012500", "183211.502500", "183212.992500", "183214.482500", "183215.972500", "183217.462500", "183218.952500", "183220.442500", "183221.932500", "183223.422500", "183224.912500", "183226.402500", "183227.892500", "183229.382500", "183230.872500", "183232.362500", "183233.852500", "183235.342500", "183236.832500", "183238.322500", "183239.812500", "183241.302500", "183242.792500", "183244.282500", "183245.772500", "183247.262500", "183248.752500", "183250.242500", "183251.732500", "183253.222500", "183254.712500", "183256.202500", "183257.692500", "183259.182500", "183300.672500", "183302.162500", "183303.652500", "183305.142500", "183306.632500", "183308.122500", "183309.612500", "183311.102500", "183312.592500", "183314.082500", "183315.572500", "183317.062500", "183318.552500", "183320.042500", "183321.532500", "183323.022500", "183324.512500", "183326.002500", "183327.492500", "183328.982500", "183330.472500", "183331.962500", "183333.452500", "183334.942500", "183336.432500", "183337.922500", "183339.412500", "183340.902500", "183342.392500", "183343.882500", "183345.372500", "183346.862500", "183348.352500", "183349.842500", "183351.332500", "183352.822500", "183354.312500", "183355.802500", "183357.292500", "183358.782500", "183400.272500", "183401.762500", "183403.252500", "183404.742500", "183406.232500", "183407.722500", "183409.212500", "183410.702500", "183412.192500", "183413.682500", "183415.172500", "183416.662500", "183418.152500", "183419.642500", "183421.132500", "183422.622500", "183424.112500", "183425.602500", "183427.092500", "183428.582500", "183430.072500", "183431.562500", "183433.052500", "183434.542500", "183436.032500", "183437.522500", "183439.012500", "183440.502500", "183441.992500", "183443.482500", "183444.972500", "183446.462500", "183447.952500", "183449.442500", "183450.932500", "183452.422500", "183453.912500", "183455.402500", "183456.892500", "183458.382500", "183459.872500", "183501.362500", "183502.852500", "183504.342500", "183505.832500", "183507.322500", "183508.812500", "183510.302500", "183511.792500", "183513.282500", "183514.772500", "183516.262500", "183517.752500", "183519.242500", "183520.732500", "183522.222500", "183523.712500", "183525.202500", "183526.692500", "183528.182500", "183529.672500", "183531.162500", "183532.652500", "183534.142500", "183535.632500", "183537.122500", "183538.612500", "183540.102500", "183541.592500", "183543.082500", "183544.572500", "183546.062500", "183547.552500", "183549.042500", "183550.532500", "183552.022500", "183553.512500", "183555.002500", "183556.492500", "183557.982500", "183559.472500", "183600.962500", "183602.452500", "183603.942500", "183605.432500", "183606.922500", "183608.412500", "183609.902500", "183611.392500", "183612.882500", "183614.372500", "183615.862500", "183617.352500", "183618.842500", "183620.332500", "183621.822500", "183623.312500", "183624.802500", "183626.292500", "183627.782500", "183629.272500", "183630.762500"],
      "ContentTime": ["182551.577000", "182551.581000", "182551.592000", "182551.595000", "182551.598000", "182551.601000", "182551.604000", "182551.607000", "182551.610000", "182551.613000", "182551.615000", "182551.618000", "182551.621000", "182551.624000", "182551.627000", "182551.630000", "182551.633000", "182551.636000", "182551.639000", "182551.643000", "182551.646000", "182551.649000", "182551.652000", "182551.655000", "182551.658000", "182551.679000", "182551.696000", "182551.698000", "182551.701000", "182551.704000", "182551.707000", "182551.710000", "182551.713000", "182611.551000", "182611.554000", "182611.557000", "182611.560000", "182611.567000", "182611.570000", "182611.573000", "182611.576000", "182611.579000", "182611.582000", "182611.585000", "182611.588000", "182611.591000", "182611.594000", "182611.597000", "182611.599000", "182611.602000", "182611.605000", "182611.608000", "182611.611000", "182611.614000", "182631.552000", "182631.555000", "182631.558000", "182631.561000", "182631.564000", "182631.567000", "182631.570000", "182631.573000", "182631.575000", "182631.578000", "182631.581000", "182631.584000", "182631.587000", "182631.590000", "182631.593000", "182631.596000", "182631.599000", "182631.602000", "182631.605000", "182631.608000", "182651.552000", "182651.555000", "182651.558000", "182651.561000", "182651.564000", "182651.567000", "182651.570000", "182651.572000", "182651.575000", "182651.578000", "182651.581000", "182651.584000", "182651.587000", "182651.590000", "182651.593000", "182651.596000", "182651.599000", "182651.602000", "182651.605000", "182651.608000", "182731.552000", "182731.555000", "182731.558000", "182731.561000", "182731.564000", "182731.567000", "182731.570000", "182731.573000", "182731.576000", "182731.579000", "182731.582000", "182731.585000", "182731.588000", "182731.591000", "182731.594000", "182731.597000", "182731.599000", "182731.602000", "182731.605000", "182731.608000", "182731.611000", "182731.614000", "182731.617000", "182731.620000", "182731.623000", "182731.626000", "182731.629000", "182731.633000", "182731.636000", "182731.639000", "182811.551000", "182811.554000", "182811.557000", "182811.560000", "182811.563000", "182811.566000", "182811.569000", "182811.572000", "182811.574000", "182811.577000", "182811.580000", "182811.583000", "182811.586000", "182811.589000", "182811.592000", "182811.595000", "182811.598000", "182811.601000", "182811.604000", "182811.607000", "182811.610000", "182811.613000", "182811.616000", "182811.619000", "182811.621000", "182811.624000", "182811.627000", "182851.552000", "182851.555000", "182851.558000", "182851.561000", "182851.564000", "182851.567000", "182851.570000", "182851.573000", "182851.576000", "182851.579000", "182851.582000", "182851.585000", "182851.588000", "182851.590000", "182851.593000", "182851.596000", "182851.608000", "182851.611000", "182851.614000", "182851.617000", "182851.620000", "182851.622000", "182851.626000", "182851.628000", "182851.631000", "182851.634000", "182851.637000", "182911.552000", "182911.555000", "182911.558000", "182911.561000", "182911.564000", "182911.567000", "182911.570000", "182911.573000", "182911.576000", "182911.579000", "182911.582000", "182911.585000", "182911.588000", "182911.591000", "182951.552000", "182951.555000", "182951.559000", "182951.562000", "182951.565000", "182951.568000", "182951.571000", "182951.574000", "182951.577000", "182951.580000", "182951.583000", "182951.586000", "182951.589000", "182951.592000", "182951.595000", "182951.598000", "182951.601000", "182951.604000", "182951.607000", "182951.609000", "182951.612000", "182951.616000", "182951.618000", "182951.621000", "182951.624000", "182951.627000", "183031.551000", "183031.554000", "183031.557000", "183031.560000", "183031.563000", "183031.566000", "183031.569000", "183031.572000", "183031.575000", "183031.589000", "183031.592000", "183031.595000", "183031.598000", "183031.601000", "183031.604000", "183031.607000", "183031.610000", "183031.613000", "183031.616000", "183031.619000", "183031.621000", "183031.624000", "183031.627000", "183031.630000", "183031.633000", "183031.636000", "183031.639000", "183111.552000", "183111.555000", "183111.558000", "183111.561000", "183111.564000", "183111.567000", "183111.570000", "183111.573000", "183111.576000", "183111.579000", "183111.582000", "183111.585000", "183111.588000", "183111.591000", "183111.594000", "183111.597000", "183111.600000", "183111.603000", "183111.606000", "183111.609000", "183111.612000", "183111.615000", "183111.618000", "183111.621000", "183111.623000", "183111.626000", "183111.629000", "183151.552000", "183151.555000", "183151.558000", "183151.561000", "183151.564000", "183151.567000", "183151.570000", "183151.573000", "183151.576000", "183151.579000", "183151.582000", "183151.585000", "183151.588000", "183151.591000", "183151.594000", "183151.597000", "183151.599000", "183151.602000", "183151.605000", "183151.608000", "183151.611000", "183151.614000", "183151.617000", "183151.620000", "183151.623000", "183151.626000", "183151.629000", "183231.552000", "183231.555000", "183231.558000", "183231.561000", "183231.564000", "183231.567000", "183231.570000", "183231.573000", "183231.576000", "183231.579000", "183231.582000", "183231.585000", "183231.588000", "183231.591000", "183231.594000", "183231.597000", "183231.601000", "183231.604000", "183231.608000", "183231.610000", "183231.613000", "183231.616000", "183231.620000", "183231.623000", "183231.625000", "183231.628000", "183231.631000", "183311.551000", "183311.554000", "183311.557000", "183311.560000", "183311.563000", "183311.566000", "183311.569000", "183311.572000", "183311.575000", "183311.578000", "183311.581000", "183311.584000", "183311.587000", "183311.590000", "183311.593000", "183311.596000", "183311.599000", "183311.602000", "183311.604000", "183311.607000", "183311.610000", "183311.613000", "183311.616000", "183311.619000", "183311.622000", "183311.625000", "183311.628000", "183351.552000", "183351.555000", "183351.558000", "183351.561000", "183351.564000", "183351.567000", "183351.571000", "183351.574000", "183351.578000", "183351.581000", "183351.584000", "183351.587000", "183351.590000", "183351.593000", "183351.596000", "183351.599000", "183351.602000", "183351.605000", "183351.607000", "183351.610000", "183351.613000", "183351.616000", "183351.619000", "183351.622000", "183351.625000", "183351.628000", "183431.552000", "183431.555000", "183431.558000", "183431.561000", "183431.564000", "183431.567000", "183431.570000", "183431.573000", "183431.576000", "183431.579000", "183431.582000", "183431.585000", "183431.588000", "183431.591000", "183431.594000", "183431.597000", "183431.600000", "183431.603000", "183431.606000", "183431.609000", "183431.612000", "183431.614000", "183431.617000", "183431.620000", "183431.623000", "183431.627000", "183431.629000", "183511.551000", "183511.554000", "183511.557000", "183511.560000", "183511.563000", "183511.566000", "183511.569000", "183511.572000", "183511.575000", "183511.589000", "183511.592000", "183511.595000", "183511.598000", "183511.601000", "183511.604000", "183511.607000", "183511.610000", "183511.613000", "183511.616000", "183511.619000", "183511.621000", "183511.624000", "183511.627000", "183511.630000", "183511.633000", "183511.636000", "183511.639000", "183551.552000", "183551.555000", "183551.558000", "183551.561000", "183551.564000", "183551.567000", "183551.570000", "183551.573000", "183551.576000", "183551.579000", "183551.582000", "183551.585000", "183551.588000", "183551.591000", "183551.594000", "183551.597000", "183551.600000", "183551.603000", "183551.606000", "183551.609000", "183551.612000", "183551.615000", "183551.617000", "183551.620000", "183551.623000", "183551.626000", "183551.629000", "183631.552000", "183631.555000", "183631.558000", "183631.561000", "183631.564000", "183631.567000", "183631.570000", "183631.573000", "183631.576000", "183631.579000", "183631.582000", "183631.585000", "183631.588000", "183631.591000", "183631.594000", "183631.597000", "183631.600000", "183631.603000", "183631.606000", "183631.609000", "183631.611000", "183631.614000", "183631.617000", "183631.620000", "183631.623000", "183631.626000", "183631.629000", "183632.576000"],
