{
  "AcquisitionMatrixPE": 104,
  "AcquisitionNumber": 1,
  "AcquisitionTime": "13:28:54.162500",
  "BandwidthPerPixelPhaseEncode": 17.17,
  "BaseResolution": 104,
  "BodyPartExamined": "BRAIN",
  "CoilString": "HC1-7;NC1_2",
  "ConsistencyInfo": "N4_VE11C_LATEST_20160120",
  "ConversionSoftware": "dcm2niix",
  "ConversionSoftwareVersion": "v1.0.20190902",
  "DerivedVendorReportedEchoSpacing": 0.000560011,
  "DeviceSerialNumber": "167006",
  "DwellTime": 2.1e-06,
  "EchoTime": 0.037,
  "EchoTrainLength": 104,
  "EffectiveEchoSpacing": 0.000560011,
  "FlipAngle": 52,
  "ImageComments": "Unaliased_MB4_PE3_LB",
  "ImageOrientationPatientDICOM": [0.999918, -0.000990968, -0.0128025, -0.00261778, 0.960348, -0.278792],
  "ImageType": [
    "ORIGINAL",
    "PRIMARY",
    "M",
    "MB",
    "ND",
    "MOSAIC"
],
  "ImagingFrequency": 123.259,
  "InPlanePhaseEncodingDirectionDICOM": "COL",
  "InstitutionAddress": "Chemin_Queen-Mary_4565_Montreal_District_CA_H3W_1W5",
  "InstitutionName": "IUGM",
  "InstitutionalDepartmentName": "Department",
  "MRAcquisitionType": "2D",
  "MagneticFieldStrength": 3,
  "Manufacturer": "Siemens",
  "ManufacturersModelName": "Prisma_fit",
  "Modality": "MR",
  "MultibandAccelerationFactor": 4,
  "PartialFourier": 1,
  "PatientPosition": "HFS",
  "PercentPhaseFOV": 100,
  "PhaseEncodingDirection": "j",
  "PhaseEncodingSteps": 104,
  "PhaseResolution": 1,
  "PixelBandwidth": 2290,
  "ProcedureStepDescription": "video_friends",
  "ProtocolName": "func_task-friends-s04e12b",
  "PulseSequenceDetails": "%CustomerSeq%_cmrr_mbep2d_bold",
  "ReceiveCoilActiveElements": "HC1-7;NC1,2",
  "ReceiveCoilName": "HeadNeck_64",
  "ReconMatrixPE": 104,
  "RepetitionTime": 1.49,
  "SAR": 0.0284419,
  "ScanOptions": "FS",
  "ScanningSequence": "EP",
  "SequenceName": "epfid2d1_104",
  "SequenceVariant": "SK_SS",
  "SeriesDescription": "func_task-friends-s04e12b",
  "SeriesNumber": 11,
  "ShimSetting": [625, -7207, -8809, 698, 41, 29, 67, 1],
  "SliceThickness": 2,
  "SliceTiming": [0, 0.785, 0.0975, 0.8825, 0.195, 0.98, 0.295, 1.0775, 0.3925, 1.175, 0.49, 1.275, 0.5875, 1.3725, 0.685, 0, 0.785, 0.0975, 0.8825, 0.195, 0.98, 0.295, 1.0775, 0.3925, 1.175, 0.49, 1.275, 0.5875, 1.3725, 0.685, 0, 0.785, 0.0975, 0.8825, 0.195, 0.98, 0.295, 1.0775, 0.3925, 1.175, 0.49, 1.275, 0.5875, 1.3725, 0.685, 0, 0.785, 0.0975, 0.8825, 0.195, 0.98, 0.295, 1.0775, 0.3925, 1.175, 0.49, 1.275, 0.5875, 1.3725, 0.685],
  "SoftwareVersions": "syngo_MR_E11",
  "SpacingBetweenSlices": 2,
  "StationName": "MRC35049",
  "TaskName": "s04e12b",
  "TotalReadoutTime": 0.0576811,
  "TxRefAmp": 205.847,
  "WipMemBlock": "c33d2eb5-af98-4879-8d7e-3b04f9256748||Sequence: R016 ve11c/master r/e634e98; Dec 19 2017 11:00:25 by eja",
  "dcmmeta_affine": [
    [-1.9998351335525513, -0.00523556862026453, -0.025142276659607887, 106.37947082519531],
    [0.001981936162337661, 1.9206956624984741, -0.5576058030128479, -81.81951141357422],
    [-0.02560502290725708, 0.5575847625732422, 1.9205321073532104, -65.53527069091797],
    [0.0, 0.0, 0.0, 1.0]
],
  "dcmmeta_reorient_transform": [
    [0.0, -1.0, 0.0, 103.0],
    [1.0, 0.0, 0.0, 0.0],
    [0.0, 0.0, 1.0, 0.0],
    [0.0, 0.0, 0.0, 1.0]
],
  "dcmmeta_shape": [104, 104, 60, 466],
  "dcmmeta_slice_dim": 2,
  "dcmmeta_version": 0.6,
  "global": {
    "const": {
      "AcquisitionMatrix": [104, 0, 0, 104],
      "AngioFlag": "N",
      "BitsAllocated": 16,
      "BitsStored": 16,
      "BodyPartExamined": "BRAIN",
      "Columns": 832,
      "EchoNumbers": 1,
      "EchoTime": 37.0,
      "EchoTrainLength": 104,
      "FlipAngle": 52.0,
      "HighBit": 15,
      "ImageOrientationPatient": [0.99991755344667, -0.0009909680332, -0.0128025111435, -0.0026177843872, 0.9603478305613, -0.2787923807085],
      "ImagePositionPatient": [-831.87443771131, -814.42393473932, 204.17704126844],
      "ImageType": [
        "ORIGINAL",
        "PRIMARY",
        "M",
        "MB",
        "ND",
        "MOSAIC"
],
      "ImagedNucleus": "1H",
      "ImagingFrequency": 123.25906,
      "InPlanePhaseEncodingDirection": "COL",
      "MRAcquisitionType": "2D",
      "MagneticFieldStrength": 3.0,
      "Manufacturer": "SIEMENS",
      "ManufacturerModelName": "Prisma_fit",
      "Modality": "MR",
      "NumberOfAverages": 1.0,
      "NumberOfPhaseEncodingSteps": 104,
      "PercentPhaseFieldOfView": 100.0,
      "PercentSampling": 100.0,
      "PerformedProcedureStepStartTime": "130220.524000",
      "PhotometricInterpretation": "MONOCHROME2",
      "PixelBandwidth": 2290.0,
      "PixelRepresentation": 0,
      "PixelSpacing": [2.0, 2.0],
      "ProtocolName": "func_task-friends-s04e12b",
      "RepetitionTime": 1490.0,
      "Rows": 832,
      "SAR": 0.02844187148776,
      "SamplesPerPixel": 1,
      "ScanOptions": "FS",
      "ScanningSequence": "EP",
      "SequenceName": "epfid2d1_104",
      "SequenceVariant": [
        "SK",
        "SS"
],
      "SeriesDescription": "func_task-friends-s04e12b",
      "SeriesNumber": 11,
      "SeriesTime": "133023.631000",
      "SliceLocation": -41.457088235712,
      "SliceThickness": 2.0,
      "SmallestImagePixelValue": 0,
      "SoftwareVersions": "syngo MR E11",
      "SpacingBetweenSlices": 1.999999986086,
      "SpecificCharacterSet": "ISO_IR 100",
      "StudyID": "1",
      "StudyTime": "130220.463000",
      "TransmitCoilName": "Body",
      "VariableFlipAngleFlag": "N",
      "WindowCenterWidthExplanation": "Algo1",
      "dBdt": 0.0},
    "slices": {}
  },
  "time": {
    "samples": {
      "AcquisitionNumber": [1, 2, 3, 4, 5, 6, 7, 8, 9, 10, 11, 12, 13, 14, 15, 16, 17, 18, 19, 20, 21, 22, 23, 24, 25, 26, 27, 28, 29, 30, 31, 32, 33, 34, 35, 36, 37, 38, 39, 40, 41, 42, 43, 44, 45, 46, 47, 48, 49, 50, 51, 52, 53, 54, 55, 56, 57, 58, 59, 60, 61, 62, 63, 64, 65, 66, 67, 68, 69, 70, 71, 72, 73, 74, 75, 76, 77, 78, 79, 80, 81, 82, 83, 84, 85, 86, 87, 88, 89, 90, 91, 92, 93, 94, 95, 96, 97, 98, 99, 100, 101, 102, 103, 104, 105, 106, 107, 108, 109, 110, 111, 112, 113, 114, 115, 116, 117, 118, 119, 120, 121, 122, 123, 124, 125, 126, 127, 128, 129, 130, 131, 132, 133, 134, 135, 136, 137, 138, 139, 140, 141, 142, 143, 144, 145, 146, 147, 148, 149, 150, 151, 152, 153, 154, 155, 156, 157, 158, 159, 160, 161, 162, 163, 164, 165, 166, 167, 168, 169, 170, 171, 172, 173, 174, 175, 176, 177, 178, 179, 180, 181, 182, 183, 184, 185, 186, 187, 188, 189, 190, 191, 192, 193, 194, 195, 196, 197, 198, 199, 200, 201, 202, 203, 204, 205, 206, 207, 208, 209, 210, 211, 212, 213, 214, 215, 216, 217, 218, 219, 220, 221, 222, 223, 224, 225, 226, 227, 228, 229, 230, 231, 232, 233, 234, 235, 236, 237, 238, 239, 240, 241, 242, 243, 244, 245, 246, 247, 248, 249, 250, 251, 252, 253, 254, 255, 256, 257, 258, 259, 260, 261, 262, 263, 264, 265, 266, 267, 268, 269, 270, 271, 272, 273, 274, 275, 276, 277, 278, 279, 280, 281, 282, 283, 284, 285, 286, 287, 288, 289, 290, 291, 292, 293, 294, 295, 296, 297, 298, 299, 300, 301, 302, 303, 304, 305, 306, 307, 308, 309, 310, 311, 312, 313, 314, 315, 316, 317, 318, 319, 320, 321, 322, 323, 324, 325, 326, 327, 328, 329, 330, 331, 332, 333, 334, 335, 336, 337, 338, 339, 340, 341, 342, 343, 344, 345, 346, 347, 348, 349, 350, 351, 352, 353, 354, 355, 356, 357, 358, 359, 360, 361, 362, 363, 364, 365, 366, 367, 368, 369, 370, 371, 372, 373, 374, 375, 376, 377, 378, 379, 380, 381, 382, 383, 384, 385, 386, 387, 388, 389, 390, 391, 392, 393, 394, 395, 396, 397, 398, 399, 400, 401, 402, 403, 404, 405, 406, 407, 408, 409, 410, 411, 412, 413, 414, 415, 416, 417, 418, 419, 420, 421, 422, 423, 424, 425, 426, 427, 428, 429, 430, 431, 432, 433, 434, 435, 436, 437, 438, 439, 440, 441, 442, 443, 444, 445, 446, 447, 448, 449, 450, 451, 452, 453, 454, 455, 456, 457, 458, 459, 460, 461, 462, 463, 464, 465, 466],
      "AcquisitionTime": ["132854.162500", "132855.652500", "132857.142500", "132858.632500", "132900.122500", "132901.612500", "132903.102500", "132904.592500", "132906.082500", "132907.572500", "132909.062500", "132910.552500", "132912.042500", "132913.532500", "132915.022500", "132916.512500", "132918.002500", "132919.492500", "132920.982500", "132922.472500", "132923.962500", "132925.452500", "132926.942500", "132928.432500", "132929.922500", "132931.412500", "132932.902500", "132934.392500", "132935.882500", "132937.372500", "132938.862500", "132940.352500", "132941.842500", "132943.332500", "132944.822500", "132946.312500", "132947.802500", "132949.292500", "132950.782500", "132952.272500", "132953.762500", "132955.252500", "132956.742500", "132958.232500", "132959.722500", "133001.212500", "133002.702500", "133004.192500", "133005.682500", "133007.172500", "133008.662500", "133010.152500", "133011.642500", "133013.132500", "133014.622500", "133016.112500", "133017.602500", "133019.092500", "133020.582500", "133022.072500", "133023.562500", "133025.052500", "133026.542500", "133028.032500", "133029.522500", "133031.012500", "133032.502500", "133033.992500", "133035.482500", "133036.972500", "133038.462500", "133039.952500", "133041.442500", "133042.932500", "133044.422500", "133045.912500", "133047.402500", "133048.892500", "133050.382500", "133051.872500", "133053.362500", "133054.852500", "133056.342500", "133057.832500", "133059.322500", "133100.812500", "133102.302500", "133103.792500", "133105.282500", "133106.772500", "133108.262500", "133109.752500", "133111.242500", "133112.732500", "133114.222500", "133115.712500", "133117.202500", "133118.692500", "133120.182500", "133121.672500", "133123.162500", "133124.652500", "133126.142500", "133127.632500", "133129.122500", "133130.612500", "133132.102500", "133133.592500", "133135.082500", "133136.572500", "133138.062500", "133139.552500", "133141.042500", "133142.532500", "133144.022500", "133145.512500", "133147.002500", "133148.492500", "133149.982500", "133151.472500", "133152.962500", "133154.452500", "133155.942500", "133157.432500", "133158.922500", "133200.412500", "133201.902500", "133203.392500", "133204.882500", "133206.372500", "133207.862500", "133209.352500", "133210.842500", "133212.332500", "133213.822500", "133215.312500", "133216.802500", "133218.292500", "133219.782500", "133221.272500", "133222.762500", "133224.252500", "133225.742500", "133227.232500", "133228.722500", "133230.212500", "133231.702500", "133233.192500", "133234.682500", "133236.172500", "133237.662500", "133239.152500", "133240.642500", "133242.132500", "133243.622500", "133245.112500", "133246.602500", "133248.092500", "133249.582500", "133251.072500", "133252.562500", "133254.052500", "133255.542500", "133257.032500", "133258.522500", "133300.012500", "133301.502500", "133302.992500", "133304.482500", "133305.972500", "133307.462500", "133308.952500", "133310.442500", "133311.932500", "133313.422500", "133314.912500", "133316.402500", "133317.892500", "133319.382500", "133320.872500", "133322.362500", "133323.852500", "133325.342500", "133326.832500", "133328.322500", "133329.812500", "133331.302500", "133332.792500", "133334.282500", "133335.772500", "133337.262500", "133338.752500", "133340.242500", "133341.732500", "133343.222500", "133344.712500", "133346.202500", "133347.692500", "133349.182500", "133350.672500", "133352.162500", "133353.652500", "133355.142500", "133356.632500", "133358.122500", "133359.612500", "133401.102500", "133402.592500", "133404.082500", "133405.572500", "133407.062500", "133408.552500", "133410.042500", "133411.532500", "133413.022500", "133414.512500", "133416.002500", "133417.492500", "133418.982500", "133420.472500", "133421.962500", "133423.452500", "133424.942500", "133426.432500", "133427.922500", "133429.412500", "133430.902500", "133432.392500", "133433.882500", "133435.372500", "133436.862500", "133438.352500", "133439.842500", "133441.332500", "133442.822500", "133444.312500", "133445.802500", "133447.292500", "133448.782500", "133450.272500", "133451.762500", "133453.252500", "133454.742500", "133456.232500", "133457.722500", "133459.212500", "133500.702500", "133502.192500", "133503.682500", "133505.172500", "133506.662500", "133508.152500", "133509.642500", "133511.132500", "133512.622500", "133514.112500", "133515.602500", "133517.092500", "133518.582500", "133520.072500", "133521.562500", "133523.052500", "133524.542500", "133526.032500", "133527.522500", "133529.012500", "133530.502500", "133531.992500", "133533.482500", "133534.972500", "133536.462500", "133537.952500", "133539.442500", "133540.932500", "133542.422500", "133543.912500", "133545.402500", "133546.892500", "133548.382500", "133549.872500", "133551.362500", "133552.852500", "133554.342500", "133555.832500", "133557.322500", "133558.812500", "133600.302500", "133601.792500", "133603.282500", "133604.772500", "133606.262500", "133607.752500", "133609.242500", "133610.732500", "133612.222500", "133613.712500", "133615.202500", "133616.692500", "133618.182500", "133619.672500", "133621.162500", "133622.652500", "133624.142500", "133625.632500", "133627.122500", "133628.612500", "133630.102500", "133631.592500", "133633.082500", "133634.572500", "133636.062500", "133637.552500", "133639.042500", "133640.532500", "133642.022500", "133643.512500", "133645.002500", "133646.492500", "133647.982500", "133649.472500", "133650.962500", "133652.452500", "133653.942500", "133655.432500", "133656.922500", "133658.412500", "133659.902500", "133701.392500", "133702.882500", "133704.372500", "133705.862500", "133707.352500", "133708.842500", "133710.332500", "133711.822500", "133713.312500", "133714.802500", "133716.292500", "133717.782500", "133719.272500", "133720.762500", "133722.252500", "133723.742500", "133725.232500", "133726.722500", "133728.212500", "133729.702500", "133731.192500", "133732.682500", "133734.172500", "133735.662500", "133737.152500", "133738.642500", "133740.132500", "133741.622500", "133743.112500", "133744.602500", "133746.092500", "133747.582500", "133749.072500", "133750.562500", "133752.052500", "133753.542500", "133755.032500", "133756.522500", "133758.012500", "133759.502500", "133800.992500", "133802.482500", "133803.972500", "133805.462500", "133806.952500", "133808.442500", "133809.932500", "133811.422500", "133812.912500", "133814.402500", "133815.892500", "133817.382500", "133818.872500", "133820.362500", "133821.852500", "133823.342500", "133824.832500", "133826.322500", "133827.812500", "133829.302500", "133830.792500", "133832.282500", "133833.772500", "133835.262500", "133836.752500", "133838.242500", "133839.732500", "133841.222500", "133842.712500", "133844.202500", "133845.692500", "133847.182500", "133848.672500", "133850.162500", "133851.652500", "133853.142500", "133854.632500", "133856.122500", "133857.612500", "133859.102500", "133900.592500", "133902.082500", "133903.572500", "133905.062500", "133906.552500", "133908.042500", "133909.532500", "133911.022500", "133912.512500", "133914.002500", "133915.492500", "133916.982500", "133918.472500", "133919.962500", "133921.452500", "133922.942500", "133924.432500", "133925.922500", "133927.412500", "133928.902500", "133930.392500", "133931.882500", "133933.372500", "133934.862500", "133936.352500", "133937.842500", "133939.332500", "133940.822500", "133942.312500", "133943.802500", "133945.292500", "133946.782500", "133948.272500", "133949.762500", "133951.252500", "133952.742500", "133954.232500", "133955.722500", "133957.212500", "133958.702500", "134000.192500", "134001.682500", "134003.172500", "134004.662500", "134006.152500", "134007.642500", "134009.132500", "134010.622500", "134012.112500", "134013.602500", "134015.092500", "134016.582500", "134018.072500", "134019.562500", "134021.052500", "134022.542500", "134024.032500", "134025.522500", "134027.012500"],
      "ContentTime": ["133023.634000", "133023.637000", "133023.640000", "133023.643000", "133023.645000", "133023.648000", "133023.651000", "133023.654000", "133023.657000", "133023.660000", "133023.663000", "133023.665000", "133023.668000", "133023.671000", "133023.674000", "133023.681000", "133023.684000", "133023.687000", "133023.689000", "133023.692000", "133023.695000", "133023.698000", "133023.701000", "133023.703000", "133023.707000", "133023.709000", "133023.712000", "133023.722000", "133023.724000", "133023.727000", "133023.730000", "133023.733000", "133023.736000", "133023.738000", "133023.741000", "133023.744000", "133023.747000", "133043.595000", "133043.598000", "133043.601000", "133043.604000", "133043.607000", "133043.610000", "133043.612000", "133043.615000", "133043.618000", "133043.621000", "133043.626000", "133043.629000", "133043.631000", "133043.634000", "133043.637000", "133043.640000", "133043.643000", "133043.646000", "133043.648000", "133043.651000", "133043.654000", "133103.595000", "133103.598000", "133103.601000", "133103.604000", "133103.606000", "133103.609000", "133103.612000", "133103.615000", "133103.618000", "133103.621000", "133103.624000", "133103.626000", "133103.629000", "133103.632000", "133103.635000", "133103.638000", "133103.640000", "133103.643000", "133103.646000", "133103.649000", "133123.595000", "133123.598000", "133123.601000", "133123.603000", "133123.606000", "133123.609000", "133123.612000", "133123.615000", "133123.617000", "133123.620000", "133123.623000", "133123.626000", "133123.629000", "133123.632000", "133123.634000", "133123.637000", "133123.640000", "133123.643000", "133123.646000", "133123.648000", "133203.595000", "133203.598000", "133203.601000", "133203.604000", "133203.607000", "133203.610000", "133203.613000", "133203.616000", "133203.619000", "133203.621000", "133203.624000", "133203.627000", "133203.630000", "133203.633000", "133203.635000", "133203.638000", "133203.641000", "133203.644000", "133203.647000", "133203.650000", "133203.652000", "133203.655000", "133203.658000", "133203.661000", "133203.664000", "133203.667000", "133203.669000", "133203.672000", "133243.596000", "133243.599000", "133243.602000", "133243.605000", "133243.607000", "133243.610000", "133243.613000", "133243.616000", "133243.619000", "133243.622000", "133243.624000", "133243.627000", "133243.630000", "133243.633000", "133243.636000", "133243.639000", "133243.642000", "133243.644000", "133243.647000", "133243.650000", "133243.653000", "133243.656000", "133243.658000", "133243.661000", "133243.664000", "133243.667000", "133243.670000", "133323.595000", "133323.598000", "133323.601000", "133323.617000", "133323.619000", "133323.622000", "133323.625000", "133323.628000", "133323.631000", "133323.642000", "133323.645000", "133323.648000", "133323.651000", "133323.654000", "133323.656000", "133323.659000", "133323.662000", "133323.665000", "133323.668000", "133323.670000", "133323.673000", "133323.676000", "133323.679000", "133323.682000", "133323.685000", "133323.687000", "133323.690000", "133403.595000", "133403.598000", "133403.601000", "133403.604000", "133403.606000", "133403.609000", "133403.612000", "133403.615000", "133403.618000", "133403.620000", "133403.623000", "133403.626000", "133403.629000", "133403.632000", "133403.635000", "133403.638000", "133403.640000", "133403.643000", "133403.646000", "133403.649000", "133403.652000", "133403.655000", "133403.657000", "133403.660000", "133403.663000", "133403.666000", "133403.669000", "133443.596000", "133443.599000", "133443.602000", "133443.605000", "133443.608000", "133443.610000", "133443.613000", "133443.616000", "133443.619000", "133443.622000", "133443.625000", "133443.627000", "133443.630000", "133443.633000", "133443.636000", "133443.639000", "133443.642000", "133443.644000", "133443.647000", "133443.650000", "133443.653000", "133443.656000", "133443.658000", "133443.661000", "133443.664000", "133443.667000", "133443.670000", "133523.595000", "133523.598000", "133523.601000", "133523.604000", "133523.607000", "133523.609000", "133523.612000", "133523.615000", "133523.618000", "133523.625000", "133523.628000", "133523.631000", "133523.634000", "133523.637000", "133523.639000", "133523.642000", "133523.645000", "133523.648000", "133523.651000", "133523.654000", "133523.656000", "133523.659000", "133523.662000", "133523.665000", "133523.668000", "133523.670000", "133523.673000", "133603.595000", "133603.598000", "133603.601000", "133603.604000", "133603.607000", "133603.609000", "133603.612000", "133603.615000", "133603.618000", "133603.621000", "133603.624000", "133603.626000", "133603.629000", "133603.632000", "133603.635000", "133603.638000", "133603.641000", "133603.643000", "133603.646000", "133603.649000", "133603.652000", "133603.655000", "133603.658000", "133603.660000", "133603.663000", "133603.666000", "133603.669000", "133643.595000", "133643.598000", "133643.601000", "133643.604000", "133643.606000", "133643.609000", "133643.612000", "133643.615000", "133643.618000", "133643.621000", "133643.623000", "133643.626000", "133643.629000", "133643.632000", "133643.635000", "133643.638000", "133643.641000", "133643.643000", "133643.646000", "133643.649000", "133643.652000", "133643.655000", "133643.657000", "133643.660000", "133643.663000", "133643.666000", "133723.596000", "133723.599000", "133723.602000", "133723.605000", "133723.607000", "133723.610000", "133723.613000", "133723.616000", "133723.619000", "133723.622000", "133723.624000", "133723.627000", "133723.630000", "133723.633000", "133723.636000", "133723.638000", "133723.641000", "133723.644000", "133723.647000", "133723.650000", "133723.653000", "133723.655000", "133723.658000", "133723.661000", "133723.664000", "133723.677000", "133723.680000", "133803.595000", "133803.598000", "133803.601000", "133803.604000", "133803.607000", "133803.609000", "133803.612000", "133803.615000", "133803.618000", "133803.621000", "133803.624000", "133803.626000", "133803.629000", "133803.632000", "133803.635000", "133803.638000", "133803.641000", "133803.643000", "133803.646000", "133803.649000", "133803.652000", "133803.655000", "133803.658000", "133803.660000", "133803.663000", "133803.666000", "133803.669000", "133843.595000", "133843.598000", "133843.601000", "133843.604000", "133843.606000", "133843.609000", "133843.612000", "133843.615000", "133843.618000", "133843.621000", "133843.623000", "133843.626000", "133843.629000", "133843.632000", "133843.635000", "133843.638000", "133843.640000", "133843.643000", "133843.646000", "133843.649000", "133843.652000", "133843.655000", "133843.657000", "133843.660000", "133843.663000", "133843.666000", "133843.669000", "133923.596000", "133923.599000", "133923.602000", "133923.605000", "133923.608000", "133923.610000", "133923.613000", "133923.616000", "133923.619000", "133923.622000", "133923.625000", "133923.628000", "133923.630000", "133923.633000", "133923.636000", "133923.639000", "133923.642000", "133923.645000", "133923.647000", "133923.650000", "133923.653000", "133923.656000", "133923.659000", "133923.662000", "133923.664000", "133923.667000", "133923.670000", "134003.595000", "134003.598000", "134003.601000", "134003.604000", "134003.607000", "134003.610000", "134003.613000", "134003.615000", "134003.618000", "134003.621000", "134003.624000", "134003.627000", "134003.630000", "134003.632000", "134003.635000", "134003.638000", "134003.641000", "134003.644000", "134003.647000", "134003.649000", "134003.652000", "134003.655000", "134003.658000", "134003.661000", "134003.664000", "134003.667000", "134003.670000", "134028.742000", "134028.745000", "134028.748000", "134028.751000", "134028.754000", "134028.757000", "134028.760000", "134028.762000", "134028.766000", "134028.768000", "134028.771000", "134028.774000", "134028.777000", "134028.780000", "134028.783000", "134028.786000", "134028.789000"],
