{
  "AcquisitionMatrixPE": 104,
  "AcquisitionNumber": 1,
  "AcquisitionTime": "13:40:58.967500",
  "BandwidthPerPixelPhaseEncode": 17.17,
  "BaseResolution": 104,
  "BodyPartExamined": "BRAIN",
  "CoilString": "HC1-7;NC1_2",
  "ConsistencyInfo": "N4_VE11C_LATEST_20160120",
  "ConversionSoftware": "dcm2niix",
  "ConversionSoftwareVersion": "v1.0.20190902",
  "DerivedVendorReportedEchoSpacing": 0.000560011,
  "DeviceSerialNumber": "167006",
  "DwellTime": 2.1e-06,
  "EchoTime": 0.037,
  "EchoTrainLength": 104,
  "EffectiveEchoSpacing": 0.000560011,
  "FlipAngle": 52,
  "ImageComments": "Unaliased_MB4_PE3_LB",
  "ImageOrientationPatientDICOM": [0.999918, -0.000990968, -0.0128025, -0.00261778, 0.960348, -0.278792],
  "ImageType": [
    "ORIGINAL",
    "PRIMARY",
    "M",
    "MB",
    "ND",
    "MOSAIC"
],
  "ImagingFrequency": 123.259,
  "InPlanePhaseEncodingDirectionDICOM": "COL",
  "InstitutionAddress": "Chemin_Queen-Mary_4565_Montreal_District_CA_H3W_1W5",
  "InstitutionName": "IUGM",
  "InstitutionalDepartmentName": "Department",
  "MRAcquisitionType": "2D",
  "MagneticFieldStrength": 3,
  "Manufacturer": "Siemens",
  "ManufacturersModelName": "Prisma_fit",
  "Modality": "MR",
  "MultibandAccelerationFactor": 4,
  "PartialFourier": 1,
  "PatientPosition": "HFS",
  "PercentPhaseFOV": 100,
  "PhaseEncodingDirection": "j",
  "PhaseEncodingSteps": 104,
  "PhaseResolution": 1,
  "PixelBandwidth": 2290,
  "ProcedureStepDescription": "video_friends",
  "ProtocolName": "func_task-friends-s04e13a",
  "PulseSequenceDetails": "%CustomerSeq%_cmrr_mbep2d_bold",
  "ReceiveCoilActiveElements": "HC1-7;NC1,2",
  "ReceiveCoilName": "HeadNeck_64",
  "ReconMatrixPE": 104,
  "RepetitionTime": 1.49,
  "SAR": 0.028437,
  "ScanOptions": "FS",
  "ScanningSequence": "EP",
  "SequenceName": "epfid2d1_104",
  "SequenceVariant": "SK_SS",
  "SeriesDescription": "func_task-friends-s04e13a",
  "SeriesNumber": 13,
  "ShimSetting": [625, -7207, -8809, 698, 41, 29, 67, 1],
  "SliceThickness": 2,
  "SliceTiming": [0, 0.7825, 0.0975, 0.8825, 0.195, 0.98, 0.2925, 1.0775, 0.3925, 1.175, 0.49, 1.2725, 0.5875, 1.3725, 0.685, 0, 0.7825, 0.0975, 0.8825, 0.195, 0.98, 0.2925, 1.0775, 0.3925, 1.175, 0.49, 1.2725, 0.5875, 1.3725, 0.685, 0, 0.7825, 0.0975, 0.8825, 0.195, 0.98, 0.2925, 1.0775, 0.3925, 1.175, 0.49, 1.2725, 0.5875, 1.3725, 0.685, 0, 0.7825, 0.0975, 0.8825, 0.195, 0.98, 0.2925, 1.0775, 0.3925, 1.175, 0.49, 1.2725, 0.5875, 1.3725, 0.685],
  "SoftwareVersions": "syngo_MR_E11",
  "SpacingBetweenSlices": 2,
  "StationName": "MRC35049",
  "TaskName": "s04e13a",
  "TotalReadoutTime": 0.0576811,
  "TxRefAmp": 205.847,
  "WipMemBlock": "8c41bd87-0f7c-45f1-9359-684c221a2d19||Sequence: R016 ve11c/master r/e634e98; Dec 19 2017 11:00:25 by eja",
  "dcmmeta_affine": [
    [-1.9998351335525513, -0.00523556862026453, -0.025142276659607887, 106.37947082519531],
    [0.001981936162337661, 1.9206956624984741, -0.5576058030128479, -81.81951141357422],
    [-0.02560502290725708, 0.5575847625732422, 1.9205321073532104, -65.53527069091797],
    [0.0, 0.0, 0.0, 1.0]
],
  "dcmmeta_reorient_transform": [
    [0.0, -1.0, 0.0, 103.0],
    [1.0, 0.0, 0.0, 0.0],
    [0.0, 0.0, 1.0, 0.0],
    [0.0, 0.0, 0.0, 1.0]
],
  "dcmmeta_shape": [104, 104, 60, 448],
  "dcmmeta_slice_dim": 2,
  "dcmmeta_version": 0.6,
  "global": {
    "const": {
      "AcquisitionMatrix": [104, 0, 0, 104],
      "AngioFlag": "N",
      "BitsAllocated": 16,
      "BitsStored": 16,
      "BodyPartExamined": "BRAIN",
      "Columns": 832,
      "EchoNumbers": 1,
      "EchoTime": 37.0,
      "EchoTrainLength": 104,
      "FlipAngle": 52.0,
      "HighBit": 15,
      "ImageOrientationPatient": [0.99991755344667, -0.0009909680332, -0.0128025111435, -0.0026177843872, 0.9603478305613, -0.2787923807085],
      "ImagePositionPatient": [-831.87443771131, -814.42393473932, 204.17704126844],
      "ImageType": [
        "ORIGINAL",
        "PRIMARY",
        "M",
        "MB",
        "ND",
        "MOSAIC"
],
      "ImagedNucleus": "1H",
      "ImagingFrequency": 123.259064,
      "InPlanePhaseEncodingDirection": "COL",
      "MRAcquisitionType": "2D",
      "MagneticFieldStrength": 3.0,
      "Manufacturer": "SIEMENS",
      "ManufacturerModelName": "Prisma_fit",
      "Modality": "MR",
      "NumberOfAverages": 1.0,
      "NumberOfPhaseEncodingSteps": 104,
      "PercentPhaseFieldOfView": 100.0,
      "PercentSampling": 100.0,
      "PerformedProcedureStepStartTime": "130220.524000",
      "PhotometricInterpretation": "MONOCHROME2",
      "PixelBandwidth": 2290.0,
      "PixelRepresentation": 0,
      "PixelSpacing": [2.0, 2.0],
      "ProtocolName": "func_task-friends-s04e13a",
      "RepetitionTime": 1490.0,
      "Rows": 832,
      "SAR": 0.02843702901099,
      "SamplesPerPixel": 1,
      "ScanOptions": "FS",
      "ScanningSequence": "EP",
      "SequenceName": "epfid2d1_104",
      "SequenceVariant": [
        "SK",
        "SS"
],
      "SeriesDescription": "func_task-friends-s04e13a",
      "SeriesNumber": 13,
      "SeriesTime": "134228.041000",
      "SliceLocation": -41.457088235712,
      "SliceThickness": 2.0,
      "SmallestImagePixelValue": 0,
      "SoftwareVersions": "syngo MR E11",
      "SpacingBetweenSlices": 1.999999986086,
      "SpecificCharacterSet": "ISO_IR 100",
      "StudyID": "1",
      "StudyTime": "130220.463000",
      "TransmitCoilName": "Body",
      "VariableFlipAngleFlag": "N",
      "WindowCenterWidthExplanation": "Algo1",
      "dBdt": 0.0},
    "slices": {}
  },
  "time": {
    "samples": {
      "AcquisitionNumber": [1, 2, 3, 4, 5, 6, 7, 8, 9, 10, 11, 12, 13, 14, 15, 16, 17, 18, 19, 20, 21, 22, 23, 24, 25, 26, 27, 28, 29, 30, 31, 32, 33, 34, 35, 36, 37, 38, 39, 40, 41, 42, 43, 44, 45, 46, 47, 48, 49, 50, 51, 52, 53, 54, 55, 56, 57, 58, 59, 60, 61, 62, 63, 64, 65, 66, 67, 68, 69, 70, 71, 72, 73, 74, 75, 76, 77, 78, 79, 80, 81, 82, 83, 84, 85, 86, 87, 88, 89, 90, 91, 92, 93, 94, 95, 96, 97, 98, 99, 100, 101, 102, 103, 104, 105, 106, 107, 108, 109, 110, 111, 112, 113, 114, 115, 116, 117, 118, 119, 120, 121, 122, 123, 124, 125, 126, 127, 128, 129, 130, 131, 132, 133, 134, 135, 136, 137, 138, 139, 140, 141, 142, 143, 144, 145, 146, 147, 148, 149, 150, 151, 152, 153, 154, 155, 156, 157, 158, 159, 160, 161, 162, 163, 164, 165, 166, 167, 168, 169, 170, 171, 172, 173, 174, 175, 176, 177, 178, 179, 180, 181, 182, 183, 184, 185, 186, 187, 188, 189, 190, 191, 192, 193, 194, 195, 196, 197, 198, 199, 200, 201, 202, 203, 204, 205, 206, 207, 208, 209, 210, 211, 212, 213, 214, 215, 216, 217, 218, 219, 220, 221, 222, 223, 224, 225, 226, 227, 228, 229, 230, 231, 232, 233, 234, 235, 236, 237, 238, 239, 240, 241, 242, 243, 244, 245, 246, 247, 248, 249, 250, 251, 252, 253, 254, 255, 256, 257, 258, 259, 260, 261, 262, 263, 264, 265, 266, 267, 268, 269, 270, 271, 272, 273, 274, 275, 276, 277, 278, 279, 280, 281, 282, 283, 284, 285, 286, 287, 288, 289, 290, 291, 292, 293, 294, 295, 296, 297, 298, 299, 300, 301, 302, 303, 304, 305, 306, 307, 308, 309, 310, 311, 312, 313, 314, 315, 316, 317, 318, 319, 320, 321, 322, 323, 324, 325, 326, 327, 328, 329, 330, 331, 332, 333, 334, 335, 336, 337, 338, 339, 340, 341, 342, 343, 344, 345, 346, 347, 348, 349, 350, 351, 352, 353, 354, 355, 356, 357, 358, 359, 360, 361, 362, 363, 364, 365, 366, 367, 368, 369, 370, 371, 372, 373, 374, 375, 376, 377, 378, 379, 380, 381, 382, 383, 384, 385, 386, 387, 388, 389, 390, 391, 392, 393, 394, 395, 396, 397, 398, 399, 400, 401, 402, 403, 404, 405, 406, 407, 408, 409, 410, 411, 412, 413, 414, 415, 416, 417, 418, 419, 420, 421, 422, 423, 424, 425, 426, 427, 428, 429, 430, 431, 432, 433, 434, 435, 436, 437, 438, 439, 440, 441, 442, 443, 444, 445, 446, 447, 448],
      "AcquisitionTime": ["134058.967500", "134100.457500", "134101.947500", "134103.437500", "134104.927500", "134106.417500", "134107.907500", "134109.397500", "134110.887500", "134112.377500", "134113.867500", "134115.357500", "134116.847500", "134118.337500", "134119.827500", "134121.317500", "134122.807500", "134124.297500", "134125.787500", "134127.277500", "134128.767500", "134130.257500", "134131.747500", "134133.237500", "134134.727500", "134136.217500", "134137.707500", "134139.197500", "134140.687500", "134142.177500", "134143.667500", "134145.157500", "134146.647500", "134148.137500", "134149.627500", "134151.117500", "134152.607500", "134154.097500", "134155.587500", "134157.077500", "134158.567500", "134200.057500", "134201.547500", "134203.037500", "134204.527500", "134206.017500", "134207.507500", "134208.997500", "134210.487500", "134211.977500", "134213.467500", "134214.957500", "134216.447500", "134217.937500", "134219.427500", "134220.917500", "134222.407500", "134223.897500", "134225.387500", "134226.877500", "134228.367500", "134229.857500", "134231.347500", "134232.837500", "134234.327500", "134235.817500", "134237.307500", "134238.797500", "134240.287500", "134241.777500", "134243.267500", "134244.757500", "134246.247500", "134247.737500", "134249.227500", "134250.717500", "134252.207500", "134253.697500", "134255.187500", "134256.677500", "134258.167500", "134259.657500", "134301.147500", "134302.637500", "134304.127500", "134305.617500", "134307.107500", "134308.597500", "134310.087500", "134311.577500", "134313.067500", "134314.557500", "134316.047500", "134317.537500", "134319.027500", "134320.517500", "134322.007500", "134323.497500", "134324.987500", "134326.477500", "134327.967500", "134329.457500", "134330.947500", "134332.437500", "134333.927500", "134335.417500", "134336.907500", "134338.397500", "134339.887500", "134341.377500", "134342.867500", "134344.357500", "134345.847500", "134347.337500", "134348.827500", "134350.317500", "134351.807500", "134353.297500", "134354.787500", "134356.277500", "134357.767500", "134359.257500", "134400.747500", "134402.237500", "134403.727500", "134405.217500", "134406.707500", "134408.197500", "134409.687500", "134411.177500", "134412.667500", "134414.157500", "134415.647500", "134417.137500", "134418.627500", "134420.117500", "134421.607500", "134423.097500", "134424.587500", "134426.077500", "134427.567500", "134429.057500", "134430.547500", "134432.037500", "134433.527500", "134435.017500", "134436.507500", "134437.997500", "134439.487500", "134440.977500", "134442.467500", "134443.957500", "134445.447500", "134446.937500", "134448.427500", "134449.917500", "134451.407500", "134452.897500", "134454.387500", "134455.877500", "134457.367500", "134458.857500", "134500.347500", "134501.837500", "134503.327500", "134504.817500", "134506.307500", "134507.797500", "134509.287500", "134510.777500", "134512.267500", "134513.757500", "134515.247500", "134516.737500", "134518.227500", "134519.717500", "134521.207500", "134522.697500", "134524.187500", "134525.677500", "134527.167500", "134528.657500", "134530.147500", "134531.637500", "134533.127500", "134534.617500", "134536.107500", "134537.597500", "134539.087500", "134540.577500", "134542.067500", "134543.557500", "134545.047500", "134546.537500", "134548.027500", "134549.517500", "134551.007500", "134552.497500", "134553.987500", "134555.477500", "134556.967500", "134558.457500", "134559.947500", "134601.437500", "134602.927500", "134604.417500", "134605.907500", "134607.397500", "134608.887500", "134610.377500", "134611.867500", "134613.357500", "134614.847500", "134616.337500", "134617.827500", "134619.317500", "134620.807500", "134622.297500", "134623.787500", "134625.277500", "134626.767500", "134628.257500", "134629.747500", "134631.237500", "134632.727500", "134634.217500", "134635.707500", "134637.197500", "134638.687500", "134640.177500", "134641.667500", "134643.157500", "134644.647500", "134646.137500", "134647.627500", "134649.117500", "134650.607500", "134652.097500", "134653.587500", "134655.077500", "134656.567500", "134658.057500", "134659.547500", "134701.037500", "134702.527500", "134704.017500", "134705.507500", "134706.997500", "134708.487500", "134709.977500", "134711.467500", "134712.957500", "134714.447500", "134715.937500", "134717.427500", "134718.917500", "134720.407500", "134721.897500", "134723.387500", "134724.877500", "134726.367500", "134727.857500", "134729.347500", "134730.837500", "134732.327500", "134733.817500", "134735.307500", "134736.797500", "134738.287500", "134739.777500", "134741.267500", "134742.757500", "134744.247500", "134745.737500", "134747.227500", "134748.717500", "134750.207500", "134751.697500", "134753.187500", "134754.677500", "134756.167500", "134757.657500", "134759.147500", "134800.637500", "134802.127500", "134803.617500", "134805.107500", "134806.597500", "134808.087500", "134809.577500", "134811.067500", "134812.557500", "134814.047500", "134815.537500", "134817.027500", "134818.517500", "134820.007500", "134821.497500", "134822.987500", "134824.477500", "134825.967500", "134827.457500", "134828.947500", "134830.437500", "134831.927500", "134833.417500", "134834.907500", "134836.397500", "134837.887500", "134839.377500", "134840.867500", "134842.357500", "134843.847500", "134845.337500", "134846.827500", "134848.317500", "134849.807500", "134851.297500", "134852.787500", "134854.277500", "134855.767500", "134857.257500", "134858.747500", "134900.237500", "134901.727500", "134903.217500", "134904.707500", "134906.197500", "134907.687500", "134909.177500", "134910.667500", "134912.157500", "134913.647500", "134915.137500", "134916.627500", "134918.117500", "134919.607500", "134921.097500", "134922.587500", "134924.077500", "134925.567500", "134927.057500", "134928.547500", "134930.037500", "134931.527500", "134933.017500", "134934.507500", "134935.997500", "134937.487500", "134938.977500", "134940.467500", "134941.957500", "134943.447500", "134944.937500", "134946.427500", "134947.917500", "134949.407500", "134950.897500", "134952.387500", "134953.877500", "134955.367500", "134956.857500", "134958.347500", "134959.837500", "135001.327500", "135002.817500", "135004.307500", "135005.797500", "135007.287500", "135008.777500", "135010.267500", "135011.757500", "135013.247500", "135014.737500", "135016.227500", "135017.717500", "135019.207500", "135020.697500", "135022.187500", "135023.677500", "135025.167500", "135026.657500", "135028.147500", "135029.637500", "135031.127500", "135032.617500", "135034.107500", "135035.597500", "135037.087500", "135038.577500", "135040.067500", "135041.557500", "135043.047500", "135044.537500", "135046.027500", "135047.517500", "135049.007500", "135050.497500", "135051.987500", "135053.477500", "135054.967500", "135056.457500", "135057.947500", "135059.437500", "135100.927500", "135102.417500", "135103.907500", "135105.397500", "135106.887500", "135108.377500", "135109.867500", "135111.357500", "135112.847500", "135114.337500", "135115.827500", "135117.317500", "135118.807500", "135120.297500", "135121.787500", "135123.277500", "135124.767500", "135126.257500", "135127.747500", "135129.237500", "135130.727500", "135132.217500", "135133.707500", "135135.197500", "135136.687500", "135138.177500", "135139.667500", "135141.157500", "135142.647500", "135144.137500", "135145.627500", "135147.117500", "135148.607500", "135150.097500", "135151.587500", "135153.077500", "135154.567500", "135156.057500", "135157.547500", "135159.037500", "135200.527500", "135202.017500", "135203.507500", "135204.997500"],
      "ContentTime": ["134228.044000", "134228.048000", "134228.055000", "134228.058000", "134228.060000", "134228.063000", "134228.066000", "134228.069000", "134228.072000", "134228.075000", "134228.078000", "134228.081000", "134228.083000", "134228.086000", "134228.089000", "134228.092000", "134228.095000", "134228.104000", "134228.107000", "134228.110000", "134228.113000", "134228.116000", "134228.119000", "134228.122000", "134228.124000", "134228.127000", "134228.130000", "134228.133000", "134228.136000", "134228.139000", "134228.142000", "134228.145000", "134228.147000", "134228.150000", "134248.011000", "134248.014000", "134248.017000", "134248.020000", "134248.022000", "134248.025000", "134248.028000", "134248.031000", "134248.034000", "134248.037000", "134248.039000", "134248.042000", "134248.045000", "134248.048000", "134248.051000", "134248.054000", "134248.057000", "134248.071000", "134248.074000", "134248.077000", "134308.011000", "134308.014000", "134308.017000", "134308.020000", "134308.023000", "134308.026000", "134308.028000", "134308.031000", "134308.034000", "134308.037000", "134308.040000", "134308.043000", "134308.045000", "134308.048000", "134308.051000", "134308.054000", "134308.057000", "134308.059000", "134308.062000", "134308.065000", "134308.068000", "134328.012000", "134328.015000", "134328.018000", "134328.021000", "134328.023000", "134328.026000", "134328.029000", "134328.032000", "134328.035000", "134328.037000", "134328.040000", "134328.043000", "134328.046000", "134328.049000", "134328.051000", "134328.054000", "134328.057000", "134328.060000", "134328.063000", "134328.066000", "134408.011000", "134408.014000", "134408.017000", "134408.020000", "134408.022000", "134408.025000", "134408.028000", "134408.031000", "134408.034000", "134408.037000", "134408.039000", "134408.042000", "134408.045000", "134408.048000", "134408.051000", "134408.054000", "134408.056000", "134408.059000", "134408.062000", "134408.065000", "134408.068000", "134408.071000", "134408.073000", "134408.076000", "134408.079000", "134408.082000", "134408.085000", "134408.088000", "134408.090000", "134408.093000", "134408.096000", "134448.011000", "134448.014000", "134448.017000", "134448.020000", "134448.023000", "134448.025000", "134448.028000", "134448.031000", "134448.034000", "134448.037000", "134448.040000", "134448.042000", "134448.045000", "134448.048000", "134448.051000", "134448.054000", "134448.057000", "134448.059000", "134448.062000", "134448.065000", "134448.068000", "134448.071000", "134448.074000", "134448.076000", "134448.079000", "134448.082000", "134448.085000", "134528.011000", "134528.014000", "134528.017000", "134528.020000", "134528.023000", "134528.026000", "134528.028000", "134528.031000", "134528.034000", "134528.037000", "134528.040000", "134528.042000", "134528.045000", "134528.048000", "134528.051000", "134528.054000", "134528.064000", "134528.067000", "134528.069000", "134528.072000", "134528.075000", "134528.078000", "134528.081000", "134528.084000", "134528.086000", "134528.089000", "134528.092000", "134608.011000", "134608.014000", "134608.017000", "134608.020000", "134608.022000", "134608.025000", "134608.028000", "134608.031000", "134608.035000", "134608.038000", "134608.040000", "134608.043000", "134608.046000", "134608.049000", "134608.052000", "134608.055000", "134608.058000", "134608.060000", "134608.063000", "134608.066000", "134608.069000", "134608.072000", "134608.074000", "134608.077000", "134608.080000", "134608.083000", "134648.011000", "134648.014000", "134648.017000", "134648.020000", "134648.023000", "134648.025000", "134648.028000", "134648.031000", "134648.034000", "134648.037000", "134648.040000", "134648.043000", "134648.045000", "134648.048000", "134648.051000", "134648.054000", "134648.057000", "134648.059000", "134648.062000", "134648.065000", "134648.068000", "134648.071000", "134648.074000", "134648.076000", "134648.079000", "134648.082000", "134648.085000", "134728.011000", "134728.014000", "134728.017000", "134728.020000", "134728.023000", "134728.025000", "134728.028000", "134728.031000", "134728.034000", "134728.037000", "134728.040000", "134728.042000", "134728.045000", "134728.048000", "134728.071000", "134728.074000", "134728.077000", "134728.080000", "134728.082000", "134728.085000", "134728.088000", "134728.091000", "134728.094000", "134728.097000", "134728.099000", "134728.102000", "134728.105000", "134808.012000", "134808.015000", "134808.018000", "134808.021000", "134808.024000", "134808.026000", "134808.029000", "134808.032000", "134808.035000", "134808.038000", "134808.041000", "134808.044000", "134808.046000", "134808.049000", "134808.052000", "134808.055000", "134808.058000", "134808.061000", "134808.063000", "134808.066000", "134808.069000", "134808.072000", "134808.075000", "134808.078000", "134808.080000", "134808.083000", "134808.086000", "134848.011000", "134848.014000", "134848.017000", "134848.020000", "134848.022000", "134848.025000", "134848.028000", "134848.031000", "134848.034000", "134848.037000", "134848.040000", "134848.043000", "134848.045000", "134848.048000", "134848.051000", "134848.054000", "134848.057000", "134848.060000", "134848.062000", "134848.065000", "134848.068000", "134848.071000", "134848.074000", "134848.077000", "134848.080000", "134848.082000", "134848.085000", "134928.011000", "134928.014000", "134928.017000", "134928.020000", "134928.023000", "134928.025000", "134928.028000", "134928.031000", "134928.034000", "134928.037000", "134928.039000", "134928.042000", "134928.045000", "134928.048000", "134928.051000", "134928.054000", "134928.056000", "134928.059000", "134928.062000", "134928.065000", "134928.068000", "134928.070000", "134928.073000", "134928.076000", "134928.079000", "134928.082000", "134928.085000", "135008.011000", "135008.014000", "135008.025000", "135008.028000", "135008.031000", "135008.033000", "135008.037000", "135008.040000", "135008.043000", "135008.045000", "135008.049000", "135008.052000", "135008.056000", "135008.058000", "135008.062000", "135008.073000", "135008.076000", "135008.079000", "135008.082000", "135008.085000", "135008.087000", "135008.090000", "135008.093000", "135008.096000", "135008.099000", "135008.102000", "135048.011000", "135048.014000", "135048.017000", "135048.020000", "135048.022000", "135048.025000", "135048.028000", "135048.031000", "135048.034000", "135048.037000", "135048.040000", "135048.056000", "135048.059000", "135048.062000", "135048.065000", "135048.068000", "135048.071000", "135048.073000", "135048.076000", "135048.079000", "135048.082000", "135048.085000", "135048.088000", "135048.090000", "135048.093000", "135048.096000", "135048.099000", "135128.011000", "135128.014000", "135128.017000", "135128.020000", "135128.023000", "135128.026000", "135128.029000", "135128.031000", "135128.034000", "135128.037000", "135128.040000", "135128.043000", "135128.046000", "135128.049000", "135128.051000", "135128.054000", "135128.057000", "135128.060000", "135128.063000", "135128.066000", "135128.068000", "135128.071000", "135128.074000", "135128.077000", "135128.080000", "135128.083000", "135128.085000", "135207.305000", "135207.308000", "135207.311000", "135207.314000", "135207.317000", "135207.321000", "135207.324000", "135207.327000", "135207.330000", "135207.333000", "135207.336000", "135207.339000", "135207.342000", "135207.345000", "135207.348000", "135207.351000", "135207.354000", "135207.357000", "135207.360000", "135207.363000", "135207.366000", "135207.368000", "135207.371000", "135207.375000", "135207.377000", "135207.380000", "135207.383000"],
