{
  "AcquisitionMatrixPE": 104,
  "AcquisitionNumber": 1,
  "AcquisitionTime": "15:30:12.862500",
  "BandwidthPerPixelPhaseEncode": 17.17,
  "BaseResolution": 104,
  "BodyPartExamined": "BRAIN",
  "CoilCombinationMethod": "Sum of Squares",
  "ConsistencyInfo": "N4_VE11C_LATEST_20160120",
  "ConversionSoftware": "dcm2niix",
  "ConversionSoftwareVersion": "v1.0.20230411",
  "DerivedVendorReportedEchoSpacing": 0.000560011,
  "DeviceSerialNumber": "167006",
  "DwellTime": 2.1e-06,
  "EchoTime": 0.037,
  "EchoTrainLength": 104,
  "EffectiveEchoSpacing": 0.000560011,
  "FlipAngle": 52,
  "HeudiconvVersion": "0.5.3.post861+ge7d3c7f",
  "ImageComments": "Unaliased MB4/PE3/LB",
  "ImageOrientationPatientDICOM": [0.999996, 0.00288721, 3.53537e-05, -0.00279245, 0.970146, -0.242506],
  "ImageOrientationText": "Tra>Cor(-14.0)>Sag(0.0)",
  "ImageType": [
    "ORIGINAL",
    "PRIMARY",
    "M",
    "MB",
    "ND",
    "MOSAIC"
],
  "ImagingFrequency": 123.249716,
  "InPlanePhaseEncodingDirectionDICOM": "COL",
  "InstitutionAddress": "Chemin Queen-Mary 4565,Montreal,District,CA,H3W 1W5",
  "InstitutionName": "Institut Universitaire de Geriatrie de Montreal",
  "InstitutionalDepartmentName": "Department",
  "MRAcquisitionType": "2D",
  "MagneticFieldStrength": 3,
  "Manufacturer": "Siemens",
  "ManufacturersModelName": "Prisma_fit",
  "MatrixCoilMode": "SENSE",
  "Modality": "MR",
  "MultibandAccelerationFactor": 4,
  "NonlinearGradientCorrection": false,
  "PartialFourier": 1,
  "PatientPosition": "HFS",
  "PercentPhaseFOV": 100,
  "PercentSampling": 100,
  "PhaseEncodingDirection": "j",
  "PhaseEncodingSteps": 104,
  "PhaseResolution": 1,
  "PixelBandwidth": 2290,
  "ProcedureStepDescription": "video^friends",
  "ProtocolName": "func_task-friends-s07e16b",
  "PulseSequenceDetails": "%CustomerSeq%\\cmrr_mbep2d_bold",
  "ReceiveCoilActiveElements": "HC1-7;NC1,2",
  "ReceiveCoilName": "HeadNeck_64",
  "ReconMatrixPE": 104,
  "RepetitionTime": 1.49,
  "SAR": 0.0549282,
  "ScanOptions": "FS",
  "ScanningSequence": "EP",
  "SequenceName": "epfid2d1_104",
  "SequenceVariant": "SK\\SS",
  "SeriesDescription": "func_task-friends-s07e16b",
  "SeriesNumber": 10,
  "ShimSetting": [612, -7242, -8766, 651, 46, -36, 17, 48],
  "SliceThickness": 2,
  "SliceTiming": [0, 0.7825, 0.0975, 0.8825, 0.195, 0.98, 0.2925, 1.0775, 0.3925, 1.175, 0.49, 1.2725, 0.5875, 1.3725, 0.685, 0, 0.7825, 0.0975, 0.8825, 0.195, 0.98, 0.2925, 1.0775, 0.3925, 1.175, 0.49, 1.2725, 0.5875, 1.3725, 0.685, 0, 0.7825, 0.0975, 0.8825, 0.195, 0.98, 0.2925, 1.0775, 0.3925, 1.175, 0.49, 1.2725, 0.5875, 1.3725, 0.685, 0, 0.7825, 0.0975, 0.8825, 0.195, 0.98, 0.2925, 1.0775, 0.3925, 1.175, 0.49, 1.2725, 0.5875, 1.3725, 0.685],
  "SoftwareVersions": "syngo MR E11",
  "SpacingBetweenSlices": 2,
  "StationName": "MRC35049",
  "TaskName": "s07e16b",
  "TotalReadoutTime": 0.0576811,
  "TxRefAmp": 227.547,
  "WipMemBlock": "01ea8e47-3cf0-4027-8676-c8a569578085||Sequence: R017 ve11c/master r/75a17815+; Jun 28 2022 16:32:11 by eja",
  "dcmmeta_affine": [
    [-1.9999916553497314, -0.005584902595728636, 0.0014689280651509762, 106.04106140136719],
    [-0.005774416495114565, 1.9402916431427002, -0.4850100874900818, -76.44680786132812],
    [7.07074286765419e-05, 0.4850122928619385, 1.9402997493743896, -46.17814636230469],
    [0.0, 0.0, 0.0, 1.0]
],
  "dcmmeta_reorient_transform": [
    [0.0, -1.0, 0.0, 103.0],
    [1.0, 0.0, 0.0, 0.0],
    [0.0, 0.0, 1.0, 0.0],
    [0.0, 0.0, 0.0, 1.0]
],
  "dcmmeta_shape": [104, 104, 60, 402],
  "dcmmeta_slice_dim": 2,
  "dcmmeta_version": 0.6,
  "global": {
    "const": {
      "AcquisitionMatrix": [104, 0, 0, 104],
      "AngioFlag": "N",
      "BitsAllocated": 16,
      "BitsStored": 16,
      "BodyPartExamined": "BRAIN",
      "Columns": 832,
      "EchoNumbers": 1,
      "EchoTime": 37.0,
      "EchoTrainLength": 104,
      "FlipAngle": 52.0,
      "HighBit": 15,
      "ImageOrientationPatient": [0.99999583138064, 0.00288720824739, 3.535371602e-05, -0.0027924512431, 0.97014584888757, -0.2425061527102],
      "ImagePositionPatient": [-831.42987857712, -831.77130154044, 180.29686198968],
      "ImageType": [
        "ORIGINAL",
        "PRIMARY",
        "M",
        "MB",
        "ND",
        "MOSAIC"
],
      "ImagedNucleus": "1H",
      "ImagingFrequency": 123.249716,
      "InPlanePhaseEncodingDirection": "COL",
      "MRAcquisitionType": "2D",
      "MagneticFieldStrength": 3.0,
      "Manufacturer": "SIEMENS",
      "ManufacturerModelName": "Prisma_fit",
      "Modality": "MR",
      "NumberOfAverages": 1.0,
      "NumberOfPhaseEncodingSteps": 104,
      "PercentPhaseFieldOfView": 100.0,
      "PercentSampling": 100.0,
      "PerformedProcedureStepStartTime": "150644.021000",
      "PhotometricInterpretation": "MONOCHROME2",
      "PixelBandwidth": 2290.0,
      "PixelRepresentation": 0,
      "PixelSpacing": [2.0, 2.0],
      "ProtocolName": "func_task-friends-s07e16b",
      "RepetitionTime": 1490.0,
      "Rows": 832,
      "SAR": 0.05492821550716,
      "SamplesPerPixel": 1,
      "ScanOptions": "FS",
      "ScanningSequence": "EP",
      "SequenceName": "epfid2d1_104",
      "SequenceVariant": [
        "SK",
        "SS"
],
      "SeriesDescription": "func_task-friends-s07e16b",
      "SeriesNumber": 10,
      "SeriesTime": "153143.365000",
      "SliceLocation": -26.18310327088,
      "SliceThickness": 2.0,
      "SmallestImagePixelValue": 0,
      "SoftwareVersions": "syngo MR E11",
      "SpacingBetweenSlices": 1.9999999981361,
      "SpecificCharacterSet": "ISO_IR 100",
      "StudyID": "1",
      "StudyTime": "150643.950000",
      "TransmitCoilName": "Body",
      "VariableFlipAngleFlag": "N",
      "WindowCenterWidthExplanation": "Algo1",
      "dBdt": 0.0},
    "slices": {}
  },
  "time": {
    "samples": {
      "AcquisitionNumber": [1, 2, 3, 4, 5, 6, 7, 8, 9, 10, 11, 12, 13, 14, 15, 16, 17, 18, 19, 20, 21, 22, 23, 24, 25, 26, 27, 28, 29, 30, 31, 32, 33, 34, 35, 36, 37, 38, 39, 40, 41, 42, 43, 44, 45, 46, 47, 48, 49, 50, 51, 52, 53, 54, 55, 56, 57, 58, 59, 60, 61, 62, 63, 64, 65, 66, 67, 68, 69, 70, 71, 72, 73, 74, 75, 76, 77, 78, 79, 80, 81, 82, 83, 84, 85, 86, 87, 88, 89, 90, 91, 92, 93, 94, 95, 96, 97, 98, 99, 100, 101, 102, 103, 104, 105, 106, 107, 108, 109, 110, 111, 112, 113, 114, 115, 116, 117, 118, 119, 120, 121, 122, 123, 124, 125, 126, 127, 128, 129, 130, 131, 132, 133, 134, 135, 136, 137, 138, 139, 140, 141, 142, 143, 144, 145, 146, 147, 148, 149, 150, 151, 152, 153, 154, 155, 156, 157, 158, 159, 160, 161, 162, 163, 164, 165, 166, 167, 168, 169, 170, 171, 172, 173, 174, 175, 176, 177, 178, 179, 180, 181, 182, 183, 184, 185, 186, 187, 188, 189, 190, 191, 192, 193, 194, 195, 196, 197, 198, 199, 200, 201, 202, 203, 204, 205, 206, 207, 208, 209, 210, 211, 212, 213, 214, 215, 216, 217, 218, 219, 220, 221, 222, 223, 224, 225, 226, 227, 228, 229, 230, 231, 232, 233, 234, 235, 236, 237, 238, 239, 240, 241, 242, 243, 244, 245, 246, 247, 248, 249, 250, 251, 252, 253, 254, 255, 256, 257, 258, 259, 260, 261, 262, 263, 264, 265, 266, 267, 268, 269, 270, 271, 272, 273, 274, 275, 276, 277, 278, 279, 280, 281, 282, 283, 284, 285, 286, 287, 288, 289, 290, 291, 292, 293, 294, 295, 296, 297, 298, 299, 300, 301, 302, 303, 304, 305, 306, 307, 308, 309, 310, 311, 312, 313, 314, 315, 316, 317, 318, 319, 320, 321, 322, 323, 324, 325, 326, 327, 328, 329, 330, 331, 332, 333, 334, 335, 336, 337, 338, 339, 340, 341, 342, 343, 344, 345, 346, 347, 348, 349, 350, 351, 352, 353, 354, 355, 356, 357, 358, 359, 360, 361, 362, 363, 364, 365, 366, 367, 368, 369, 370, 371, 372, 373, 374, 375, 376, 377, 378, 379, 380, 381, 382, 383, 384, 385, 386, 387, 388, 389, 390, 391, 392, 393, 394, 395, 396, 397, 398, 399, 400, 401, 402],
      "AcquisitionTime": ["153012.862500", "153014.352500", "153015.842500", "153017.332500", "153018.822500", "153020.312500", "153021.802500", "153023.292500", "153024.782500", "153026.272500", "153027.762500", "153029.252500", "153030.742500", "153032.232500", "153033.722500", "153035.212500", "153036.702500", "153038.192500", "153039.682500", "153041.172500", "153042.662500", "153044.152500", "153045.642500", "153047.132500", "153048.622500", "153050.112500", "153051.602500", "153053.092500", "153054.582500", "153056.072500", "153057.562500", "153059.052500", "153100.542500", "153102.032500", "153103.522500", "153105.012500", "153106.502500", "153107.992500", "153109.482500", "153110.972500", "153112.462500", "153113.952500", "153115.442500", "153116.932500", "153118.422500", "153119.912500", "153121.402500", "153122.892500", "153124.382500", "153125.872500", "153127.362500", "153128.852500", "153130.342500", "153131.832500", "153133.322500", "153134.812500", "153136.302500", "153137.792500", "153139.282500", "153140.772500", "153142.262500", "153143.752500", "153145.242500", "153146.732500", "153148.222500", "153149.712500", "153151.202500", "153152.692500", "153154.182500", "153155.672500", "153157.162500", "153158.652500", "153200.142500", "153201.632500", "153203.122500", "153204.612500", "153206.102500", "153207.592500", "153209.082500", "153210.572500", "153212.062500", "153213.552500", "153215.042500", "153216.532500", "153218.022500", "153219.512500", "153221.002500", "153222.492500", "153223.982500", "153225.472500", "153226.962500", "153228.452500", "153229.942500", "153231.432500", "153232.922500", "153234.412500", "153235.902500", "153237.392500", "153238.882500", "153240.372500", "153241.862500", "153243.352500", "153244.842500", "153246.332500", "153247.822500", "153249.312500", "153250.802500", "153252.292500", "153253.782500", "153255.272500", "153256.762500", "153258.252500", "153259.742500", "153301.232500", "153302.722500", "153304.212500", "153305.702500", "153307.192500", "153308.682500", "153310.172500", "153311.662500", "153313.152500", "153314.642500", "153316.132500", "153317.622500", "153319.112500", "153320.602500", "153322.092500", "153323.582500", "153325.072500", "153326.562500", "153328.052500", "153329.542500", "153331.032500", "153332.522500", "153334.012500", "153335.502500", "153336.992500", "153338.482500", "153339.972500", "153341.462500", "153342.952500", "153344.442500", "153345.932500", "153347.422500", "153348.912500", "153350.402500", "153351.892500", "153353.382500", "153354.872500", "153356.362500", "153357.852500", "153359.342500", "153400.832500", "153402.322500", "153403.812500", "153405.302500", "153406.792500", "153408.282500", "153409.772500", "153411.262500", "153412.752500", "153414.242500", "153415.732500", "153417.222500", "153418.712500", "153420.202500", "153421.692500", "153423.182500", "153424.672500", "153426.162500", "153427.652500", "153429.142500", "153430.632500", "153432.122500", "153433.612500", "153435.102500", "153436.592500", "153438.082500", "153439.572500", "153441.062500", "153442.552500", "153444.042500", "153445.532500", "153447.022500", "153448.512500", "153450.002500", "153451.492500", "153452.982500", "153454.472500", "153455.962500", "153457.452500", "153458.942500", "153500.432500", "153501.922500", "153503.412500", "153504.902500", "153506.392500", "153507.882500", "153509.372500", "153510.862500", "153512.352500", "153513.842500", "153515.332500", "153516.822500", "153518.312500", "153519.802500", "153521.292500", "153522.782500", "153524.272500", "153525.762500", "153527.252500", "153528.742500", "153530.232500", "153531.722500", "153533.212500", "153534.702500", "153536.192500", "153537.682500", "153539.172500", "153540.662500", "153542.152500", "153543.642500", "153545.132500", "153546.622500", "153548.112500", "153549.602500", "153551.092500", "153552.582500", "153554.072500", "153555.562500", "153557.052500", "153558.542500", "153600.032500", "153601.522500", "153603.012500", "153604.502500", "153605.992500", "153607.482500", "153608.972500", "153610.462500", "153611.952500", "153613.442500", "153614.932500", "153616.422500", "153617.912500", "153619.402500", "153620.892500", "153622.382500", "153623.872500", "153625.362500", "153626.852500", "153628.342500", "153629.832500", "153631.322500", "153632.812500", "153634.302500", "153635.792500", "153637.282500", "153638.772500", "153640.262500", "153641.752500", "153643.242500", "153644.732500", "153646.222500", "153647.712500", "153649.202500", "153650.692500", "153652.182500", "153653.672500", "153655.162500", "153656.652500", "153658.142500", "153659.632500", "153701.122500", "153702.612500", "153704.102500", "153705.592500", "153707.082500", "153708.572500", "153710.062500", "153711.552500", "153713.042500", "153714.532500", "153716.022500", "153717.512500", "153719.002500", "153720.492500", "153721.982500", "153723.472500", "153724.962500", "153726.452500", "153727.942500", "153729.432500", "153730.922500", "153732.412500", "153733.902500", "153735.392500", "153736.882500", "153738.372500", "153739.862500", "153741.352500", "153742.842500", "153744.332500", "153745.822500", "153747.312500", "153748.802500", "153750.292500", "153751.782500", "153753.272500", "153754.762500", "153756.252500", "153757.742500", "153759.232500", "153800.722500", "153802.212500", "153803.702500", "153805.192500", "153806.682500", "153808.172500", "153809.662500", "153811.152500", "153812.642500", "153814.132500", "153815.622500", "153817.112500", "153818.602500", "153820.092500", "153821.582500", "153823.072500", "153824.562500", "153826.052500", "153827.542500", "153829.032500", "153830.522500", "153832.012500", "153833.502500", "153834.992500", "153836.482500", "153837.972500", "153839.462500", "153840.952500", "153842.442500", "153843.932500", "153845.422500", "153846.912500", "153848.402500", "153849.892500", "153851.382500", "153852.872500", "153854.362500", "153855.852500", "153857.342500", "153858.832500", "153900.322500", "153901.812500", "153903.302500", "153904.792500", "153906.282500", "153907.772500", "153909.262500", "153910.752500", "153912.242500", "153913.732500", "153915.222500", "153916.712500", "153918.202500", "153919.692500", "153921.182500", "153922.672500", "153924.162500", "153925.652500", "153927.142500", "153928.632500", "153930.122500", "153931.612500", "153933.102500", "153934.592500", "153936.082500", "153937.572500", "153939.062500", "153940.552500", "153942.042500", "153943.532500", "153945.022500", "153946.512500", "153948.002500", "153949.492500", "153950.982500", "153952.472500", "153953.962500", "153955.452500", "153956.942500", "153958.432500", "153959.922500", "154001.412500", "154002.902500", "154004.392500", "154005.882500", "154007.372500", "154008.862500", "154010.352500"],
      "ContentTime": ["153143.368000", "153143.371000", "153143.374000", "153143.377000", "153143.380000", "153143.383000", "153143.386000", "153143.389000", "153143.392000", "153143.395000", "153143.404000", "153143.407000", "153143.409000", "153143.412000", "153143.415000", "153143.418000", "153143.421000", "153143.424000", "153143.427000", "153143.430000", "153143.433000", "153143.436000", "153143.439000", "153143.441000", "153143.444000", "153143.447000", "153143.450000", "153143.453000", "153143.456000", "153143.459000", "153143.462000", "153143.465000", "153143.467000", "153143.470000", "153143.473000", "153143.476000", "153143.479000", "153143.482000", "153143.493000", "153203.328000", "153203.331000", "153203.334000", "153203.337000", "153203.339000", "153203.347000", "153203.350000", "153203.353000", "153203.356000", "153203.359000", "153203.362000", "153203.365000", "153203.367000", "153203.370000", "153203.373000", "153203.376000", "153203.379000", "153203.382000", "153203.385000", "153203.388000", "153223.328000", "153223.331000", "153223.334000", "153223.337000", "153223.340000", "153223.343000", "153223.345000", "153223.348000", "153223.351000", "153223.354000", "153223.357000", "153223.360000", "153223.363000", "153223.366000", "153223.368000", "153223.371000", "153223.374000", "153223.377000", "153223.380000", "153223.383000", "153243.328000", "153243.331000", "153243.334000", "153243.337000", "153243.339000", "153243.342000", "153243.345000", "153243.348000", "153243.351000", "153243.354000", "153243.357000", "153243.360000", "153243.363000", "153243.365000", "153243.368000", "153243.371000", "153243.374000", "153243.377000", "153243.380000", "153243.383000", "153243.385000", "153323.328000", "153323.331000", "153323.334000", "153323.337000", "153323.340000", "153323.343000", "153323.345000", "153323.348000", "153323.351000", "153323.354000", "153323.357000", "153323.360000", "153323.363000", "153323.366000", "153323.369000", "153323.371000", "153323.374000", "153323.377000", "153323.380000", "153323.383000", "153323.386000", "153323.389000", "153323.392000", "153323.394000", "153323.397000", "153323.400000", "153323.403000", "153403.328000", "153403.331000", "153403.334000", "153403.337000", "153403.340000", "153403.342000", "153403.345000", "153403.348000", "153403.351000", "153403.354000", "153403.357000", "153403.360000", "153403.362000", "153403.365000", "153403.368000", "153403.371000", "153403.374000", "153403.377000", "153403.380000", "153403.383000", "153403.386000", "153403.389000", "153403.391000", "153403.394000", "153403.397000", "153403.400000", "153403.403000", "153443.328000", "153443.331000", "153443.334000", "153443.344000", "153443.347000", "153443.350000", "153443.353000", "153443.356000", "153443.359000", "153443.361000", "153443.364000", "153443.367000", "153443.370000", "153443.373000", "153443.376000", "153443.379000", "153443.382000", "153443.385000", "153443.387000", "153443.390000", "153443.393000", "153443.396000", "153443.399000", "153443.402000", "153443.405000", "153443.408000", "153443.410000", "153523.328000", "153523.331000", "153523.334000", "153523.337000", "153523.340000", "153523.343000", "153523.345000", "153523.348000", "153523.351000", "153523.354000", "153523.357000", "153523.360000", "153523.363000", "153523.366000", "153523.369000", "153523.372000", "153523.374000", "153523.377000", "153523.380000", "153523.383000", "153523.386000", "153523.389000", "153523.392000", "153523.394000", "153523.397000", "153523.400000", "153523.403000", "153603.328000", "153603.331000", "153603.334000", "153603.337000", "153603.340000", "153603.342000", "153603.345000", "153603.348000", "153603.351000", "153603.354000", "153603.357000", "153603.360000", "153603.363000", "153603.366000", "153603.369000", "153603.372000", "153603.375000", "153603.377000", "153603.380000", "153603.383000", "153603.386000", "153603.389000", "153603.392000", "153603.395000", "153603.398000", "153603.401000", "153603.424000", "153643.328000", "153643.331000", "153643.334000", "153643.337000", "153643.340000", "153643.343000", "153643.346000", "153643.348000", "153643.351000", "153643.356000", "153643.359000", "153643.362000", "153643.365000", "153643.368000", "153643.370000", "153643.373000", "153643.376000", "153643.379000", "153643.382000", "153643.385000", "153643.388000", "153643.391000", "153643.393000", "153643.396000", "153643.399000", "153643.402000", "153723.328000", "153723.331000", "153723.334000", "153723.337000", "153723.340000", "153723.343000", "153723.345000", "153723.348000", "153723.351000", "153723.354000", "153723.357000", "153723.360000", "153723.363000", "153723.366000", "153723.368000", "153723.371000", "153723.374000", "153723.377000", "153723.380000", "153723.383000", "153723.386000", "153723.389000", "153723.392000", "153723.394000", "153723.397000", "153723.400000", "153723.403000", "153803.328000", "153803.331000", "153803.334000", "153803.337000", "153803.340000", "153803.343000", "153803.346000", "153803.348000", "153803.351000", "153803.354000", "153803.357000", "153803.360000", "153803.363000", "153803.366000", "153803.369000", "153803.372000", "153803.375000", "153803.378000", "153803.381000", "153803.384000", "153803.387000", "153803.389000", "153803.392000", "153803.395000", "153803.398000", "153803.401000", "153803.404000", "153843.328000", "153843.331000", "153843.334000", "153843.337000", "153843.340000", "153843.343000", "153843.346000", "153843.348000", "153843.351000", "153843.354000", "153843.357000", "153843.360000", "153843.363000", "153843.366000", "153843.369000", "153843.372000", "153843.375000", "153843.377000", "153843.380000", "153843.383000", "153843.386000", "153843.389000", "153843.392000", "153843.395000", "153843.398000", "153843.401000", "153843.404000", "153923.328000", "153923.331000", "153923.334000", "153923.337000", "153923.340000", "153923.343000", "153923.346000", "153923.348000", "153923.351000", "153923.354000", "153923.357000", "153923.360000", "153923.363000", "153923.366000", "153923.369000", "153923.372000", "153923.375000", "153923.377000", "153923.380000", "153923.383000", "153923.386000", "153923.389000", "153923.392000", "153923.395000", "153923.398000", "153923.401000", "153923.404000", "154003.328000", "154003.331000", "154003.334000", "154003.337000", "154003.340000", "154003.342000", "154003.345000", "154003.348000", "154003.351000", "154003.354000", "154003.357000", "154003.360000", "154003.363000", "154003.366000", "154003.369000", "154003.371000", "154003.374000", "154003.377000", "154003.380000", "154003.389000", "154003.392000", "154003.394000", "154003.397000", "154003.400000", "154003.403000", "154003.406000", "154003.409000", "154012.127000", "154012.131000", "154012.133000", "154012.136000", "154012.139000", "154012.142000"],
      "InstanceCreationTime": ["153143.368000", "153143.371000", "153143.374000", "153143.377000", "153143.380000", "153143.383000", "153143.386000", "153143.389000", "153143.392000", "153143.395000", "153143.404000", "153143.407000", "153143.409000", "153143.412000", "153143.415000", "153143.418000", "153143.421000", "153143.424000", "153143.427000", "153143.430000", "153143.433000", "153143.436000", "153143.439000", "153143.441000", "153143.444000", "153143.447000", "153143.450000", "153143.453000", "153143.456000", "153143.459000", "153143.462000", "153143.465000", "153143.467000", "153143.470000", "153143.473000", "153143.476000", "153143.479000", "153143.482000", "153143.493000", "153203.328000", "153203.331000", "153203.334000", "153203.337000", "153203.339000", "153203.347000", "153203.350000", "153203.353000", "153203.356000", "153203.359000", "153203.362000", "153203.365000", "153203.367000", "153203.370000", "153203.373000", "153203.376000", "153203.379000", "153203.382000", "153203.385000", "153203.388000", "153223.328000", "153223.331000", "153223.334000", "153223.337000", "153223.340000", "153223.343000", "153223.345000", "153223.348000", "153223.351000", "153223.354000", "153223.357000", "153223.360000", "153223.363000", "153223.366000", "153223.368000", "153223.371000", "153223.374000", "153223.377000", "153223.380000", "153223.383000", "153243.328000", "153243.331000", "153243.334000", "153243.337000", "153243.339000", "153243.342000", "153243.345000", "153243.348000", "153243.351000", "153243.354000", "153243.357000", "153243.360000", "153243.363000", "153243.365000", "153243.368000", "153243.371000", "153243.374000", "153243.377000", "153243.380000", "153243.383000", "153243.385000", "153323.328000", "153323.331000", "153323.334000", "153323.337000", "153323.340000", "153323.343000", "153323.345000", "153323.348000", "153323.351000", "153323.354000", "153323.357000", "153323.360000", "153323.363000", "153323.366000", "153323.369000", "153323.371000", "153323.374000", "153323.377000", "153323.380000", "153323.383000", "153323.386000", "153323.389000", "153323.392000", "153323.394000", "153323.397000", "153323.400000", "153323.403000", "153403.328000", "153403.331000", "153403.334000", "153403.337000", "153403.340000", "153403.342000", "153403.345000", "153403.348000", "153403.351000", "153403.354000", "153403.357000", "153403.360000", "153403.362000", "153403.365000", "153403.368000", "153403.371000", "153403.374000", "153403.377000", "153403.380000", "153403.383000", "153403.386000", "153403.389000", "153403.391000", "153403.394000", "153403.397000", "153403.400000", "153403.403000", "153443.328000", "153443.331000", "153443.334000", "153443.344000", "153443.347000", "153443.350000", "153443.353000", "153443.356000", "153443.359000", "153443.361000", "153443.364000", "153443.367000", "153443.370000", "153443.373000", "153443.376000", "153443.379000", "153443.382000", "153443.385000", "153443.387000", "153443.390000", "153443.393000", "153443.396000", "153443.399000", "153443.402000", "153443.405000", "153443.408000", "153443.410000", "153523.328000", "153523.331000", "153523.334000", "153523.337000", "153523.340000", "153523.343000", "153523.345000", "153523.348000", "153523.351000", "153523.354000", "153523.357000", "153523.360000", "153523.363000", "153523.366000", "153523.369000", "153523.372000", "153523.374000", "153523.377000", "153523.380000", "153523.383000", "153523.386000", "153523.389000", "153523.392000", "153523.394000", "153523.397000", "153523.400000", "153523.403000", "153603.328000", "153603.331000", "153603.334000", "153603.337000", "153603.340000", "153603.342000", "153603.345000", "153603.348000", "153603.351000", "153603.354000", "153603.357000", "153603.360000", "153603.363000", "153603.366000", "153603.369000", "153603.372000", "153603.375000", "153603.377000", "153603.380000", "153603.383000", "153603.386000", "153603.389000", "153603.392000", "153603.395000", "153603.398000", "153603.401000", "153603.424000", "153643.328000", "153643.331000", "153643.334000", "153643.337000", "153643.340000", "153643.343000", "153643.346000", "153643.348000", "153643.351000", "153643.356000", "153643.359000", "153643.362000", "153643.365000", "153643.368000", "153643.370000", "153643.373000", "153643.376000", "153643.379000", "153643.382000", "153643.385000", "153643.388000", "153643.391000", "153643.393000", "153643.396000", "153643.399000", "153643.402000", "153723.328000", "153723.331000", "153723.334000", "153723.337000", "153723.340000", "153723.343000", "153723.345000", "153723.348000", "153723.351000", "153723.354000", "153723.357000", "153723.360000", "153723.363000", "153723.366000", "153723.368000", "153723.371000", "153723.374000", "153723.377000", "153723.380000", "153723.383000", "153723.386000", "153723.389000", "153723.392000", "153723.394000", "153723.397000", "153723.400000", "153723.403000", "153803.328000", "153803.331000", "153803.334000", "153803.337000", "153803.340000", "153803.343000", "153803.346000", "153803.348000", "153803.351000", "153803.354000", "153803.357000", "153803.360000", "153803.363000", "153803.366000", "153803.369000", "153803.372000", "153803.375000", "153803.378000", "153803.381000", "153803.384000", "153803.387000", "153803.389000", "153803.392000", "153803.395000", "153803.398000", "153803.401000", "153803.404000", "153843.328000", "153843.331000", "153843.334000", "153843.337000", "153843.340000", "153843.343000", "153843.346000", "153843.348000", "153843.351000", "153843.354000", "153843.357000", "153843.360000", "153843.363000", "153843.366000", "153843.369000", "153843.372000", "153843.375000", "153843.377000", "153843.380000", "153843.383000", "153843.386000", "153843.389000", "153843.392000", "153843.395000", "153843.398000", "153843.401000", "153843.404000", "153923.328000", "153923.331000", "153923.334000", "153923.337000", "153923.340000", "153923.343000", "153923.346000", "153923.348000", "153923.351000", "153923.354000", "153923.357000", "153923.360000", "153923.363000", "153923.366000", "153923.369000", "153923.372000", "153923.375000", "153923.377000", "153923.380000", "153923.383000", "153923.386000", "153923.389000", "153923.392000", "153923.395000", "153923.398000", "153923.401000", "153923.404000", "154003.328000", "154003.331000", "154003.334000", "154003.337000", "154003.340000", "154003.342000", "154003.345000", "154003.348000", "154003.351000", "154003.354000", "154003.357000", "154003.360000", "154003.363000", "154003.366000", "154003.369000", "154003.371000", "154003.374000", "154003.377000", "154003.380000", "154003.389000", "154003.392000", "154003.394000", "154003.397000", "154003.400000", "154003.403000", "154003.406000", "154003.409000", "154012.127000", "154012.131000", "154012.133000", "154012.136000", "154012.139000", "154012.142000"],
