{
  "AcquisitionMatrixPE": 104,
  "AcquisitionNumber": 1,
  "AcquisitionTime": "15:54:14.675000",
  "BandwidthPerPixelPhaseEncode": 17.17,
  "BaseResolution": 104,
  "BodyPartExamined": "BRAIN",
  "CoilCombinationMethod": "Sum of Squares",
  "ConsistencyInfo": "N4_VE11C_LATEST_20160120",
  "ConversionSoftware": "dcm2niix",
  "ConversionSoftwareVersion": "v1.0.20230411",
  "DerivedVendorReportedEchoSpacing": 0.000560011,
  "DeviceSerialNumber": "167006",
  "DwellTime": 2.1e-06,
  "EchoTime": 0.037,
  "EchoTrainLength": 104,
  "EffectiveEchoSpacing": 0.000560011,
  "FlipAngle": 52,
  "HeudiconvVersion": "0.5.3.post861+ge7d3c7f",
  "ImageComments": "Unaliased MB4/PE3/LB",
  "ImageOrientationPatientDICOM": [0.999996, 0.00288721, 3.53537e-05, -0.00279245, 0.970146, -0.242506],
  "ImageOrientationText": "Tra>Cor(-14.0)>Sag(0.0)",
  "ImageType": [
    "ORIGINAL",
    "PRIMARY",
    "M",
    "MB",
    "ND",
    "MOSAIC"
],
  "ImagingFrequency": 123.249728,
  "InPlanePhaseEncodingDirectionDICOM": "COL",
  "InstitutionAddress": "Chemin Queen-Mary 4565,Montreal,District,CA,H3W 1W5",
  "InstitutionName": "Institut Universitaire de Geriatrie de Montreal",
  "InstitutionalDepartmentName": "Department",
  "MRAcquisitionType": "2D",
  "MagneticFieldStrength": 3,
  "Manufacturer": "Siemens",
  "ManufacturersModelName": "Prisma_fit",
  "MatrixCoilMode": "SENSE",
  "Modality": "MR",
  "MultibandAccelerationFactor": 4,
  "NonlinearGradientCorrection": false,
  "PartialFourier": 1,
  "PatientPosition": "HFS",
  "PercentPhaseFOV": 100,
  "PercentSampling": 100,
  "PhaseEncodingDirection": "j",
  "PhaseEncodingSteps": 104,
  "PhaseResolution": 1,
  "PixelBandwidth": 2290,
  "ProcedureStepDescription": "video^friends",
  "ProtocolName": "func_task-friends-s07e17a",
  "PulseSequenceDetails": "%CustomerSeq%\\cmrr_mbep2d_bold",
  "ReceiveCoilActiveElements": "HC1-7;NC1,2",
  "ReceiveCoilName": "HeadNeck_64",
  "ReconMatrixPE": 104,
  "RepetitionTime": 1.49,
  "SAR": 0.0549282,
  "ScanOptions": "FS",
  "ScanningSequence": "EP",
  "SequenceName": "epfid2d1_104",
  "SequenceVariant": "SK\\SS",
  "SeriesDescription": "func_task-friends-s07e17a",
  "SeriesNumber": 14,
  "ShimSetting": [612, -7242, -8766, 651, 46, -36, 17, 48],
  "SliceThickness": 2,
  "SliceTiming": [0, 0.7825, 0.0975, 0.8825, 0.195, 0.98, 0.2925, 1.0775, 0.3925, 1.175, 0.49, 1.2725, 0.5875, 1.3725, 0.685, 0, 0.7825, 0.0975, 0.8825, 0.195, 0.98, 0.2925, 1.0775, 0.3925, 1.175, 0.49, 1.2725, 0.5875, 1.3725, 0.685, 0, 0.7825, 0.0975, 0.8825, 0.195, 0.98, 0.2925, 1.0775, 0.3925, 1.175, 0.49, 1.2725, 0.5875, 1.3725, 0.685, 0, 0.7825, 0.0975, 0.8825, 0.195, 0.98, 0.2925, 1.0775, 0.3925, 1.175, 0.49, 1.2725, 0.5875, 1.3725, 0.685],
  "SoftwareVersions": "syngo MR E11",
  "SpacingBetweenSlices": 2,
  "StationName": "MRC35049",
  "TaskName": "s07e17a",
  "TotalReadoutTime": 0.0576811,
  "TxRefAmp": 227.547,
  "WipMemBlock": "4551ea16-a2b6-4532-bc79-763ed9423fcb||Sequence: R017 ve11c/master r/75a17815+; Jun 28 2022 16:32:11 by eja",
  "dcmmeta_affine": [
    [-1.9999916553497314, -0.005584902595728636, 0.0014689280651509762, 106.04106140136719],
    [-0.005774416495114565, 1.9402916431427002, -0.4850100874900818, -76.44680786132812],
    [7.07074286765419e-05, 0.4850122928619385, 1.9402997493743896, -46.17814636230469],
    [0.0, 0.0, 0.0, 1.0]
],
  "dcmmeta_reorient_transform": [
    [0.0, -1.0, 0.0, 103.0],
    [1.0, 0.0, 0.0, 0.0],
    [0.0, 0.0, 1.0, 0.0],
    [0.0, 0.0, 0.0, 1.0]
],
  "dcmmeta_shape": [104, 104, 60, 433],
  "dcmmeta_slice_dim": 2,
  "dcmmeta_version": 0.6,
  "global": {
    "const": {
      "AcquisitionMatrix": [104, 0, 0, 104],
      "AngioFlag": "N",
      "BitsAllocated": 16,
      "BitsStored": 16,
      "BodyPartExamined": "BRAIN",
      "Columns": 832,
      "EchoNumbers": 1,
      "EchoTime": 37.0,
      "EchoTrainLength": 104,
      "FlipAngle": 52.0,
      "HighBit": 15,
      "ImageOrientationPatient": [0.99999583138064, 0.00288720824739, 3.535371602e-05, -0.0027924512431, 0.97014584888757, -0.2425061527102],
      "ImagePositionPatient": [-831.42987857712, -831.77130154044, 180.29686198968],
      "ImageType": [
        "ORIGINAL",
        "PRIMARY",
        "M",
        "MB",
        "ND",
        "MOSAIC"
],
      "ImagedNucleus": "1H",
      "ImagingFrequency": 123.249728,
      "InPlanePhaseEncodingDirection": "COL",
      "MRAcquisitionType": "2D",
      "MagneticFieldStrength": 3.0,
      "Manufacturer": "SIEMENS",
      "ManufacturerModelName": "Prisma_fit",
      "Modality": "MR",
      "NumberOfAverages": 1.0,
      "NumberOfPhaseEncodingSteps": 104,
      "PercentPhaseFieldOfView": 100.0,
      "PercentSampling": 100.0,
      "PerformedProcedureStepStartTime": "150644.021000",
      "PhotometricInterpretation": "MONOCHROME2",
      "PixelBandwidth": 2290.0,
      "PixelRepresentation": 0,
      "PixelSpacing": [2.0, 2.0],
      "ProtocolName": "func_task-friends-s07e17a",
      "RepetitionTime": 1490.0,
      "Rows": 832,
      "SAR": 0.0549282135697,
      "SamplesPerPixel": 1,
      "ScanOptions": "FS",
      "ScanningSequence": "EP",
      "SequenceName": "epfid2d1_104",
      "SequenceVariant": [
        "SK",
        "SS"
],
      "SeriesDescription": "func_task-friends-s07e17a",
      "SeriesNumber": 14,
      "SeriesTime": "155511.022000",
      "SliceLocation": -26.18310327088,
      "SliceThickness": 2.0,
      "SmallestImagePixelValue": 0,
      "SoftwareVersions": "syngo MR E11",
      "SpacingBetweenSlices": 1.9999999981361,
      "SpecificCharacterSet": "ISO_IR 100",
      "StudyID": "1",
      "StudyTime": "150643.950000",
      "TransmitCoilName": "Body",
      "VariableFlipAngleFlag": "N",
      "WindowCenterWidthExplanation": "Algo1",
      "dBdt": 0.0},
    "slices": {}
  },
  "time": {
    "samples": {
      "AcquisitionNumber": [1, 2, 3, 4, 5, 6, 7, 8, 9, 10, 11, 12, 13, 14, 15, 16, 17, 18, 19, 20, 21, 22, 23, 24, 25, 26, 27, 28, 29, 30, 31, 32, 33, 34, 35, 36, 37, 38, 39, 40, 41, 42, 43, 44, 45, 46, 47, 48, 49, 50, 51, 52, 53, 54, 55, 56, 57, 58, 59, 60, 61, 62, 63, 64, 65, 66, 67, 68, 69, 70, 71, 72, 73, 74, 75, 76, 77, 78, 79, 80, 81, 82, 83, 84, 85, 86, 87, 88, 89, 90, 91, 92, 93, 94, 95, 96, 97, 98, 99, 100, 101, 102, 103, 104, 105, 106, 107, 108, 109, 110, 111, 112, 113, 114, 115, 116, 117, 118, 119, 120, 121, 122, 123, 124, 125, 126, 127, 128, 129, 130, 131, 132, 133, 134, 135, 136, 137, 138, 139, 140, 141, 142, 143, 144, 145, 146, 147, 148, 149, 150, 151, 152, 153, 154, 155, 156, 157, 158, 159, 160, 161, 162, 163, 164, 165, 166, 167, 168, 169, 170, 171, 172, 173, 174, 175, 176, 177, 178, 179, 180, 181, 182, 183, 184, 185, 186, 187, 188, 189, 190, 191, 192, 193, 194, 195, 196, 197, 198, 199, 200, 201, 202, 203, 204, 205, 206, 207, 208, 209, 210, 211, 212, 213, 214, 215, 216, 217, 218, 219, 220, 221, 222, 223, 224, 225, 226, 227, 228, 229, 230, 231, 232, 233, 234, 235, 236, 237, 238, 239, 240, 241, 242, 243, 244, 245, 246, 247, 248, 249, 250, 251, 252, 253, 254, 255, 256, 257, 258, 259, 260, 261, 262, 263, 264, 265, 266, 267, 268, 269, 270, 271, 272, 273, 274, 275, 276, 277, 278, 279, 280, 281, 282, 283, 284, 285, 286, 287, 288, 289, 290, 291, 292, 293, 294, 295, 296, 297, 298, 299, 300, 301, 302, 303, 304, 305, 306, 307, 308, 309, 310, 311, 312, 313, 314, 315, 316, 317, 318, 319, 320, 321, 322, 323, 324, 325, 326, 327, 328, 329, 330, 331, 332, 333, 334, 335, 336, 337, 338, 339, 340, 341, 342, 343, 344, 345, 346, 347, 348, 349, 350, 351, 352, 353, 354, 355, 356, 357, 358, 359, 360, 361, 362, 363, 364, 365, 366, 367, 368, 369, 370, 371, 372, 373, 374, 375, 376, 377, 378, 379, 380, 381, 382, 383, 384, 385, 386, 387, 388, 389, 390, 391, 392, 393, 394, 395, 396, 397, 398, 399, 400, 401, 402, 403, 404, 405, 406, 407, 408, 409, 410, 411, 412, 413, 414, 415, 416, 417, 418, 419, 420, 421, 422, 423, 424, 425, 426, 427, 428, 429, 430, 431, 432, 433],
      "AcquisitionTime": ["155414.675000", "155416.165000", "155417.655000", "155419.145000", "155420.635000", "155422.125000", "155423.615000", "155425.105000", "155426.595000", "155428.085000", "155429.575000", "155431.065000", "155432.555000", "155434.045000", "155435.535000", "155437.025000", "155438.515000", "155440.005000", "155441.495000", "155442.985000", "155444.475000", "155445.965000", "155447.455000", "155448.945000", "155450.435000", "155451.925000", "155453.415000", "155454.905000", "155456.395000", "155457.885000", "155459.375000", "155500.865000", "155502.355000", "155503.845000", "155505.335000", "155506.825000", "155508.315000", "155509.805000", "155511.295000", "155512.785000", "155514.275000", "155515.765000", "155517.255000", "155518.745000", "155520.235000", "155521.725000", "155523.215000", "155524.705000", "155526.195000", "155527.685000", "155529.175000", "155530.665000", "155532.155000", "155533.645000", "155535.135000", "155536.625000", "155538.115000", "155539.605000", "155541.095000", "155542.585000", "155544.075000", "155545.565000", "155547.055000", "155548.545000", "155550.035000", "155551.525000", "155553.015000", "155554.505000", "155555.995000", "155557.485000", "155558.975000", "155600.465000", "155601.955000", "155603.445000", "155604.935000", "155606.425000", "155607.915000", "155609.405000", "155610.895000", "155612.385000", "155613.875000", "155615.365000", "155616.855000", "155618.345000", "155619.835000", "155621.325000", "155622.815000", "155624.305000", "155625.795000", "155627.285000", "155628.775000", "155630.265000", "155631.755000", "155633.245000", "155634.735000", "155636.225000", "155637.715000", "155639.205000", "155640.695000", "155642.185000", "155643.675000", "155645.165000", "155646.655000", "155648.145000", "155649.635000", "155651.125000", "155652.615000", "155654.105000", "155655.595000", "155657.085000", "155658.575000", "155700.065000", "155701.555000", "155703.045000", "155704.535000", "155706.025000", "155707.515000", "155709.005000", "155710.495000", "155711.985000", "155713.475000", "155714.965000", "155716.455000", "155717.945000", "155719.435000", "155720.925000", "155722.415000", "155723.905000", "155725.395000", "155726.885000", "155728.375000", "155729.865000", "155731.355000", "155732.845000", "155734.335000", "155735.825000", "155737.315000", "155738.805000", "155740.295000", "155741.785000", "155743.275000", "155744.765000", "155746.255000", "155747.745000", "155749.235000", "155750.725000", "155752.215000", "155753.705000", "155755.195000", "155756.685000", "155758.175000", "155759.665000", "155801.155000", "155802.645000", "155804.135000", "155805.625000", "155807.115000", "155808.605000", "155810.095000", "155811.585000", "155813.075000", "155814.565000", "155816.055000", "155817.545000", "155819.035000", "155820.525000", "155822.015000", "155823.505000", "155824.995000", "155826.485000", "155827.975000", "155829.465000", "155830.955000", "155832.445000", "155833.935000", "155835.425000", "155836.915000", "155838.405000", "155839.895000", "155841.385000", "155842.875000", "155844.365000", "155845.855000", "155847.345000", "155848.835000", "155850.325000", "155851.815000", "155853.305000", "155854.795000", "155856.285000", "155857.775000", "155859.265000", "155900.755000", "155902.245000", "155903.735000", "155905.225000", "155906.715000", "155908.205000", "155909.695000", "155911.185000", "155912.675000", "155914.165000", "155915.655000", "155917.145000", "155918.635000", "155920.125000", "155921.615000", "155923.105000", "155924.595000", "155926.085000", "155927.575000", "155929.065000", "155930.555000", "155932.045000", "155933.535000", "155935.025000", "155936.515000", "155938.005000", "155939.495000", "155940.985000", "155942.475000", "155943.965000", "155945.455000", "155946.945000", "155948.435000", "155949.925000", "155951.415000", "155952.905000", "155954.395000", "155955.885000", "155957.375000", "155958.865000", "160000.355000", "160001.845000", "160003.335000", "160004.825000", "160006.315000", "160007.805000", "160009.295000", "160010.785000", "160012.275000", "160013.765000", "160015.255000", "160016.745000", "160018.235000", "160019.725000", "160021.215000", "160022.705000", "160024.195000", "160025.685000", "160027.175000", "160028.665000", "160030.155000", "160031.645000", "160033.135000", "160034.625000", "160036.115000", "160037.605000", "160039.095000", "160040.585000", "160042.075000", "160043.565000", "160045.055000", "160046.545000", "160048.035000", "160049.525000", "160051.015000", "160052.505000", "160053.995000", "160055.485000", "160056.975000", "160058.465000", "160059.955000", "160101.445000", "160102.935000", "160104.425000", "160105.915000", "160107.405000", "160108.895000", "160110.385000", "160111.875000", "160113.365000", "160114.855000", "160116.345000", "160117.835000", "160119.325000", "160120.815000", "160122.305000", "160123.795000", "160125.285000", "160126.775000", "160128.265000", "160129.755000", "160131.245000", "160132.735000", "160134.225000", "160135.715000", "160137.205000", "160138.695000", "160140.185000", "160141.675000", "160143.165000", "160144.655000", "160146.145000", "160147.635000", "160149.125000", "160150.615000", "160152.105000", "160153.595000", "160155.085000", "160156.575000", "160158.065000", "160159.555000", "160201.045000", "160202.535000", "160204.025000", "160205.515000", "160207.005000", "160208.495000", "160209.985000", "160211.475000", "160212.965000", "160214.455000", "160215.945000", "160217.435000", "160218.925000", "160220.415000", "160221.905000", "160223.395000", "160224.885000", "160226.375000", "160227.865000", "160229.355000", "160230.845000", "160232.335000", "160233.825000", "160235.315000", "160236.805000", "160238.295000", "160239.785000", "160241.275000", "160242.765000", "160244.255000", "160245.745000", "160247.235000", "160248.725000", "160250.215000", "160251.705000", "160253.195000", "160254.685000", "160256.175000", "160257.665000", "160259.155000", "160300.645000", "160302.135000", "160303.625000", "160305.115000", "160306.605000", "160308.095000", "160309.585000", "160311.075000", "160312.565000", "160314.055000", "160315.545000", "160317.035000", "160318.525000", "160320.015000", "160321.505000", "160322.995000", "160324.485000", "160325.975000", "160327.465000", "160328.955000", "160330.445000", "160331.935000", "160333.425000", "160334.915000", "160336.405000", "160337.895000", "160339.385000", "160340.875000", "160342.365000", "160343.855000", "160345.345000", "160346.835000", "160348.325000", "160349.815000", "160351.305000", "160352.795000", "160354.285000", "160355.775000", "160357.265000", "160358.755000", "160400.245000", "160401.735000", "160403.225000", "160404.715000", "160406.205000", "160407.695000", "160409.185000", "160410.675000", "160412.165000", "160413.655000", "160415.145000", "160416.635000", "160418.125000", "160419.615000", "160421.105000", "160422.595000", "160424.085000", "160425.575000", "160427.065000", "160428.555000", "160430.045000", "160431.535000", "160433.025000", "160434.515000", "160436.005000", "160437.495000", "160438.985000", "160440.475000", "160441.965000", "160443.455000", "160444.945000", "160446.435000", "160447.925000", "160449.415000", "160450.905000", "160452.395000", "160453.885000", "160455.375000", "160456.865000", "160458.355000"],
      "ContentTime": ["155511.025000", "155511.028000", "155511.031000", "155511.034000", "155511.037000", "155511.040000", "155530.998000", "155531.002000", "155531.005000", "155531.008000", "155531.011000", "155531.014000", "155531.017000", "155531.019000", "155531.022000", "155531.025000", "155531.028000", "155531.035000", "155531.038000", "155531.041000", "155531.044000", "155531.047000", "155531.050000", "155531.053000", "155531.056000", "155531.060000", "155550.998000", "155551.002000", "155551.005000", "155551.008000", "155551.011000", "155551.013000", "155551.016000", "155551.019000", "155551.022000", "155551.030000", "155551.033000", "155551.036000", "155551.039000", "155551.042000", "155551.045000", "155551.048000", "155551.050000", "155551.053000", "155551.056000", "155551.059000", "155551.062000", "155610.998000", "155611.002000", "155611.005000", "155611.008000", "155611.011000", "155611.014000", "155611.017000", "155611.019000", "155611.022000", "155611.025000", "155611.028000", "155611.031000", "155611.034000", "155611.038000", "155611.041000", "155611.044000", "155611.047000", "155611.050000", "155611.052000", "155611.055000", "155630.997000", "155631.001000", "155631.004000", "155631.007000", "155631.010000", "155631.013000", "155631.016000", "155631.019000", "155631.022000", "155631.024000", "155631.027000", "155631.030000", "155631.033000", "155631.036000", "155631.039000", "155631.042000", "155631.045000", "155631.048000", "155631.051000", "155631.054000", "155710.998000", "155711.009000", "155711.012000", "155711.015000", "155711.018000", "155711.021000", "155711.024000", "155711.027000", "155711.030000", "155711.033000", "155711.036000", "155711.038000", "155711.041000", "155711.044000", "155711.047000", "155711.050000", "155711.053000", "155711.056000", "155711.059000", "155711.062000", "155711.065000", "155711.068000", "155711.071000", "155711.073000", "155711.076000", "155711.079000", "155711.082000", "155711.085000", "155711.088000", "155711.091000", "155750.998000", "155751.002000", "155751.005000", "155751.008000", "155751.011000", "155751.014000", "155751.017000", "155751.020000", "155751.023000", "155751.025000", "155751.028000", "155751.031000", "155751.047000", "155751.050000", "155751.053000", "155751.056000", "155751.058000", "155751.061000", "155751.064000", "155751.067000", "155751.070000", "155751.073000", "155751.076000", "155751.079000", "155751.081000", "155751.084000", "155751.087000", "155830.998000", "155831.002000", "155831.005000", "155831.008000", "155831.011000", "155831.014000", "155831.017000", "155831.019000", "155831.022000", "155831.025000", "155831.028000", "155831.031000", "155831.034000", "155831.037000", "155831.040000", "155831.050000", "155831.053000", "155831.056000", "155831.059000", "155831.062000", "155831.065000", "155831.068000", "155831.071000", "155831.073000", "155831.076000", "155831.079000", "155831.082000", "155910.998000", "155911.002000", "155911.005000", "155911.008000", "155911.011000", "155911.014000", "155911.016000", "155911.019000", "155911.022000", "155911.025000", "155911.028000", "155911.031000", "155911.034000", "155911.037000", "155911.040000", "155911.043000", "155911.046000", "155911.049000", "155911.051000", "155911.054000", "155911.057000", "155911.060000", "155911.063000", "155911.066000", "155911.069000", "155911.072000", "155911.075000", "155950.998000", "155951.002000", "155951.005000", "155951.008000", "155951.011000", "155951.014000", "155951.017000", "155951.020000", "155951.023000", "155951.026000", "155951.029000", "155951.032000", "155951.034000", "155951.037000", "155951.040000", "155951.043000", "155951.046000", "155951.049000", "155951.052000", "155951.055000", "155951.058000", "155951.061000", "155951.063000", "155951.066000", "155951.069000", "155951.072000", "155951.075000", "160030.998000", "160031.002000", "160031.005000", "160031.008000", "160031.011000", "160031.014000", "160031.017000", "160031.019000", "160031.022000", "160031.025000", "160031.028000", "160031.031000", "160031.034000", "160031.037000", "160031.040000", "160031.043000", "160031.046000", "160031.048000", "160031.051000", "160031.054000", "160031.057000", "160031.060000", "160031.063000", "160031.066000", "160031.069000", "160031.079000", "160031.082000", "160110.997000", "160111.001000", "160111.004000", "160111.007000", "160111.010000", "160111.013000", "160111.016000", "160111.019000", "160111.022000", "160111.026000", "160111.029000", "160111.031000", "160111.034000", "160111.037000", "160111.040000", "160111.043000", "160111.046000", "160111.049000", "160111.052000", "160111.055000", "160111.058000", "160111.061000", "160111.064000", "160111.067000", "160111.069000", "160111.073000", "160150.998000", "160151.002000", "160151.005000", "160151.008000", "160151.011000", "160151.014000", "160151.017000", "160151.020000", "160151.023000", "160151.026000", "160151.029000", "160151.032000", "160151.035000", "160151.038000", "160151.041000", "160151.043000", "160151.046000", "160151.049000", "160151.052000", "160151.055000", "160151.058000", "160151.061000", "160151.064000", "160151.067000", "160151.069000", "160151.072000", "160151.075000", "160230.998000", "160231.002000", "160231.005000", "160231.008000", "160231.011000", "160231.014000", "160231.017000", "160231.020000", "160231.036000", "160231.039000", "160231.042000", "160231.045000", "160231.048000", "160231.050000", "160231.054000", "160231.056000", "160231.059000", "160231.062000", "160231.065000", "160231.068000", "160231.071000", "160231.074000", "160231.077000", "160231.080000", "160231.083000", "160231.086000", "160231.089000", "160250.998000", "160251.002000", "160251.005000", "160251.008000", "160251.011000", "160251.025000", "160251.028000", "160251.031000", "160251.034000", "160251.037000", "160251.040000", "160251.043000", "160251.046000", "160251.049000", "160330.997000", "160331.001000", "160331.004000", "160331.007000", "160331.010000", "160331.013000", "160331.016000", "160331.019000", "160331.022000", "160331.025000", "160331.028000", "160331.031000", "160331.034000", "160331.037000", "160331.040000", "160331.043000", "160331.046000", "160331.049000", "160331.052000", "160331.055000", "160331.058000", "160331.061000", "160331.064000", "160331.067000", "160331.069000", "160331.072000", "160410.998000", "160411.002000", "160411.005000", "160411.008000", "160411.011000", "160411.014000", "160411.017000", "160411.020000", "160411.023000", "160411.026000", "160411.028000", "160411.031000", "160411.034000", "160411.037000", "160411.040000", "160411.043000", "160411.046000", "160411.049000", "160411.052000", "160411.054000", "160411.057000", "160411.060000", "160411.063000", "160411.066000", "160411.069000", "160411.072000", "160411.075000", "160450.998000", "160451.002000", "160451.005000", "160451.008000", "160451.011000", "160451.014000", "160451.017000", "160451.020000", "160451.023000", "160451.026000", "160451.028000", "160451.031000", "160451.034000", "160451.037000", "160451.040000", "160451.043000", "160451.046000", "160451.049000", "160451.052000", "160451.055000", "160451.057000", "160451.060000", "160451.063000", "160451.066000", "160451.069000", "160451.072000", "160451.075000", "160500.524000", "160500.527000", "160500.530000", "160500.533000", "160500.536000", "160500.539000", "160500.542000"],
