{
  "AcquisitionMatrixPE": 104,
  "AcquisitionNumber": 1,
  "AcquisitionTime": "16:06:42.350000",
  "BandwidthPerPixelPhaseEncode": 17.17,
  "BaseResolution": 104,
  "BodyPartExamined": "BRAIN",
  "CoilCombinationMethod": "Sum of Squares",
  "ConsistencyInfo": "N4_VE11C_LATEST_20160120",
  "ConversionSoftware": "dcm2niix",
  "ConversionSoftwareVersion": "v1.0.20230411",
  "DerivedVendorReportedEchoSpacing": 0.000560011,
  "DeviceSerialNumber": "167006",
  "DwellTime": 2.1e-06,
  "EchoTime": 0.037,
  "EchoTrainLength": 104,
  "EffectiveEchoSpacing": 0.000560011,
  "FlipAngle": 52,
  "HeudiconvVersion": "0.5.3.post861+ge7d3c7f",
  "ImageComments": "Unaliased MB4/PE3/LB",
  "ImageOrientationPatientDICOM": [0.999996, 0.00288721, 3.53537e-05, -0.00279245, 0.970146, -0.242506],
  "ImageOrientationText": "Tra>Cor(-14.0)>Sag(0.0)",
  "ImageType": [
    "ORIGINAL",
    "PRIMARY",
    "M",
    "MB",
    "ND",
    "MOSAIC"
],
  "ImagingFrequency": 123.249731,
  "InPlanePhaseEncodingDirectionDICOM": "COL",
  "InstitutionAddress": "Chemin Queen-Mary 4565,Montreal,District,CA,H3W 1W5",
  "InstitutionName": "Institut Universitaire de Geriatrie de Montreal",
  "InstitutionalDepartmentName": "Department",
  "MRAcquisitionType": "2D",
  "MagneticFieldStrength": 3,
  "Manufacturer": "Siemens",
  "ManufacturersModelName": "Prisma_fit",
  "MatrixCoilMode": "SENSE",
  "Modality": "MR",
  "MultibandAccelerationFactor": 4,
  "NonlinearGradientCorrection": false,
  "PartialFourier": 1,
  "PatientPosition": "HFS",
  "PercentPhaseFOV": 100,
  "PercentSampling": 100,
  "PhaseEncodingDirection": "j",
  "PhaseEncodingSteps": 104,
  "PhaseResolution": 1,
  "PixelBandwidth": 2290,
  "ProcedureStepDescription": "video^friends",
  "ProtocolName": "func_task-friends-s07e17b",
  "PulseSequenceDetails": "%CustomerSeq%\\cmrr_mbep2d_bold",
  "ReceiveCoilActiveElements": "HC1-7;NC1,2",
  "ReceiveCoilName": "HeadNeck_64",
  "ReconMatrixPE": 104,
  "RepetitionTime": 1.49,
  "SAR": 0.0549282,
  "ScanOptions": "FS",
  "ScanningSequence": "EP",
  "SequenceName": "epfid2d1_104",
  "SequenceVariant": "SK\\SS",
  "SeriesDescription": "func_task-friends-s07e17b",
  "SeriesNumber": 16,
  "ShimSetting": [612, -7242, -8766, 651, 46, -36, 17, 48],
  "SliceThickness": 2,
  "SliceTiming": [0, 0.785, 0.0975, 0.8825, 0.1975, 0.98, 0.295, 1.0775, 0.3925, 1.1775, 0.49, 1.275, 0.5875, 1.3725, 0.6875, 0, 0.785, 0.0975, 0.8825, 0.1975, 0.98, 0.295, 1.0775, 0.3925, 1.1775, 0.49, 1.275, 0.5875, 1.3725, 0.6875, 0, 0.785, 0.0975, 0.8825, 0.1975, 0.98, 0.295, 1.0775, 0.3925, 1.1775, 0.49, 1.275, 0.5875, 1.3725, 0.6875, 0, 0.785, 0.0975, 0.8825, 0.1975, 0.98, 0.295, 1.0775, 0.3925, 1.1775, 0.49, 1.275, 0.5875, 1.3725, 0.6875],
  "SoftwareVersions": "syngo MR E11",
  "SpacingBetweenSlices": 2,
  "StationName": "MRC35049",
  "TaskName": "s07e17b",
  "TotalReadoutTime": 0.0576811,
  "TxRefAmp": 227.547,
  "WipMemBlock": "3ca12f11-2d72-4a1c-824c-645a693496f1||Sequence: R017 ve11c/master r/75a17815+; Jun 28 2022 16:32:11 by eja",
  "dcmmeta_affine": [
    [-1.9999916553497314, -0.005584902595728636, 0.0014689280651509762, 106.04106140136719],
    [-0.005774416495114565, 1.9402916431427002, -0.4850100874900818, -76.44680786132812],
    [7.07074286765419e-05, 0.4850122928619385, 1.9402997493743896, -46.17814636230469],
    [0.0, 0.0, 0.0, 1.0]
],
  "dcmmeta_reorient_transform": [
    [0.0, -1.0, 0.0, 103.0],
    [1.0, 0.0, 0.0, 0.0],
    [0.0, 0.0, 1.0, 0.0],
    [0.0, 0.0, 0.0, 1.0]
],
  "dcmmeta_shape": [104, 104, 60, 467],
  "dcmmeta_slice_dim": 2,
  "dcmmeta_version": 0.6,
  "global": {
    "const": {
      "AcquisitionMatrix": [104, 0, 0, 104],
      "AngioFlag": "N",
      "BitsAllocated": 16,
      "BitsStored": 16,
      "BodyPartExamined": "BRAIN",
      "Columns": 832,
      "EchoNumbers": 1,
      "EchoTime": 37.0,
      "EchoTrainLength": 104,
      "FlipAngle": 52.0,
      "HighBit": 15,
      "ImageOrientationPatient": [0.99999583138064, 0.00288720824739, 3.535371602e-05, -0.0027924512431, 0.97014584888757, -0.2425061527102],
      "ImagePositionPatient": [-831.42987857712, -831.77130154044, 180.29686198968],
      "ImageType": [
        "ORIGINAL",
        "PRIMARY",
        "M",
        "MB",
        "ND",
        "MOSAIC"
],
      "ImagedNucleus": "1H",
      "ImagingFrequency": 123.249731,
      "InPlanePhaseEncodingDirection": "COL",
      "MRAcquisitionType": "2D",
      "MagneticFieldStrength": 3.0,
      "Manufacturer": "SIEMENS",
      "ManufacturerModelName": "Prisma_fit",
      "Modality": "MR",
      "NumberOfAverages": 1.0,
      "NumberOfPhaseEncodingSteps": 104,
      "PercentPhaseFieldOfView": 100.0,
      "PercentSampling": 100.0,
      "PerformedProcedureStepStartTime": "150644.021000",
      "PhotometricInterpretation": "MONOCHROME2",
      "PixelBandwidth": 2290.0,
      "PixelRepresentation": 0,
      "PixelSpacing": [2.0, 2.0],
      "ProtocolName": "func_task-friends-s07e17b",
      "RepetitionTime": 1490.0,
      "Rows": 832,
      "SAR": 0.05492821481902,
      "SamplesPerPixel": 1,
      "ScanOptions": "FS",
      "ScanningSequence": "EP",
      "SequenceName": "epfid2d1_104",
      "SequenceVariant": [
        "SK",
        "SS"
],
      "SeriesDescription": "func_task-friends-s07e17b",
      "SeriesNumber": 16,
      "SeriesTime": "160803.358000",
      "SliceLocation": -26.18310327088,
      "SliceThickness": 2.0,
      "SmallestImagePixelValue": 0,
      "SoftwareVersions": "syngo MR E11",
      "SpacingBetweenSlices": 1.9999999981361,
      "SpecificCharacterSet": "ISO_IR 100",
      "StudyID": "1",
      "StudyTime": "150643.950000",
      "TransmitCoilName": "Body",
      "VariableFlipAngleFlag": "N",
      "WindowCenterWidthExplanation": "Algo1",
      "dBdt": 0.0},
    "slices": {}
  },
  "time": {
    "samples": {
      "AcquisitionNumber": [1, 2, 3, 4, 5, 6, 7, 8, 9, 10, 11, 12, 13, 14, 15, 16, 17, 18, 19, 20, 21, 22, 23, 24, 25, 26, 27, 28, 29, 30, 31, 32, 33, 34, 35, 36, 37, 38, 39, 40, 41, 42, 43, 44, 45, 46, 47, 48, 49, 50, 51, 52, 53, 54, 55, 56, 57, 58, 59, 60, 61, 62, 63, 64, 65, 66, 67, 68, 69, 70, 71, 72, 73, 74, 75, 76, 77, 78, 79, 80, 81, 82, 83, 84, 85, 86, 87, 88, 89, 90, 91, 92, 93, 94, 95, 96, 97, 98, 99, 100, 101, 102, 103, 104, 105, 106, 107, 108, 109, 110, 111, 112, 113, 114, 115, 116, 117, 118, 119, 120, 121, 122, 123, 124, 125, 126, 127, 128, 129, 130, 131, 132, 133, 134, 135, 136, 137, 138, 139, 140, 141, 142, 143, 144, 145, 146, 147, 148, 149, 150, 151, 152, 153, 154, 155, 156, 157, 158, 159, 160, 161, 162, 163, 164, 165, 166, 167, 168, 169, 170, 171, 172, 173, 174, 175, 176, 177, 178, 179, 180, 181, 182, 183, 184, 185, 186, 187, 188, 189, 190, 191, 192, 193, 194, 195, 196, 197, 198, 199, 200, 201, 202, 203, 204, 205, 206, 207, 208, 209, 210, 211, 212, 213, 214, 215, 216, 217, 218, 219, 220, 221, 222, 223, 224, 225, 226, 227, 228, 229, 230, 231, 232, 233, 234, 235, 236, 237, 238, 239, 240, 241, 242, 243, 244, 245, 246, 247, 248, 249, 250, 251, 252, 253, 254, 255, 256, 257, 258, 259, 260, 261, 262, 263, 264, 265, 266, 267, 268, 269, 270, 271, 272, 273, 274, 275, 276, 277, 278, 279, 280, 281, 282, 283, 284, 285, 286, 287, 288, 289, 290, 291, 292, 293, 294, 295, 296, 297, 298, 299, 300, 301, 302, 303, 304, 305, 306, 307, 308, 309, 310, 311, 312, 313, 314, 315, 316, 317, 318, 319, 320, 321, 322, 323, 324, 325, 326, 327, 328, 329, 330, 331, 332, 333, 334, 335, 336, 337, 338, 339, 340, 341, 342, 343, 344, 345, 346, 347, 348, 349, 350, 351, 352, 353, 354, 355, 356, 357, 358, 359, 360, 361, 362, 363, 364, 365, 366, 367, 368, 369, 370, 371, 372, 373, 374, 375, 376, 377, 378, 379, 380, 381, 382, 383, 384, 385, 386, 387, 388, 389, 390, 391, 392, 393, 394, 395, 396, 397, 398, 399, 400, 401, 402, 403, 404, 405, 406, 407, 408, 409, 410, 411, 412, 413, 414, 415, 416, 417, 418, 419, 420, 421, 422, 423, 424, 425, 426, 427, 428, 429, 430, 431, 432, 433, 434, 435, 436, 437, 438, 439, 440, 441, 442, 443, 444, 445, 446, 447, 448, 449, 450, 451, 452, 453, 454, 455, 456, 457, 458, 459, 460, 461, 462, 463, 464, 465, 466, 467],
      "AcquisitionTime": ["160642.350000", "160643.840000", "160645.330000", "160646.820000", "160648.310000", "160649.800000", "160651.290000", "160652.780000", "160654.270000", "160655.760000", "160657.250000", "160658.740000", "160700.230000", "160701.720000", "160703.210000", "160704.700000", "160706.190000", "160707.680000", "160709.170000", "160710.660000", "160712.150000", "160713.640000", "160715.130000", "160716.620000", "160718.110000", "160719.600000", "160721.090000", "160722.580000", "160724.070000", "160725.560000", "160727.050000", "160728.540000", "160730.030000", "160731.520000", "160733.010000", "160734.500000", "160735.990000", "160737.480000", "160738.970000", "160740.460000", "160741.950000", "160743.440000", "160744.930000", "160746.420000", "160747.910000", "160749.400000", "160750.890000", "160752.380000", "160753.870000", "160755.360000", "160756.850000", "160758.340000", "160759.830000", "160801.320000", "160802.810000", "160804.300000", "160805.790000", "160807.280000", "160808.770000", "160810.260000", "160811.750000", "160813.240000", "160814.730000", "160816.220000", "160817.710000", "160819.200000", "160820.690000", "160822.180000", "160823.670000", "160825.160000", "160826.650000", "160828.140000", "160829.630000", "160831.120000", "160832.610000", "160834.100000", "160835.590000", "160837.080000", "160838.570000", "160840.060000", "160841.550000", "160843.040000", "160844.530000", "160846.020000", "160847.510000", "160849.000000", "160850.490000", "160851.980000", "160853.470000", "160854.960000", "160856.450000", "160857.940000", "160859.430000", "160900.920000", "160902.410000", "160903.900000", "160905.390000", "160906.880000", "160908.370000", "160909.860000", "160911.350000", "160912.840000", "160914.330000", "160915.820000", "160917.310000", "160918.800000", "160920.290000", "160921.780000", "160923.270000", "160924.760000", "160926.250000", "160927.740000", "160929.230000", "160930.720000", "160932.210000", "160933.700000", "160935.190000", "160936.680000", "160938.170000", "160939.660000", "160941.150000", "160942.640000", "160944.130000", "160945.620000", "160947.110000", "160948.600000", "160950.090000", "160951.580000", "160953.070000", "160954.560000", "160956.050000", "160957.540000", "160959.030000", "161000.520000", "161002.010000", "161003.500000", "161004.990000", "161006.480000", "161007.970000", "161009.460000", "161010.950000", "161012.440000", "161013.930000", "161015.420000", "161016.910000", "161018.400000", "161019.890000", "161021.380000", "161022.870000", "161024.360000", "161025.850000", "161027.340000", "161028.830000", "161030.320000", "161031.810000", "161033.300000", "161034.790000", "161036.280000", "161037.770000", "161039.260000", "161040.750000", "161042.240000", "161043.730000", "161045.220000", "161046.710000", "161048.200000", "161049.690000", "161051.180000", "161052.670000", "161054.160000", "161055.650000", "161057.140000", "161058.630000", "161100.120000", "161101.610000", "161103.100000", "161104.590000", "161106.080000", "161107.570000", "161109.060000", "161110.550000", "161112.040000", "161113.530000", "161115.020000", "161116.510000", "161118.000000", "161119.490000", "161120.980000", "161122.470000", "161123.960000", "161125.450000", "161126.940000", "161128.430000", "161129.920000", "161131.410000", "161132.900000", "161134.390000", "161135.880000", "161137.370000", "161138.860000", "161140.350000", "161141.840000", "161143.330000", "161144.820000", "161146.310000", "161147.800000", "161149.290000", "161150.780000", "161152.270000", "161153.760000", "161155.250000", "161156.740000", "161158.230000", "161159.720000", "161201.210000", "161202.700000", "161204.190000", "161205.680000", "161207.170000", "161208.660000", "161210.150000", "161211.640000", "161213.130000", "161214.620000", "161216.110000", "161217.600000", "161219.090000", "161220.580000", "161222.070000", "161223.560000", "161225.050000", "161226.540000", "161228.030000", "161229.520000", "161231.010000", "161232.500000", "161233.990000", "161235.480000", "161236.970000", "161238.460000", "161239.950000", "161241.440000", "161242.930000", "161244.420000", "161245.910000", "161247.400000", "161248.890000", "161250.380000", "161251.870000", "161253.360000", "161254.850000", "161256.340000", "161257.830000", "161259.320000", "161300.810000", "161302.300000", "161303.790000", "161305.280000", "161306.770000", "161308.260000", "161309.750000", "161311.240000", "161312.730000", "161314.220000", "161315.710000", "161317.200000", "161318.690000", "161320.180000", "161321.670000", "161323.160000", "161324.650000", "161326.140000", "161327.630000", "161329.120000", "161330.610000", "161332.100000", "161333.590000", "161335.080000", "161336.570000", "161338.060000", "161339.550000", "161341.040000", "161342.530000", "161344.020000", "161345.510000", "161347.000000", "161348.490000", "161349.980000", "161351.470000", "161352.960000", "161354.450000", "161355.940000", "161357.430000", "161358.920000", "161400.410000", "161401.900000", "161403.390000", "161404.880000", "161406.370000", "161407.860000", "161409.350000", "161410.840000", "161412.330000", "161413.820000", "161415.310000", "161416.800000", "161418.290000", "161419.780000", "161421.270000", "161422.760000", "161424.250000", "161425.740000", "161427.230000", "161428.720000", "161430.210000", "161431.700000", "161433.190000", "161434.680000", "161436.170000", "161437.660000", "161439.150000", "161440.640000", "161442.130000", "161443.620000", "161445.110000", "161446.600000", "161448.090000", "161449.580000", "161451.070000", "161452.560000", "161454.050000", "161455.540000", "161457.030000", "161458.520000", "161500.010000", "161501.500000", "161502.990000", "161504.480000", "161505.970000", "161507.460000", "161508.950000", "161510.440000", "161511.930000", "161513.420000", "161514.910000", "161516.400000", "161517.890000", "161519.380000", "161520.870000", "161522.360000", "161523.850000", "161525.340000", "161526.830000", "161528.320000", "161529.810000", "161531.300000", "161532.790000", "161534.280000", "161535.770000", "161537.260000", "161538.750000", "161540.240000", "161541.730000", "161543.220000", "161544.710000", "161546.200000", "161547.690000", "161549.180000", "161550.670000", "161552.160000", "161553.650000", "161555.140000", "161556.630000", "161558.120000", "161559.610000", "161601.100000", "161602.590000", "161604.080000", "161605.570000", "161607.060000", "161608.550000", "161610.040000", "161611.530000", "161613.020000", "161614.510000", "161616.000000", "161617.490000", "161618.980000", "161620.470000", "161621.960000", "161623.450000", "161624.940000", "161626.430000", "161627.920000", "161629.410000", "161630.900000", "161632.390000", "161633.880000", "161635.370000", "161636.860000", "161638.350000", "161639.840000", "161641.330000", "161642.820000", "161644.310000", "161645.800000", "161647.290000", "161648.780000", "161650.270000", "161651.760000", "161653.250000", "161654.740000", "161656.230000", "161657.720000", "161659.210000", "161700.700000", "161702.190000", "161703.680000", "161705.170000", "161706.660000", "161708.150000", "161709.640000", "161711.130000", "161712.620000", "161714.110000", "161715.600000", "161717.090000", "161718.580000", "161720.070000", "161721.560000", "161723.050000", "161724.540000", "161726.030000", "161727.520000", "161729.010000", "161730.500000", "161731.990000", "161733.480000", "161734.970000", "161736.460000", "161737.950000", "161739.440000", "161740.930000", "161742.420000", "161743.910000", "161745.400000", "161746.890000", "161748.380000", "161749.870000", "161751.360000", "161752.850000", "161754.340000", "161755.830000", "161757.320000", "161758.810000", "161800.300000", "161801.790000", "161803.280000", "161804.770000", "161806.260000", "161807.750000", "161809.240000", "161810.730000", "161812.220000", "161813.710000", "161815.200000", "161816.690000"],
      "ContentTime": ["160803.361000", "160803.364000", "160803.367000", "160803.370000", "160803.381000", "160803.384000", "160803.387000", "160803.390000", "160803.393000", "160803.396000", "160803.398000", "160803.405000", "160803.408000", "160803.410000", "160803.413000", "160803.416000", "160803.419000", "160803.422000", "160803.425000", "160803.428000", "160803.431000", "160803.433000", "160803.436000", "160803.439000", "160803.442000", "160803.445000", "160803.457000", "160803.459000", "160803.462000", "160803.465000", "160803.468000", "160803.474000", "160823.328000", "160823.331000", "160823.334000", "160823.337000", "160823.340000", "160823.343000", "160823.346000", "160823.348000", "160823.359000", "160823.361000", "160823.364000", "160823.367000", "160823.370000", "160823.373000", "160823.376000", "160823.379000", "160823.381000", "160823.384000", "160823.387000", "160823.390000", "160843.328000", "160843.331000", "160843.334000", "160843.337000", "160843.340000", "160843.351000", "160843.354000", "160843.357000", "160843.360000", "160843.362000", "160843.365000", "160843.368000", "160843.385000", "160843.388000", "160843.391000", "160843.394000", "160843.397000", "160843.400000", "160843.403000", "160843.406000", "160903.328000", "160903.331000", "160903.334000", "160903.337000", "160903.340000", "160903.343000", "160903.345000", "160903.348000", "160903.351000", "160903.354000", "160903.357000", "160903.366000", "160903.369000", "160903.372000", "160903.375000", "160903.377000", "160903.380000", "160903.383000", "160903.386000", "160903.389000", "160903.392000", "160943.328000", "160943.331000", "160943.334000", "160943.337000", "160943.340000", "160943.343000", "160943.345000", "160943.348000", "160943.351000", "160943.354000", "160943.357000", "160943.360000", "160943.363000", "160943.366000", "160943.368000", "160943.371000", "160943.374000", "160943.377000", "160943.380000", "160943.383000", "160943.386000", "160943.389000", "160943.392000", "160943.394000", "160943.397000", "160943.400000", "160943.403000", "160943.406000", "161023.328000", "161023.331000", "161023.334000", "161023.337000", "161023.340000", "161023.342000", "161023.345000", "161023.348000", "161023.351000", "161023.354000", "161023.357000", "161023.360000", "161023.363000", "161023.366000", "161023.368000", "161023.371000", "161023.374000", "161023.377000", "161023.380000", "161023.383000", "161023.386000", "161023.389000", "161023.392000", "161023.395000", "161023.398000", "161023.400000", "161023.403000", "161103.328000", "161103.331000", "161103.334000", "161103.337000", "161103.340000", "161103.343000", "161103.345000", "161103.348000", "161103.351000", "161103.354000", "161103.357000", "161103.360000", "161103.363000", "161103.366000", "161103.369000", "161103.372000", "161103.375000", "161103.377000", "161103.380000", "161103.383000", "161103.386000", "161103.389000", "161103.392000", "161103.395000", "161103.398000", "161103.401000", "161103.404000", "161143.328000", "161143.331000", "161143.334000", "161143.337000", "161143.340000", "161143.343000", "161143.346000", "161143.348000", "161143.351000", "161143.354000", "161143.357000", "161143.360000", "161143.363000", "161143.366000", "161143.369000", "161143.372000", "161143.374000", "161143.378000", "161143.381000", "161143.384000", "161143.387000", "161143.390000", "161143.392000", "161143.395000", "161143.398000", "161143.401000", "161223.328000", "161223.331000", "161223.334000", "161223.337000", "161223.340000", "161223.343000", "161223.346000", "161223.349000", "161223.352000", "161223.355000", "161223.358000", "161223.361000", "161223.364000", "161223.366000", "161223.369000", "161223.372000", "161223.375000", "161223.378000", "161223.381000", "161223.384000", "161223.387000", "161223.390000", "161223.393000", "161223.396000", "161223.399000", "161223.402000", "161223.405000", "161243.328000", "161243.331000", "161243.334000", "161243.337000", "161243.340000", "161243.343000", "161243.346000", "161243.349000", "161243.352000", "161243.355000", "161243.358000", "161243.360000", "161243.363000", "161243.366000", "161323.328000", "161323.331000", "161323.334000", "161323.337000", "161323.340000", "161323.360000", "161323.363000", "161323.366000", "161323.369000", "161323.372000", "161323.375000", "161323.378000", "161323.381000", "161323.383000", "161323.386000", "161323.389000", "161323.392000", "161323.395000", "161323.398000", "161323.401000", "161323.404000", "161323.406000", "161323.409000", "161323.420000", "161323.423000", "161323.426000", "161323.429000", "161403.328000", "161403.331000", "161403.334000", "161403.337000", "161403.340000", "161403.343000", "161403.346000", "161403.348000", "161403.351000", "161403.354000", "161403.357000", "161403.360000", "161403.363000", "161403.366000", "161403.368000", "161403.371000", "161403.374000", "161403.377000", "161403.382000", "161403.385000", "161403.388000", "161403.391000", "161403.393000", "161403.396000", "161403.399000", "161403.402000", "161443.328000", "161443.331000", "161443.334000", "161443.337000", "161443.340000", "161443.343000", "161443.346000", "161443.348000", "161443.351000", "161443.354000", "161443.357000", "161443.360000", "161443.363000", "161443.366000", "161443.369000", "161443.371000", "161443.374000", "161443.377000", "161443.380000", "161443.383000", "161443.386000", "161443.389000", "161443.392000", "161443.395000", "161443.398000", "161443.401000", "161443.403000", "161523.328000", "161523.331000", "161523.334000", "161523.337000", "161523.340000", "161523.343000", "161523.346000", "161523.349000", "161523.352000", "161523.355000", "161523.358000", "161523.361000", "161523.364000", "161523.367000", "161523.370000", "161523.373000", "161523.376000", "161523.378000", "161523.381000", "161523.384000", "161523.387000", "161523.390000", "161523.393000", "161523.396000", "161523.399000", "161523.402000", "161523.405000", "161603.328000", "161603.331000", "161603.334000", "161603.337000", "161603.340000", "161603.343000", "161603.346000", "161603.349000", "161603.351000", "161603.354000", "161603.357000", "161603.360000", "161603.363000", "161603.366000", "161603.369000", "161603.372000", "161603.375000", "161603.378000", "161603.380000", "161603.383000", "161603.386000", "161603.389000", "161603.392000", "161603.395000", "161603.398000", "161603.401000", "161603.404000", "161643.328000", "161643.331000", "161643.334000", "161643.337000", "161643.340000", "161643.343000", "161643.346000", "161643.349000", "161643.352000", "161643.355000", "161643.357000", "161643.361000", "161643.363000", "161643.366000", "161643.369000", "161643.372000", "161643.375000", "161643.378000", "161643.381000", "161643.384000", "161643.387000", "161643.390000", "161643.392000", "161643.395000", "161643.398000", "161643.401000", "161643.404000", "161723.328000", "161723.331000", "161723.334000", "161723.337000", "161723.340000", "161723.343000", "161723.346000", "161723.349000", "161723.352000", "161723.355000", "161723.358000", "161723.360000", "161723.363000", "161723.366000", "161723.369000", "161723.372000", "161723.375000", "161723.378000", "161723.381000", "161723.384000", "161723.387000", "161723.390000", "161723.393000", "161723.396000", "161723.398000", "161723.401000", "161723.404000", "161803.328000", "161803.331000", "161803.334000", "161803.337000", "161803.340000", "161803.343000", "161803.346000", "161803.349000", "161803.352000", "161803.355000", "161803.358000", "161803.361000", "161803.364000", "161803.366000", "161803.369000", "161803.373000", "161803.375000", "161803.378000", "161803.381000", "161803.384000", "161803.389000", "161803.392000", "161803.395000", "161803.398000", "161803.401000", "161803.404000", "161818.359000", "161818.364000", "161818.367000", "161818.378000", "161818.382000", "161818.385000", "161818.389000", "161818.393000", "161818.398000", "161818.403000", "161818.406000"],
