{
  "AcquisitionMatrixPE": 104,
  "AcquisitionNumber": 1,
  "AcquisitionTime": "09:56:42.002500",
  "BandwidthPerPixelPhaseEncode": 17.17,
  "BaseResolution": 104,
  "BodyPartExamined": "BRAIN",
  "CoilString": "HC1-7;NC1_2",
  "ConsistencyInfo": "N4_VE11C_LATEST_20160120",
  "ConversionSoftware": "dcm2niix",
  "ConversionSoftwareVersion": "v1.0.20190902",
  "DerivedVendorReportedEchoSpacing": 0.000560011,
  "DeviceSerialNumber": "167006",
  "DwellTime": 2.1e-06,
  "EchoTime": 0.037,
  "EchoTrainLength": 104,
  "EffectiveEchoSpacing": 0.000560011,
  "FlipAngle": 52,
  "ImageComments": "Unaliased_MB4_PE3_LB",
  "ImageOrientationPatientDICOM": [0.999175, 0.0395103, 0.00938508, -0.0293058, 0.861516, -0.506885],
  "ImageType": [
    "ORIGINAL",
    "PRIMARY",
    "M",
    "MB",
    "ND",
    "MOSAIC"
],
  "ImagingFrequency": 123.259,
  "InPlanePhaseEncodingDirectionDICOM": "COL",
  "InstitutionAddress": "Chemin_Queen-Mary_4565_Montreal_District_CA_H3W_1W5",
  "InstitutionName": "IUGM",
  "InstitutionalDepartmentName": "Department",
  "MRAcquisitionType": "2D",
  "MagneticFieldStrength": 3,
  "Manufacturer": "Siemens",
  "ManufacturersModelName": "Prisma_fit",
  "Modality": "MR",
  "MultibandAccelerationFactor": 4,
  "PartialFourier": 1,
  "PatientPosition": "HFS",
  "PercentPhaseFOV": 100,
  "PhaseEncodingDirection": "j",
  "PhaseEncodingSteps": 104,
  "PhaseResolution": 1,
  "PixelBandwidth": 2290,
  "ProcedureStepDescription": "video_friends",
  "ProtocolName": "func_task-friends-s04e08b",
  "PulseSequenceDetails": "%CustomerSeq%_cmrr_mbep2d_bold",
  "ReceiveCoilActiveElements": "HC1-7;NC1,2",
  "ReceiveCoilName": "HeadNeck_64",
  "ReconMatrixPE": 104,
  "RepetitionTime": 1.49,
  "SAR": 0.0360675,
  "ScanOptions": "FS",
  "ScanningSequence": "EP",
  "SequenceName": "epfid2d1_104",
  "SequenceVariant": "SK_SS",
  "SeriesDescription": "func_task-friends-s04e08b",
  "SeriesNumber": 15,
  "ShimSetting": [633, -7201, -8870, 397, -8, -194, 6, 0],
  "SliceThickness": 2,
  "SliceTiming": [0, 0.785, 0.1, 0.8825, 0.1975, 0.98, 0.295, 1.08, 0.3925, 1.1775, 0.49, 1.275, 0.59, 1.3725, 0.6875, 0, 0.785, 0.1, 0.8825, 0.1975, 0.98, 0.295, 1.08, 0.3925, 1.1775, 0.49, 1.275, 0.59, 1.3725, 0.6875, 0, 0.785, 0.1, 0.8825, 0.1975, 0.98, 0.295, 1.08, 0.3925, 1.1775, 0.49, 1.275, 0.59, 1.3725, 0.6875, 0, 0.785, 0.1, 0.8825, 0.1975, 0.98, 0.295, 1.08, 0.3925, 1.1775, 0.49, 1.275, 0.59, 1.3725, 0.6875],
  "SoftwareVersions": "syngo_MR_E11",
  "SpacingBetweenSlices": 2,
  "StationName": "MRC35049",
  "TaskName": "s04e08b",
  "TotalReadoutTime": 0.0576811,
  "TxRefAmp": 249.553,
  "WipMemBlock": "1957ce73-9873-4dca-8be3-b3e7ed068e91||Sequence: R016 ve11c/master r/e634e98; Dec 19 2017 11:00:25 by eja",
  "dcmmeta_affine": [
    [-1.9983501434326172, -0.058611564338207245, 0.05622513219714165, 105.27973175048828],
    [-0.07902064919471741, 1.7230311632156372, -1.012382984161377, -55.45890426635742],
    [0.01877015270292759, 1.013769268989563, 1.7239255905151367, -96.87533569335938],
    [0.0, 0.0, 0.0, 1.0]
],
  "dcmmeta_reorient_transform": [
    [0.0, -1.0, 0.0, 103.0],
    [1.0, 0.0, 0.0, 0.0],
    [0.0, 0.0, 1.0, 0.0],
    [0.0, 0.0, 0.0, 1.0]
],
  "dcmmeta_shape": [104, 104, 60, 503],
  "dcmmeta_slice_dim": 2,
  "dcmmeta_version": 0.6,
  "global": {
    "const": {
      "AcquisitionMatrix": [104, 0, 0, 104],
      "AngioFlag": "N",
      "BitsAllocated": 16,
      "BitsStored": 16,
      "BodyPartExamined": "BRAIN",
      "Columns": 832,
      "EchoNumbers": 1,
      "EchoTime": 37.0,
      "EchoTrainLength": 104,
      "FlipAngle": 52.0,
      "HighBit": 15,
      "ImageOrientationPatient": [0.99917508711542, 0.03951032316505, 0.00938507598772, -0.0293057829516, 0.86151558853679, -0.5068846632062],
      "ImagePositionPatient": [-805.30759203604, -777.9601705507, 369.72260074916],
      "ImageType": [
        "ORIGINAL",
        "PRIMARY",
        "M",
        "MB",
        "ND",
        "MOSAIC"
],
      "ImagedNucleus": "1H",
      "ImagingFrequency": 123.25904,
      "InPlanePhaseEncodingDirection": "COL",
      "MRAcquisitionType": "2D",
      "MagneticFieldStrength": 3.0,
      "Manufacturer": "SIEMENS",
      "ManufacturerModelName": "Prisma_fit",
      "Modality": "MR",
      "NumberOfAverages": 1.0,
      "NumberOfPhaseEncodingSteps": 104,
      "PercentPhaseFieldOfView": 100.0,
      "PercentSampling": 100.0,
      "PerformedProcedureStepStartTime": "090447.929000",
      "PhotometricInterpretation": "MONOCHROME2",
      "PixelBandwidth": 2290.0,
      "PixelRepresentation": 0,
      "PixelSpacing": [2.0, 2.0],
      "ProtocolName": "func_task-friends-s04e08b",
      "RepetitionTime": 1490.0,
      "Rows": 832,
      "SAR": 0.03606748257171,
      "SamplesPerPixel": 1,
      "ScanOptions": "FS",
      "ScanningSequence": "EP",
      "SequenceName": "epfid2d1_104",
      "SequenceVariant": [
        "SK",
        "SS"
],
      "SeriesDescription": "func_task-friends-s04e08b",
      "SeriesNumber": 15,
      "SeriesTime": "095813.261000",
      "SliceLocation": -52.470429356501,
      "SliceThickness": 2.0,
      "SmallestImagePixelValue": 0,
      "SoftwareVersions": "syngo MR E11",
      "SpacingBetweenSlices": 1.9999999929107,
      "SpecificCharacterSet": "ISO_IR 100",
      "StudyID": "1",
      "StudyTime": "090447.814000",
      "TransmitCoilName": "Body",
      "VariableFlipAngleFlag": "N",
      "WindowCenterWidthExplanation": "Algo1",
      "dBdt": 0.0},
    "slices": {}
  },
  "time": {
    "samples": {
      "AcquisitionNumber": [1, 2, 3, 4, 5, 6, 7, 8, 9, 10, 11, 12, 13, 14, 15, 16, 17, 18, 19, 20, 21, 22, 23, 24, 25, 26, 27, 28, 29, 30, 31, 32, 33, 34, 35, 36, 37, 38, 39, 40, 41, 42, 43, 44, 45, 46, 47, 48, 49, 50, 51, 52, 53, 54, 55, 56, 57, 58, 59, 60, 61, 62, 63, 64, 65, 66, 67, 68, 69, 70, 71, 72, 73, 74, 75, 76, 77, 78, 79, 80, 81, 82, 83, 84, 85, 86, 87, 88, 89, 90, 91, 92, 93, 94, 95, 96, 97, 98, 99, 100, 101, 102, 103, 104, 105, 106, 107, 108, 109, 110, 111, 112, 113, 114, 115, 116, 117, 118, 119, 120, 121, 122, 123, 124, 125, 126, 127, 128, 129, 130, 131, 132, 133, 134, 135, 136, 137, 138, 139, 140, 141, 142, 143, 144, 145, 146, 147, 148, 149, 150, 151, 152, 153, 154, 155, 156, 157, 158, 159, 160, 161, 162, 163, 164, 165, 166, 167, 168, 169, 170, 171, 172, 173, 174, 175, 176, 177, 178, 179, 180, 181, 182, 183, 184, 185, 186, 187, 188, 189, 190, 191, 192, 193, 194, 195, 196, 197, 198, 199, 200, 201, 202, 203, 204, 205, 206, 207, 208, 209, 210, 211, 212, 213, 214, 215, 216, 217, 218, 219, 220, 221, 222, 223, 224, 225, 226, 227, 228, 229, 230, 231, 232, 233, 234, 235, 236, 237, 238, 239, 240, 241, 242, 243, 244, 245, 246, 247, 248, 249, 250, 251, 252, 253, 254, 255, 256, 257, 258, 259, 260, 261, 262, 263, 264, 265, 266, 267, 268, 269, 270, 271, 272, 273, 274, 275, 276, 277, 278, 279, 280, 281, 282, 283, 284, 285, 286, 287, 288, 289, 290, 291, 292, 293, 294, 295, 296, 297, 298, 299, 300, 301, 302, 303, 304, 305, 306, 307, 308, 309, 310, 311, 312, 313, 314, 315, 316, 317, 318, 319, 320, 321, 322, 323, 324, 325, 326, 327, 328, 329, 330, 331, 332, 333, 334, 335, 336, 337, 338, 339, 340, 341, 342, 343, 344, 345, 346, 347, 348, 349, 350, 351, 352, 353, 354, 355, 356, 357, 358, 359, 360, 361, 362, 363, 364, 365, 366, 367, 368, 369, 370, 371, 372, 373, 374, 375, 376, 377, 378, 379, 380, 381, 382, 383, 384, 385, 386, 387, 388, 389, 390, 391, 392, 393, 394, 395, 396, 397, 398, 399, 400, 401, 402, 403, 404, 405, 406, 407, 408, 409, 410, 411, 412, 413, 414, 415, 416, 417, 418, 419, 420, 421, 422, 423, 424, 425, 426, 427, 428, 429, 430, 431, 432, 433, 434, 435, 436, 437, 438, 439, 440, 441, 442, 443, 444, 445, 446, 447, 448, 449, 450, 451, 452, 453, 454, 455, 456, 457, 458, 459, 460, 461, 462, 463, 464, 465, 466, 467, 468, 469, 470, 471, 472, 473, 474, 475, 476, 477, 478, 479, 480, 481, 482, 483, 484, 485, 486, 487, 488, 489, 490, 491, 492, 493, 494, 495, 496, 497, 498, 499, 500, 501, 502, 503],
      "AcquisitionTime": ["095642.002500", "095643.492500", "095644.982500", "095646.472500", "095647.962500", "095649.452500", "095650.942500", "095652.432500", "095653.922500", "095655.412500", "095656.902500", "095658.392500", "095659.882500", "095701.372500", "095702.862500", "095704.352500", "095705.842500", "095707.332500", "095708.822500", "095710.312500", "095711.802500", "095713.292500", "095714.782500", "095716.272500", "095717.762500", "095719.252500", "095720.742500", "095722.232500", "095723.722500", "095725.212500", "095726.702500", "095728.192500", "095729.682500", "095731.172500", "095732.662500", "095734.152500", "095735.642500", "095737.132500", "095738.622500", "095740.112500", "095741.602500", "095743.092500", "095744.582500", "095746.072500", "095747.562500", "095749.052500", "095750.542500", "095752.032500", "095753.522500", "095755.012500", "095756.502500", "095757.992500", "095759.482500", "095800.972500", "095802.462500", "095803.952500", "095805.442500", "095806.932500", "095808.422500", "095809.912500", "095811.402500", "095812.892500", "095814.382500", "095815.872500", "095817.362500", "095818.852500", "095820.342500", "095821.832500", "095823.322500", "095824.812500", "095826.302500", "095827.792500", "095829.282500", "095830.772500", "095832.262500", "095833.752500", "095835.242500", "095836.732500", "095838.222500", "095839.712500", "095841.202500", "095842.692500", "095844.182500", "095845.672500", "095847.162500", "095848.652500", "095850.142500", "095851.632500", "095853.122500", "095854.612500", "095856.102500", "095857.592500", "095859.082500", "095900.572500", "095902.062500", "095903.552500", "095905.042500", "095906.532500", "095908.022500", "095909.512500", "095911.002500", "095912.492500", "095913.982500", "095915.472500", "095916.962500", "095918.452500", "095919.942500", "095921.432500", "095922.922500", "095924.412500", "095925.902500", "095927.392500", "095928.882500", "095930.372500", "095931.862500", "095933.352500", "095934.842500", "095936.332500", "095937.822500", "095939.312500", "095940.802500", "095942.292500", "095943.782500", "095945.272500", "095946.762500", "095948.252500", "095949.742500", "095951.232500", "095952.722500", "095954.212500", "095955.702500", "095957.192500", "095958.682500", "100000.172500", "100001.662500", "100003.152500", "100004.642500", "100006.132500", "100007.622500", "100009.112500", "100010.602500", "100012.092500", "100013.582500", "100015.072500", "100016.562500", "100018.052500", "100019.542500", "100021.032500", "100022.522500", "100024.012500", "100025.502500", "100026.992500", "100028.482500", "100029.972500", "100031.462500", "100032.952500", "100034.442500", "100035.932500", "100037.422500", "100038.912500", "100040.402500", "100041.892500", "100043.382500", "100044.872500", "100046.362500", "100047.852500", "100049.342500", "100050.832500", "100052.322500", "100053.812500", "100055.302500", "100056.792500", "100058.282500", "100059.772500", "100101.262500", "100102.752500", "100104.242500", "100105.732500", "100107.222500", "100108.712500", "100110.202500", "100111.692500", "100113.182500", "100114.672500", "100116.162500", "100117.652500", "100119.142500", "100120.632500", "100122.122500", "100123.612500", "100125.102500", "100126.592500", "100128.082500", "100129.572500", "100131.062500", "100132.552500", "100134.042500", "100135.532500", "100137.022500", "100138.512500", "100140.002500", "100141.492500", "100142.982500", "100144.472500", "100145.962500", "100147.452500", "100148.942500", "100150.432500", "100151.922500", "100153.412500", "100154.902500", "100156.392500", "100157.882500", "100159.372500", "100200.862500", "100202.352500", "100203.842500", "100205.332500", "100206.822500", "100208.312500", "100209.802500", "100211.292500", "100212.782500", "100214.272500", "100215.762500", "100217.252500", "100218.742500", "100220.232500", "100221.722500", "100223.212500", "100224.702500", "100226.192500", "100227.682500", "100229.172500", "100230.662500", "100232.152500", "100233.642500", "100235.132500", "100236.622500", "100238.112500", "100239.602500", "100241.092500", "100242.582500", "100244.072500", "100245.562500", "100247.052500", "100248.542500", "100250.032500", "100251.522500", "100253.012500", "100254.502500", "100255.992500", "100257.482500", "100258.972500", "100300.462500", "100301.952500", "100303.442500", "100304.932500", "100306.422500", "100307.912500", "100309.402500", "100310.892500", "100312.382500", "100313.872500", "100315.362500", "100316.852500", "100318.342500", "100319.832500", "100321.322500", "100322.812500", "100324.302500", "100325.792500", "100327.282500", "100328.772500", "100330.262500", "100331.752500", "100333.242500", "100334.732500", "100336.222500", "100337.712500", "100339.202500", "100340.692500", "100342.182500", "100343.672500", "100345.162500", "100346.652500", "100348.142500", "100349.632500", "100351.122500", "100352.612500", "100354.102500", "100355.592500", "100357.082500", "100358.572500", "100400.062500", "100401.552500", "100403.042500", "100404.532500", "100406.022500", "100407.512500", "100409.002500", "100410.492500", "100411.982500", "100413.472500", "100414.962500", "100416.452500", "100417.942500", "100419.432500", "100420.922500", "100422.412500", "100423.902500", "100425.392500", "100426.882500", "100428.372500", "100429.862500", "100431.352500", "100432.842500", "100434.332500", "100435.822500", "100437.312500", "100438.802500", "100440.292500", "100441.782500", "100443.272500", "100444.762500", "100446.252500", "100447.742500", "100449.232500", "100450.722500", "100452.212500", "100453.702500", "100455.192500", "100456.682500", "100458.172500", "100459.662500", "100501.152500", "100502.642500", "100504.132500", "100505.622500", "100507.112500", "100508.602500", "100510.092500", "100511.582500", "100513.072500", "100514.562500", "100516.052500", "100517.542500", "100519.032500", "100520.522500", "100522.012500", "100523.502500", "100524.992500", "100526.482500", "100527.972500", "100529.462500", "100530.952500", "100532.442500", "100533.932500", "100535.422500", "100536.912500", "100538.402500", "100539.892500", "100541.382500", "100542.872500", "100544.362500", "100545.852500", "100547.342500", "100548.832500", "100550.322500", "100551.812500", "100553.302500", "100554.792500", "100556.282500", "100557.772500", "100559.262500", "100600.752500", "100602.242500", "100603.732500", "100605.222500", "100606.712500", "100608.202500", "100609.692500", "100611.182500", "100612.672500", "100614.162500", "100615.652500", "100617.142500", "100618.632500", "100620.122500", "100621.612500", "100623.102500", "100624.592500", "100626.082500", "100627.572500", "100629.062500", "100630.552500", "100632.042500", "100633.532500", "100635.022500", "100636.512500", "100638.002500", "100639.492500", "100640.982500", "100642.472500", "100643.962500", "100645.452500", "100646.942500", "100648.432500", "100649.922500", "100651.412500", "100652.902500", "100654.392500", "100655.882500", "100657.372500", "100658.862500", "100700.352500", "100701.842500", "100703.332500", "100704.822500", "100706.312500", "100707.802500", "100709.292500", "100710.782500", "100712.272500", "100713.762500", "100715.252500", "100716.742500", "100718.232500", "100719.722500", "100721.212500", "100722.702500", "100724.192500", "100725.682500", "100727.172500", "100728.662500", "100730.152500", "100731.642500", "100733.132500", "100734.622500", "100736.112500", "100737.602500", "100739.092500", "100740.582500", "100742.072500", "100743.562500", "100745.052500", "100746.542500", "100748.032500", "100749.522500", "100751.012500", "100752.502500", "100753.992500", "100755.482500", "100756.972500", "100758.462500", "100759.952500", "100801.442500", "100802.932500", "100804.422500", "100805.912500", "100807.402500", "100808.892500", "100810.382500", "100811.872500", "100813.362500", "100814.852500", "100816.342500", "100817.832500", "100819.322500", "100820.812500", "100822.302500", "100823.792500", "100825.282500", "100826.772500", "100828.262500", "100829.752500", "100831.242500", "100832.732500", "100834.222500", "100835.712500", "100837.202500", "100838.692500", "100840.182500", "100841.672500", "100843.162500", "100844.652500", "100846.142500", "100847.632500", "100849.122500", "100850.612500", "100852.102500", "100853.592500", "100855.082500", "100856.572500", "100858.062500", "100859.552500", "100901.042500", "100902.532500", "100904.022500", "100905.512500", "100907.002500", "100908.492500", "100909.982500"],
      "ContentTime": ["095813.264000", "095813.267000", "095813.276000", "095813.279000", "095813.282000", "095813.285000", "095813.288000", "095813.290000", "095813.293000", "095813.296000", "095813.299000", "095813.302000", "095813.305000", "095813.308000", "095813.311000", "095813.314000", "095813.317000", "095813.320000", "095813.323000", "095813.326000", "095813.328000", "095813.331000", "095813.334000", "095813.337000", "095813.340000", "095813.343000", "095813.346000", "095813.349000", "095813.352000", "095813.359000", "095813.362000", "095813.364000", "095813.367000", "095813.370000", "095813.373000", "095813.376000", "095813.379000", "095813.382000", "095833.236000", "095833.239000", "095833.242000", "095833.245000", "095833.251000", "095833.254000", "095833.256000", "095833.259000", "095833.262000", "095833.265000", "095833.268000", "095833.271000", "095833.274000", "095833.286000", "095833.289000", "095833.292000", "095833.295000", "095833.298000", "095833.301000", "095833.304000", "095853.236000", "095853.239000", "095853.242000", "095853.245000", "095853.248000", "095853.251000", "095853.254000", "095853.257000", "095853.259000", "095853.262000", "095853.265000", "095853.268000", "095853.271000", "095853.274000", "095853.277000", "095853.280000", "095853.283000", "095853.286000", "095853.289000", "095853.292000", "095913.236000", "095913.239000", "095913.242000", "095913.245000", "095913.248000", "095913.251000", "095913.254000", "095913.256000", "095913.259000", "095913.262000", "095913.265000", "095913.268000", "095913.271000", "095913.274000", "095913.277000", "095913.280000", "095913.283000", "095913.286000", "095913.288000", "095913.291000", "095953.235000", "095953.238000", "095953.241000", "095953.244000", "095953.247000", "095953.250000", "095953.253000", "095953.255000", "095953.258000", "095953.261000", "095953.264000", "095953.267000", "095953.270000", "095953.273000", "095953.276000", "095953.279000", "095953.282000", "095953.285000", "095953.288000", "095953.291000", "095953.294000", "095953.297000", "095953.300000", "095953.302000", "095953.305000", "095953.308000", "095953.311000", "095953.314000", "095953.317000", "095953.320000", "100033.235000", "100033.254000", "100033.257000", "100033.260000", "100033.263000", "100033.266000", "100033.269000", "100033.271000", "100033.274000", "100033.277000", "100033.280000", "100033.284000", "100033.287000", "100033.290000", "100033.293000", "100033.296000", "100033.299000", "100033.302000", "100033.304000", "100033.307000", "100033.310000", "100033.313000", "100033.316000", "100033.319000", "100033.322000", "100033.325000", "100113.236000", "100113.259000", "100113.262000", "100113.265000", "100113.268000", "100113.271000", "100113.274000", "100113.277000", "100113.280000", "100113.283000", "100113.286000", "100113.289000", "100113.292000", "100113.295000", "100113.298000", "100113.301000", "100113.303000", "100113.307000", "100113.310000", "100113.313000", "100113.315000", "100113.319000", "100113.321000", "100113.324000", "100113.327000", "100113.330000", "100113.333000", "100153.235000", "100153.238000", "100153.241000", "100153.244000", "100153.247000", "100153.250000", "100153.253000", "100153.256000", "100153.259000", "100153.261000", "100153.264000", "100153.267000", "100153.270000", "100153.273000", "100153.276000", "100153.279000", "100153.282000", "100153.285000", "100153.288000", "100153.291000", "100153.294000", "100153.297000", "100153.300000", "100153.303000", "100153.306000", "100153.309000", "100153.312000", "100233.235000", "100233.238000", "100233.241000", "100233.244000", "100233.247000", "100233.250000", "100233.253000", "100233.256000", "100233.258000", "100233.261000", "100233.264000", "100233.267000", "100233.270000", "100233.273000", "100233.276000", "100233.279000", "100233.282000", "100233.285000", "100233.288000", "100233.291000", "100233.294000", "100233.297000", "100233.300000", "100233.303000", "100233.305000", "100233.308000", "100233.311000", "100313.236000", "100313.239000", "100313.242000", "100313.245000", "100313.248000", "100313.251000", "100313.254000", "100313.257000", "100313.260000", "100313.262000", "100313.265000", "100313.268000", "100313.271000", "100313.274000", "100313.277000", "100313.280000", "100313.283000", "100313.286000", "100313.289000", "100313.292000", "100313.295000", "100313.298000", "100313.300000", "100313.303000", "100313.306000", "100313.318000", "100313.321000", "100353.236000", "100353.239000", "100353.242000", "100353.245000", "100353.248000", "100353.251000", "100353.254000", "100353.257000", "100353.259000", "100353.262000", "100353.265000", "100353.268000", "100353.271000", "100353.274000", "100353.277000", "100353.280000", "100353.283000", "100353.286000", "100353.289000", "100353.292000", "100353.295000", "100353.298000", "100353.300000", "100353.303000", "100353.306000", "100353.309000", "100353.312000", "100413.235000", "100413.238000", "100413.241000", "100413.244000", "100413.247000", "100413.250000", "100413.253000", "100413.256000", "100413.258000", "100413.261000", "100413.264000", "100413.267000", "100413.270000", "100453.235000", "100453.238000", "100453.241000", "100453.244000", "100453.247000", "100453.250000", "100453.253000", "100453.256000", "100453.259000", "100453.261000", "100453.264000", "100453.267000", "100453.270000", "100453.273000", "100453.276000", "100453.279000", "100453.282000", "100453.285000", "100453.288000", "100453.291000", "100453.294000", "100453.297000", "100453.299000", "100453.302000", "100453.305000", "100453.308000", "100453.311000", "100533.236000", "100533.239000", "100533.242000", "100533.245000", "100533.248000", "100533.251000", "100533.254000", "100533.256000", "100533.259000", "100533.262000", "100533.265000", "100533.268000", "100533.271000", "100533.274000", "100533.277000", "100533.280000", "100533.283000", "100533.286000", "100533.289000", "100533.292000", "100533.294000", "100533.297000", "100533.300000", "100533.303000", "100533.306000", "100533.309000", "100533.312000", "100613.236000", "100613.239000", "100613.242000", "100613.245000", "100613.248000", "100613.251000", "100613.254000", "100613.257000", "100613.260000", "100613.263000", "100613.266000", "100613.269000", "100613.272000", "100613.275000", "100613.277000", "100613.280000", "100613.283000", "100613.286000", "100613.289000", "100613.292000", "100613.295000", "100613.298000", "100613.301000", "100613.304000", "100613.307000", "100613.310000", "100613.313000", "100653.235000", "100653.238000", "100653.241000", "100653.244000", "100653.247000", "100653.250000", "100653.253000", "100653.256000", "100653.259000", "100653.269000", "100653.272000", "100653.275000", "100653.278000", "100653.281000", "100653.284000", "100653.287000", "100653.290000", "100653.293000", "100653.296000", "100653.299000", "100653.302000", "100653.305000", "100653.308000", "100653.310000", "100653.313000", "100653.316000", "100653.319000", "100733.236000", "100733.275000", "100733.278000", "100733.281000", "100733.284000", "100733.286000", "100733.289000", "100733.292000", "100733.295000", "100733.298000", "100733.301000", "100733.304000", "100733.307000", "100733.310000", "100733.313000", "100733.316000", "100733.319000", "100733.322000", "100733.325000", "100733.328000", "100733.331000", "100733.351000", "100733.355000", "100733.358000", "100733.361000", "100733.364000", "100813.236000", "100813.239000", "100813.242000", "100813.245000", "100813.248000", "100813.251000", "100813.254000", "100813.257000", "100813.260000", "100813.263000", "100813.266000", "100813.268000", "100813.271000", "100813.274000", "100813.277000", "100813.280000", "100813.283000", "100813.286000", "100813.289000", "100813.292000", "100813.295000", "100813.298000", "100813.301000", "100813.304000", "100813.307000", "100813.309000", "100813.312000", "100853.235000", "100853.238000", "100853.241000", "100853.244000", "100853.247000", "100853.250000", "100853.253000", "100853.256000", "100853.259000", "100853.262000", "100853.265000", "100853.267000", "100853.270000", "100853.273000", "100853.276000", "100853.279000", "100853.282000", "100853.285000", "100853.288000", "100853.291000", "100853.294000", "100853.297000", "100853.300000", "100853.303000", "100853.305000", "100853.308000", "100853.311000", "100911.739000", "100911.742000", "100911.745000", "100911.748000", "100911.751000", "100911.754000", "100911.757000", "100911.760000", "100911.764000", "100911.767000", "100911.770000", "100911.773000", "100911.775000"],
