{
  "AcquisitionMatrixPE": 104,
  "AcquisitionNumber": 1,
  "AcquisitionTime": "09:30:39.542500",
  "BandwidthPerPixelPhaseEncode": 17.17,
  "BaseResolution": 104,
  "BodyPartExamined": "BRAIN",
  "CoilString": "HC1-7;NC1_2",
  "ConsistencyInfo": "N4_VE11C_LATEST_20160120",
  "ConversionSoftware": "dcm2niix",
  "ConversionSoftwareVersion": "v1.0.20190902",
  "DerivedVendorReportedEchoSpacing": 0.000560011,
  "DeviceSerialNumber": "167006",
  "DwellTime": 2.1e-06,
  "EchoTime": 0.037,
  "EchoTrainLength": 104,
  "EffectiveEchoSpacing": 0.000560011,
  "FlipAngle": 52,
  "ImageComments": "Unaliased_MB4_PE3_LB",
  "ImageOrientationPatientDICOM": [0.999175, 0.0395103, 0.00938508, -0.0293058, 0.861516, -0.506885],
  "ImageType": [
    "ORIGINAL",
    "PRIMARY",
    "M",
    "MB",
    "ND",
    "MOSAIC"
],
  "ImagingFrequency": 123.259,
  "InPlanePhaseEncodingDirectionDICOM": "COL",
  "InstitutionAddress": "Chemin_Queen-Mary_4565_Montreal_District_CA_H3W_1W5",
  "InstitutionName": "IUGM",
  "InstitutionalDepartmentName": "Department",
  "MRAcquisitionType": "2D",
  "MagneticFieldStrength": 3,
  "Manufacturer": "Siemens",
  "ManufacturersModelName": "Prisma_fit",
  "Modality": "MR",
  "MultibandAccelerationFactor": 4,
  "PartialFourier": 1,
  "PatientPosition": "HFS",
  "PercentPhaseFOV": 100,
  "PhaseEncodingDirection": "j",
  "PhaseEncodingSteps": 104,
  "PhaseResolution": 1,
  "PixelBandwidth": 2290,
  "ProcedureStepDescription": "video_friends",
  "ProtocolName": "func_task-friends-s04e07b",
  "PulseSequenceDetails": "%CustomerSeq%_cmrr_mbep2d_bold",
  "ReceiveCoilActiveElements": "HC1-7;NC1,2",
  "ReceiveCoilName": "HeadNeck_64",
  "ReconMatrixPE": 104,
  "RepetitionTime": 1.49,
  "SAR": 0.0360658,
  "ScanOptions": "FS",
  "ScanningSequence": "EP",
  "SequenceName": "epfid2d1_104",
  "SequenceVariant": "SK_SS",
  "SeriesDescription": "func_task-friends-s04e07b",
  "SeriesNumber": 11,
  "ShimSetting": [633, -7201, -8870, 397, -8, -194, 6, 0],
  "SliceThickness": 2,
  "SliceTiming": [0, 0.785, 0.0975, 0.8825, 0.195, 0.98, 0.295, 1.0775, 0.3925, 1.175, 0.49, 1.275, 0.5875, 1.3725, 0.685, 0, 0.785, 0.0975, 0.8825, 0.195, 0.98, 0.295, 1.0775, 0.3925, 1.175, 0.49, 1.275, 0.5875, 1.3725, 0.685, 0, 0.785, 0.0975, 0.8825, 0.195, 0.98, 0.295, 1.0775, 0.3925, 1.175, 0.49, 1.275, 0.5875, 1.3725, 0.685, 0, 0.785, 0.0975, 0.8825, 0.195, 0.98, 0.295, 1.0775, 0.3925, 1.175, 0.49, 1.275, 0.5875, 1.3725, 0.685],
  "SoftwareVersions": "syngo_MR_E11",
  "SpacingBetweenSlices": 2,
  "StationName": "MRC35049",
  "TaskName": "s04e07b",
  "TotalReadoutTime": 0.0576811,
  "TxRefAmp": 249.553,
  "WipMemBlock": "d732debb-a3a8-43a7-8b2b-59c042be3644||Sequence: R016 ve11c/master r/e634e98; Dec 19 2017 11:00:25 by eja",
  "dcmmeta_affine": [
    [-1.9983501434326172, -0.058611564338207245, 0.05622513219714165, 105.27973175048828],
    [-0.07902064919471741, 1.7230311632156372, -1.012382984161377, -55.45890426635742],
    [0.01877015270292759, 1.013769268989563, 1.7239255905151367, -96.87533569335938],
    [0.0, 0.0, 0.0, 1.0]
],
  "dcmmeta_reorient_transform": [
    [0.0, -1.0, 0.0, 103.0],
    [1.0, 0.0, 0.0, 0.0],
    [0.0, 0.0, 1.0, 0.0],
    [0.0, 0.0, 0.0, 1.0]
],
  "dcmmeta_shape": [104, 104, 60, 497],
  "dcmmeta_slice_dim": 2,
  "dcmmeta_version": 0.6,
  "global": {
    "const": {
      "AcquisitionMatrix": [104, 0, 0, 104],
      "AngioFlag": "N",
      "BitsAllocated": 16,
      "BitsStored": 16,
      "BodyPartExamined": "BRAIN",
      "Columns": 832,
      "EchoNumbers": 1,
      "EchoTime": 37.0,
      "EchoTrainLength": 104,
      "FlipAngle": 52.0,
      "HighBit": 15,
      "ImageOrientationPatient": [0.99917508711542, 0.03951032316505, 0.00938507598772, -0.0293057829516, 0.86151558853679, -0.5068846632062],
      "ImagePositionPatient": [-805.30759203604, -777.9601705507, 369.72260074916],
      "ImageType": [
        "ORIGINAL",
        "PRIMARY",
        "M",
        "MB",
        "ND",
        "MOSAIC"
],
      "ImagedNucleus": "1H",
      "ImagingFrequency": 123.259029,
      "InPlanePhaseEncodingDirection": "COL",
      "MRAcquisitionType": "2D",
      "MagneticFieldStrength": 3.0,
      "Manufacturer": "SIEMENS",
      "ManufacturerModelName": "Prisma_fit",
      "Modality": "MR",
      "NumberOfAverages": 1.0,
      "NumberOfPhaseEncodingSteps": 104,
      "PercentPhaseFieldOfView": 100.0,
      "PercentSampling": 100.0,
      "PerformedProcedureStepStartTime": "090447.929000",
      "PhotometricInterpretation": "MONOCHROME2",
      "PixelBandwidth": 2290.0,
      "PixelRepresentation": 0,
      "PixelSpacing": [2.0, 2.0],
      "ProtocolName": "func_task-friends-s04e07b",
      "RepetitionTime": 1490.0,
      "Rows": 832,
      "SAR": 0.03606576949733,
      "SamplesPerPixel": 1,
      "ScanOptions": "FS",
      "ScanningSequence": "EP",
      "SequenceName": "epfid2d1_104",
      "SequenceVariant": [
        "SK",
        "SS"
],
      "SeriesDescription": "func_task-friends-s04e07b",
      "SeriesNumber": 11,
      "SeriesTime": "093210.495000",
      "SliceLocation": -52.470429356501,
      "SliceThickness": 2.0,
      "SmallestImagePixelValue": 0,
      "SoftwareVersions": "syngo MR E11",
      "SpacingBetweenSlices": 1.9999999929107,
      "SpecificCharacterSet": "ISO_IR 100",
      "StudyID": "1",
      "StudyTime": "090447.814000",
      "TransmitCoilName": "Body",
      "VariableFlipAngleFlag": "N",
      "WindowCenterWidthExplanation": "Algo1",
      "dBdt": 0.0},
    "slices": {}
  },
  "time": {
    "samples": {
      "AcquisitionNumber": [1, 2, 3, 4, 5, 6, 7, 8, 9, 10, 11, 12, 13, 14, 15, 16, 17, 18, 19, 20, 21, 22, 23, 24, 25, 26, 27, 28, 29, 30, 31, 32, 33, 34, 35, 36, 37, 38, 39, 40, 41, 42, 43, 44, 45, 46, 47, 48, 49, 50, 51, 52, 53, 54, 55, 56, 57, 58, 59, 60, 61, 62, 63, 64, 65, 66, 67, 68, 69, 70, 71, 72, 73, 74, 75, 76, 77, 78, 79, 80, 81, 82, 83, 84, 85, 86, 87, 88, 89, 90, 91, 92, 93, 94, 95, 96, 97, 98, 99, 100, 101, 102, 103, 104, 105, 106, 107, 108, 109, 110, 111, 112, 113, 114, 115, 116, 117, 118, 119, 120, 121, 122, 123, 124, 125, 126, 127, 128, 129, 130, 131, 132, 133, 134, 135, 136, 137, 138, 139, 140, 141, 142, 143, 144, 145, 146, 147, 148, 149, 150, 151, 152, 153, 154, 155, 156, 157, 158, 159, 160, 161, 162, 163, 164, 165, 166, 167, 168, 169, 170, 171, 172, 173, 174, 175, 176, 177, 178, 179, 180, 181, 182, 183, 184, 185, 186, 187, 188, 189, 190, 191, 192, 193, 194, 195, 196, 197, 198, 199, 200, 201, 202, 203, 204, 205, 206, 207, 208, 209, 210, 211, 212, 213, 214, 215, 216, 217, 218, 219, 220, 221, 222, 223, 224, 225, 226, 227, 228, 229, 230, 231, 232, 233, 234, 235, 236, 237, 238, 239, 240, 241, 242, 243, 244, 245, 246, 247, 248, 249, 250, 251, 252, 253, 254, 255, 256, 257, 258, 259, 260, 261, 262, 263, 264, 265, 266, 267, 268, 269, 270, 271, 272, 273, 274, 275, 276, 277, 278, 279, 280, 281, 282, 283, 284, 285, 286, 287, 288, 289, 290, 291, 292, 293, 294, 295, 296, 297, 298, 299, 300, 301, 302, 303, 304, 305, 306, 307, 308, 309, 310, 311, 312, 313, 314, 315, 316, 317, 318, 319, 320, 321, 322, 323, 324, 325, 326, 327, 328, 329, 330, 331, 332, 333, 334, 335, 336, 337, 338, 339, 340, 341, 342, 343, 344, 345, 346, 347, 348, 349, 350, 351, 352, 353, 354, 355, 356, 357, 358, 359, 360, 361, 362, 363, 364, 365, 366, 367, 368, 369, 370, 371, 372, 373, 374, 375, 376, 377, 378, 379, 380, 381, 382, 383, 384, 385, 386, 387, 388, 389, 390, 391, 392, 393, 394, 395, 396, 397, 398, 399, 400, 401, 402, 403, 404, 405, 406, 407, 408, 409, 410, 411, 412, 413, 414, 415, 416, 417, 418, 419, 420, 421, 422, 423, 424, 425, 426, 427, 428, 429, 430, 431, 432, 433, 434, 435, 436, 437, 438, 439, 440, 441, 442, 443, 444, 445, 446, 447, 448, 449, 450, 451, 452, 453, 454, 455, 456, 457, 458, 459, 460, 461, 462, 463, 464, 465, 466, 467, 468, 469, 470, 471, 472, 473, 474, 475, 476, 477, 478, 479, 480, 481, 482, 483, 484, 485, 486, 487, 488, 489, 490, 491, 492, 493, 494, 495, 496, 497],
      "AcquisitionTime": ["093039.542500", "093041.032500", "093042.522500", "093044.012500", "093045.502500", "093046.992500", "093048.482500", "093049.972500", "093051.462500", "093052.952500", "093054.442500", "093055.932500", "093057.422500", "093058.912500", "093100.402500", "093101.892500", "093103.382500", "093104.872500", "093106.362500", "093107.852500", "093109.342500", "093110.832500", "093112.322500", "093113.812500", "093115.302500", "093116.792500", "093118.282500", "093119.772500", "093121.262500", "093122.752500", "093124.242500", "093125.732500", "093127.222500", "093128.712500", "093130.202500", "093131.692500", "093133.182500", "093134.672500", "093136.162500", "093137.652500", "093139.142500", "093140.632500", "093142.122500", "093143.612500", "093145.102500", "093146.592500", "093148.082500", "093149.572500", "093151.062500", "093152.552500", "093154.042500", "093155.532500", "093157.022500", "093158.512500", "093200.002500", "093201.492500", "093202.982500", "093204.472500", "093205.962500", "093207.452500", "093208.942500", "093210.432500", "093211.922500", "093213.412500", "093214.902500", "093216.392500", "093217.882500", "093219.372500", "093220.862500", "093222.352500", "093223.842500", "093225.332500", "093226.822500", "093228.312500", "093229.802500", "093231.292500", "093232.782500", "093234.272500", "093235.762500", "093237.252500", "093238.742500", "093240.232500", "093241.722500", "093243.212500", "093244.702500", "093246.192500", "093247.682500", "093249.172500", "093250.662500", "093252.152500", "093253.642500", "093255.132500", "093256.622500", "093258.112500", "093259.602500", "093301.092500", "093302.582500", "093304.072500", "093305.562500", "093307.052500", "093308.542500", "093310.032500", "093311.522500", "093313.012500", "093314.502500", "093315.992500", "093317.482500", "093318.972500", "093320.462500", "093321.952500", "093323.442500", "093324.932500", "093326.422500", "093327.912500", "093329.402500", "093330.892500", "093332.382500", "093333.872500", "093335.362500", "093336.852500", "093338.342500", "093339.832500", "093341.322500", "093342.812500", "093344.302500", "093345.792500", "093347.282500", "093348.772500", "093350.262500", "093351.752500", "093353.242500", "093354.732500", "093356.222500", "093357.712500", "093359.202500", "093400.692500", "093402.182500", "093403.672500", "093405.162500", "093406.652500", "093408.142500", "093409.632500", "093411.122500", "093412.612500", "093414.102500", "093415.592500", "093417.082500", "093418.572500", "093420.062500", "093421.552500", "093423.042500", "093424.532500", "093426.022500", "093427.512500", "093429.002500", "093430.492500", "093431.982500", "093433.472500", "093434.962500", "093436.452500", "093437.942500", "093439.432500", "093440.922500", "093442.412500", "093443.902500", "093445.392500", "093446.882500", "093448.372500", "093449.862500", "093451.352500", "093452.842500", "093454.332500", "093455.822500", "093457.312500", "093458.802500", "093500.292500", "093501.782500", "093503.272500", "093504.762500", "093506.252500", "093507.742500", "093509.232500", "093510.722500", "093512.212500", "093513.702500", "093515.192500", "093516.682500", "093518.172500", "093519.662500", "093521.152500", "093522.642500", "093524.132500", "093525.622500", "093527.112500", "093528.602500", "093530.092500", "093531.582500", "093533.072500", "093534.562500", "093536.052500", "093537.542500", "093539.032500", "093540.522500", "093542.012500", "093543.502500", "093544.992500", "093546.482500", "093547.972500", "093549.462500", "093550.952500", "093552.442500", "093553.932500", "093555.422500", "093556.912500", "093558.402500", "093559.892500", "093601.382500", "093602.872500", "093604.362500", "093605.852500", "093607.342500", "093608.832500", "093610.322500", "093611.812500", "093613.302500", "093614.792500", "093616.282500", "093617.772500", "093619.262500", "093620.752500", "093622.242500", "093623.732500", "093625.222500", "093626.712500", "093628.202500", "093629.692500", "093631.182500", "093632.672500", "093634.162500", "093635.652500", "093637.142500", "093638.632500", "093640.122500", "093641.612500", "093643.102500", "093644.592500", "093646.082500", "093647.572500", "093649.062500", "093650.552500", "093652.042500", "093653.532500", "093655.022500", "093656.512500", "093658.002500", "093659.492500", "093700.982500", "093702.472500", "093703.962500", "093705.452500", "093706.942500", "093708.432500", "093709.922500", "093711.412500", "093712.902500", "093714.392500", "093715.882500", "093717.372500", "093718.862500", "093720.352500", "093721.842500", "093723.332500", "093724.822500", "093726.312500", "093727.802500", "093729.292500", "093730.782500", "093732.272500", "093733.762500", "093735.252500", "093736.742500", "093738.232500", "093739.722500", "093741.212500", "093742.702500", "093744.192500", "093745.682500", "093747.172500", "093748.662500", "093750.152500", "093751.642500", "093753.132500", "093754.622500", "093756.112500", "093757.602500", "093759.092500", "093800.582500", "093802.072500", "093803.562500", "093805.052500", "093806.542500", "093808.032500", "093809.522500", "093811.012500", "093812.502500", "093813.992500", "093815.482500", "093816.972500", "093818.462500", "093819.952500", "093821.442500", "093822.932500", "093824.422500", "093825.912500", "093827.402500", "093828.892500", "093830.382500", "093831.872500", "093833.362500", "093834.852500", "093836.342500", "093837.832500", "093839.322500", "093840.812500", "093842.302500", "093843.792500", "093845.282500", "093846.772500", "093848.262500", "093849.752500", "093851.242500", "093852.732500", "093854.222500", "093855.712500", "093857.202500", "093858.692500", "093900.182500", "093901.672500", "093903.162500", "093904.652500", "093906.142500", "093907.632500", "093909.122500", "093910.612500", "093912.102500", "093913.592500", "093915.082500", "093916.572500", "093918.062500", "093919.552500", "093921.042500", "093922.532500", "093924.022500", "093925.512500", "093927.002500", "093928.492500", "093929.982500", "093931.472500", "093932.962500", "093934.452500", "093935.942500", "093937.432500", "093938.922500", "093940.412500", "093941.902500", "093943.392500", "093944.882500", "093946.372500", "093947.862500", "093949.352500", "093950.842500", "093952.332500", "093953.822500", "093955.312500", "093956.802500", "093958.292500", "093959.782500", "094001.272500", "094002.762500", "094004.252500", "094005.742500", "094007.232500", "094008.722500", "094010.212500", "094011.702500", "094013.192500", "094014.682500", "094016.172500", "094017.662500", "094019.152500", "094020.642500", "094022.132500", "094023.622500", "094025.112500", "094026.602500", "094028.092500", "094029.582500", "094031.072500", "094032.562500", "094034.052500", "094035.542500", "094037.032500", "094038.522500", "094040.012500", "094041.502500", "094042.992500", "094044.482500", "094045.972500", "094047.462500", "094048.952500", "094050.442500", "094051.932500", "094053.422500", "094054.912500", "094056.402500", "094057.892500", "094059.382500", "094100.872500", "094102.362500", "094103.852500", "094105.342500", "094106.832500", "094108.322500", "094109.812500", "094111.302500", "094112.792500", "094114.282500", "094115.772500", "094117.262500", "094118.752500", "094120.242500", "094121.732500", "094123.222500", "094124.712500", "094126.202500", "094127.692500", "094129.182500", "094130.672500", "094132.162500", "094133.652500", "094135.142500", "094136.632500", "094138.122500", "094139.612500", "094141.102500", "094142.592500", "094144.082500", "094145.572500", "094147.062500", "094148.552500", "094150.042500", "094151.532500", "094153.022500", "094154.512500", "094156.002500", "094157.492500", "094158.982500", "094200.472500", "094201.962500", "094203.452500", "094204.942500", "094206.432500", "094207.922500", "094209.412500", "094210.902500", "094212.392500", "094213.882500", "094215.372500", "094216.862500", "094218.352500", "094219.842500", "094221.332500", "094222.822500", "094224.312500", "094225.802500", "094227.292500", "094228.782500", "094230.272500", "094231.762500", "094233.252500", "094234.742500", "094236.232500", "094237.722500", "094239.212500", "094240.702500", "094242.192500", "094243.682500", "094245.172500", "094246.662500", "094248.152500", "094249.642500", "094251.132500", "094252.622500", "094254.112500", "094255.602500", "094257.092500", "094258.582500"],
      "ContentTime": ["093210.497000", "093210.501000", "093210.504000", "093210.507000", "093210.509000", "093210.512000", "093210.515000", "093210.518000", "093210.521000", "093210.524000", "093210.527000", "093210.530000", "093210.533000", "093210.536000", "093210.539000", "093210.542000", "093210.544000", "093210.547000", "093210.550000", "093210.553000", "093210.556000", "093210.559000", "093210.562000", "093210.565000", "093210.568000", "093210.571000", "093210.574000", "093210.577000", "093210.580000", "093210.583000", "093210.589000", "093210.592000", "093210.595000", "093210.598000", "093210.601000", "093210.603000", "093210.606000", "093210.609000", "093230.440000", "093230.443000", "093230.446000", "093230.449000", "093230.452000", "093230.455000", "093230.457000", "093230.460000", "093230.463000", "093230.466000", "093230.469000", "093230.472000", "093230.475000", "093230.478000", "093230.481000", "093230.484000", "093230.486000", "093230.489000", "093230.492000", "093230.495000", "093250.440000", "093250.443000", "093250.446000", "093250.449000", "093250.452000", "093250.455000", "093250.457000", "093250.460000", "093250.463000", "093250.466000", "093250.469000", "093250.472000", "093250.475000", "093250.478000", "093250.481000", "093250.484000", "093250.486000", "093250.489000", "093250.492000", "093250.495000", "093310.440000", "093310.443000", "093310.446000", "093310.449000", "093310.452000", "093310.455000", "093310.457000", "093310.461000", "093310.464000", "093310.467000", "093310.470000", "093310.473000", "093310.476000", "093310.479000", "093310.482000", "093310.485000", "093310.487000", "093310.490000", "093310.493000", "093310.496000", "093350.440000", "093350.443000", "093350.446000", "093350.449000", "093350.453000", "093350.456000", "093350.459000", "093350.462000", "093350.465000", "093350.468000", "093350.471000", "093350.474000", "093350.477000", "093350.480000", "093350.483000", "093350.486000", "093350.489000", "093350.492000", "093350.495000", "093350.498000", "093350.501000", "093350.504000", "093350.507000", "093350.510000", "093350.513000", "093350.516000", "093350.519000", "093350.522000", "093350.525000", "093410.440000", "093410.443000", "093410.446000", "093410.449000", "093410.452000", "093410.455000", "093410.458000", "093410.461000", "093410.464000", "093410.467000", "093410.469000", "093410.472000", "093410.475000", "093410.478000", "093450.440000", "093450.443000", "093450.446000", "093450.449000", "093450.452000", "093450.455000", "093450.458000", "093450.461000", "093450.472000", "093450.475000", "093450.478000", "093450.481000", "093450.484000", "093450.487000", "093450.490000", "093450.493000", "093450.496000", "093450.499000", "093450.502000", "093450.505000", "093450.508000", "093450.511000", "093450.513000", "093450.516000", "093450.519000", "093450.522000", "093450.525000", "093530.440000", "093530.455000", "093530.458000", "093530.461000", "093530.464000", "093530.467000", "093530.470000", "093530.473000", "093530.476000", "093530.483000", "093530.486000", "093530.489000", "093530.492000", "093530.495000", "093530.498000", "093530.501000", "093530.504000", "093530.507000", "093530.510000", "093530.513000", "093530.516000", "093530.519000", "093530.521000", "093530.524000", "093530.528000", "093530.531000", "093610.440000", "093610.443000", "093610.446000", "093610.449000", "093610.452000", "093610.455000", "093610.458000", "093610.461000", "093610.464000", "093610.470000", "093610.473000", "093610.476000", "093610.479000", "093610.482000", "093610.485000", "093610.488000", "093610.491000", "093610.494000", "093610.497000", "093610.500000", "093610.503000", "093610.506000", "093610.509000", "093610.517000", "093610.520000", "093610.523000", "093610.526000", "093650.440000", "093650.443000", "093650.446000", "093650.449000", "093650.452000", "093650.455000", "093650.458000", "093650.461000", "093650.464000", "093650.467000", "093650.470000", "093650.473000", "093650.476000", "093650.479000", "093650.482000", "093650.485000", "093650.488000", "093650.491000", "093650.494000", "093650.496000", "093650.500000", "093650.502000", "093650.505000", "093650.508000", "093650.511000", "093650.514000", "093650.517000", "093730.440000", "093730.443000", "093730.446000", "093730.449000", "093730.452000", "093730.455000", "093730.458000", "093730.461000", "093730.464000", "093730.467000", "093730.470000", "093730.473000", "093730.476000", "093730.479000", "093730.482000", "093730.485000", "093730.488000", "093730.491000", "093730.494000", "093730.497000", "093730.500000", "093730.503000", "093730.505000", "093730.508000", "093730.511000", "093730.514000", "093730.517000", "093810.440000", "093810.443000", "093810.446000", "093810.449000", "093810.452000", "093810.455000", "093810.458000", "093810.461000", "093810.464000", "093810.466000", "093810.469000", "093810.472000", "093810.475000", "093810.478000", "093810.481000", "093810.484000", "093810.487000", "093810.490000", "093810.493000", "093810.496000", "093810.499000", "093810.502000", "093810.505000", "093810.507000", "093810.510000", "093810.513000", "093810.516000", "093850.440000", "093850.443000", "093850.446000", "093850.449000", "093850.452000", "093850.455000", "093850.458000", "093850.461000", "093850.464000", "093850.467000", "093850.470000", "093850.473000", "093850.476000", "093850.478000", "093850.481000", "093850.484000", "093850.487000", "093850.490000", "093850.493000", "093850.496000", "093850.499000", "093850.502000", "093850.505000", "093850.508000", "093850.511000", "093850.514000", "093850.516000", "093930.440000", "093930.443000", "093930.446000", "093930.449000", "093930.452000", "093930.455000", "093930.458000", "093930.461000", "093930.464000", "093930.467000", "093930.470000", "093930.473000", "093930.476000", "093930.479000", "093930.482000", "093930.485000", "093930.488000", "093930.490000", "093930.493000", "093930.496000", "093930.499000", "093930.502000", "093930.505000", "093930.521000", "093930.525000", "093930.527000", "094010.440000", "094010.443000", "094010.446000", "094010.449000", "094010.452000", "094010.455000", "094010.458000", "094010.461000", "094010.464000", "094010.466000", "094010.469000", "094010.472000", "094010.475000", "094010.478000", "094010.481000", "094010.484000", "094010.487000", "094010.490000", "094010.493000", "094010.496000", "094010.499000", "094010.502000", "094010.505000", "094010.508000", "094010.510000", "094010.513000", "094010.516000", "094050.440000", "094050.443000", "094050.446000", "094050.449000", "094050.452000", "094050.455000", "094050.464000", "094050.467000", "094050.470000", "094050.473000", "094050.476000", "094050.479000", "094050.482000", "094050.485000", "094050.488000", "094050.491000", "094050.494000", "094050.497000", "094050.500000", "094050.503000", "094050.505000", "094050.508000", "094050.511000", "094050.514000", "094050.517000", "094050.520000", "094050.523000", "094130.440000", "094130.443000", "094130.446000", "094130.449000", "094130.452000", "094130.455000", "094130.458000", "094130.461000", "094130.463000", "094130.467000", "094130.469000", "094130.472000", "094130.475000", "094130.478000", "094130.481000", "094130.484000", "094130.487000", "094130.490000", "094130.493000", "094130.496000", "094130.499000", "094130.501000", "094130.504000", "094130.507000", "094130.510000", "094130.513000", "094130.516000", "094210.440000", "094210.443000", "094210.446000", "094210.454000", "094210.456000", "094210.459000", "094210.462000", "094210.465000", "094210.468000", "094210.471000", "094210.474000", "094210.477000", "094210.480000", "094210.483000", "094210.486000", "094210.489000", "094210.492000", "094210.495000", "094210.498000", "094210.501000", "094210.504000", "094210.507000", "094210.510000", "094210.512000", "094210.515000", "094210.518000", "094210.521000", "094250.440000", "094250.443000", "094250.446000", "094250.449000", "094250.452000", "094250.455000", "094250.458000", "094250.461000", "094250.464000", "094250.467000", "094250.470000", "094250.473000", "094250.476000", "094250.479000", "094250.482000", "094250.485000", "094250.487000", "094250.490000", "094250.493000", "094250.496000", "094250.499000", "094250.502000", "094250.505000", "094250.508000", "094250.511000", "094250.514000", "094250.517000", "094300.661000", "094300.664000", "094300.667000", "094300.670000", "094300.673000", "094300.676000", "094300.679000"],
