{
  "AcquisitionMatrixPE": 104,
  "AcquisitionNumber": 1,
  "AcquisitionTime": "10:09:38.482500",
  "BandwidthPerPixelPhaseEncode": 17.17,
  "BaseResolution": 104,
  "BodyPartExamined": "BRAIN",
  "CoilString": "HC1-7;NC1_2",
  "ConsistencyInfo": "N4_VE11C_LATEST_20160120",
  "ConversionSoftware": "dcm2niix",
  "ConversionSoftwareVersion": "v1.0.20190902",
  "DerivedVendorReportedEchoSpacing": 0.000560011,
  "DeviceSerialNumber": "167006",
  "DwellTime": 2.1e-06,
  "EchoTime": 0.037,
  "EchoTrainLength": 104,
  "EffectiveEchoSpacing": 0.000560011,
  "FlipAngle": 52,
  "ImageComments": "Unaliased_MB4_PE3_LB",
  "ImageOrientationPatientDICOM": [0.999175, 0.0395103, 0.00938508, -0.0293058, 0.861516, -0.506885],
  "ImageType": [
    "ORIGINAL",
    "PRIMARY",
    "M",
    "MB",
    "ND",
    "MOSAIC"
],
  "ImagingFrequency": 123.259,
  "InPlanePhaseEncodingDirectionDICOM": "COL",
  "InstitutionAddress": "Chemin_Queen-Mary_4565_Montreal_District_CA_H3W_1W5",
  "InstitutionName": "IUGM",
  "InstitutionalDepartmentName": "Department",
  "MRAcquisitionType": "2D",
  "MagneticFieldStrength": 3,
  "Manufacturer": "Siemens",
  "ManufacturersModelName": "Prisma_fit",
  "Modality": "MR",
  "MultibandAccelerationFactor": 4,
  "PartialFourier": 1,
  "PatientPosition": "HFS",
  "PercentPhaseFOV": 100,
  "PhaseEncodingDirection": "j",
  "PhaseEncodingSteps": 104,
  "PhaseResolution": 1,
  "PixelBandwidth": 2290,
  "ProcedureStepDescription": "video_friends",
  "ProtocolName": "func_task-friends-s04e09a",
  "PulseSequenceDetails": "%CustomerSeq%_cmrr_mbep2d_bold",
  "ReceiveCoilActiveElements": "HC1-7;NC1,2",
  "ReceiveCoilName": "HeadNeck_64",
  "ReconMatrixPE": 104,
  "RepetitionTime": 1.49,
  "SAR": 0.0360476,
  "ScanOptions": "FS",
  "ScanningSequence": "EP",
  "SequenceName": "epfid2d1_104",
  "SequenceVariant": "SK_SS",
  "SeriesDescription": "func_task-friends-s04e09a",
  "SeriesNumber": 17,
  "ShimSetting": [633, -7201, -8870, 397, -8, -194, 6, 0],
  "SliceThickness": 2,
  "SliceTiming": [0, 0.7825, 0.0975, 0.8825, 0.195, 0.98, 0.2925, 1.0775, 0.3925, 1.175, 0.49, 1.2725, 0.5875, 1.3725, 0.685, 0, 0.7825, 0.0975, 0.8825, 0.195, 0.98, 0.2925, 1.0775, 0.3925, 1.175, 0.49, 1.2725, 0.5875, 1.3725, 0.685, 0, 0.7825, 0.0975, 0.8825, 0.195, 0.98, 0.2925, 1.0775, 0.3925, 1.175, 0.49, 1.2725, 0.5875, 1.3725, 0.685, 0, 0.7825, 0.0975, 0.8825, 0.195, 0.98, 0.2925, 1.0775, 0.3925, 1.175, 0.49, 1.2725, 0.5875, 1.3725, 0.685],
  "SoftwareVersions": "syngo_MR_E11",
  "SpacingBetweenSlices": 2,
  "StationName": "MRC35049",
  "TaskName": "s04e09a",
  "TotalReadoutTime": 0.0576811,
  "TxRefAmp": 249.553,
  "WipMemBlock": "4790ee0d-ab3e-4440-8235-26bac9e08518||Sequence: R016 ve11c/master r/e634e98; Dec 19 2017 11:00:25 by eja",
  "dcmmeta_affine": [
    [-1.9983501434326172, -0.058611564338207245, 0.05622513219714165, 105.27973175048828],
    [-0.07902064919471741, 1.7230311632156372, -1.012382984161377, -55.45890426635742],
    [0.01877015270292759, 1.013769268989563, 1.7239255905151367, -96.87533569335938],
    [0.0, 0.0, 0.0, 1.0]
],
  "dcmmeta_reorient_transform": [
    [0.0, -1.0, 0.0, 103.0],
    [1.0, 0.0, 0.0, 0.0],
    [0.0, 0.0, 1.0, 0.0],
    [0.0, 0.0, 0.0, 1.0]
],
  "dcmmeta_shape": [104, 104, 60, 441],
  "dcmmeta_slice_dim": 2,
  "dcmmeta_version": 0.6,
  "global": {
    "const": {
      "AcquisitionMatrix": [104, 0, 0, 104],
      "AngioFlag": "N",
      "BitsAllocated": 16,
      "BitsStored": 16,
      "BodyPartExamined": "BRAIN",
      "Columns": 832,
      "EchoNumbers": 1,
      "EchoTime": 37.0,
      "EchoTrainLength": 104,
      "FlipAngle": 52.0,
      "HighBit": 15,
      "ImageOrientationPatient": [0.99917508711542, 0.03951032316505, 0.00938507598772, -0.0293057829516, 0.86151558853679, -0.5068846632062],
      "ImagePositionPatient": [-805.30759203604, -777.9601705507, 369.72260074916],
      "ImageType": [
        "ORIGINAL",
        "PRIMARY",
        "M",
        "MB",
        "ND",
        "MOSAIC"
],
      "ImagedNucleus": "1H",
      "ImagingFrequency": 123.259046,
      "InPlanePhaseEncodingDirection": "COL",
      "MRAcquisitionType": "2D",
      "MagneticFieldStrength": 3.0,
      "Manufacturer": "SIEMENS",
      "ManufacturerModelName": "Prisma_fit",
      "Modality": "MR",
      "NumberOfAverages": 1.0,
      "NumberOfPhaseEncodingSteps": 104,
      "PercentPhaseFieldOfView": 100.0,
      "PercentSampling": 100.0,
      "PerformedProcedureStepStartTime": "090447.929000",
      "PhotometricInterpretation": "MONOCHROME2",
      "PixelBandwidth": 2290.0,
      "PixelRepresentation": 0,
      "PixelSpacing": [2.0, 2.0],
      "ProtocolName": "func_task-friends-s04e09a",
      "RepetitionTime": 1490.0,
      "Rows": 832,
      "SAR": 0.0360475707711,
      "SamplesPerPixel": 1,
      "ScanOptions": "FS",
      "ScanningSequence": "EP",
      "SequenceName": "epfid2d1_104",
      "SequenceVariant": [
        "SK",
        "SS"
],
      "SeriesDescription": "func_task-friends-s04e09a",
      "SeriesNumber": 17,
      "SeriesTime": "101110.473000",
      "SliceLocation": -52.470429356501,
      "SliceThickness": 2.0,
      "SmallestImagePixelValue": 0,
      "SoftwareVersions": "syngo MR E11",
      "SpacingBetweenSlices": 1.9999999929107,
      "SpecificCharacterSet": "ISO_IR 100",
      "StudyID": "1",
      "StudyTime": "090447.814000",
      "TransmitCoilName": "Body",
      "VariableFlipAngleFlag": "N",
      "WindowCenterWidthExplanation": "Algo1",
      "dBdt": 0.0},
    "slices": {}
  },
  "time": {
    "samples": {
      "AcquisitionNumber": [1, 2, 3, 4, 5, 6, 7, 8, 9, 10, 11, 12, 13, 14, 15, 16, 17, 18, 19, 20, 21, 22, 23, 24, 25, 26, 27, 28, 29, 30, 31, 32, 33, 34, 35, 36, 37, 38, 39, 40, 41, 42, 43, 44, 45, 46, 47, 48, 49, 50, 51, 52, 53, 54, 55, 56, 57, 58, 59, 60, 61, 62, 63, 64, 65, 66, 67, 68, 69, 70, 71, 72, 73, 74, 75, 76, 77, 78, 79, 80, 81, 82, 83, 84, 85, 86, 87, 88, 89, 90, 91, 92, 93, 94, 95, 96, 97, 98, 99, 100, 101, 102, 103, 104, 105, 106, 107, 108, 109, 110, 111, 112, 113, 114, 115, 116, 117, 118, 119, 120, 121, 122, 123, 124, 125, 126, 127, 128, 129, 130, 131, 132, 133, 134, 135, 136, 137, 138, 139, 140, 141, 142, 143, 144, 145, 146, 147, 148, 149, 150, 151, 152, 153, 154, 155, 156, 157, 158, 159, 160, 161, 162, 163, 164, 165, 166, 167, 168, 169, 170, 171, 172, 173, 174, 175, 176, 177, 178, 179, 180, 181, 182, 183, 184, 185, 186, 187, 188, 189, 190, 191, 192, 193, 194, 195, 196, 197, 198, 199, 200, 201, 202, 203, 204, 205, 206, 207, 208, 209, 210, 211, 212, 213, 214, 215, 216, 217, 218, 219, 220, 221, 222, 223, 224, 225, 226, 227, 228, 229, 230, 231, 232, 233, 234, 235, 236, 237, 238, 239, 240, 241, 242, 243, 244, 245, 246, 247, 248, 249, 250, 251, 252, 253, 254, 255, 256, 257, 258, 259, 260, 261, 262, 263, 264, 265, 266, 267, 268, 269, 270, 271, 272, 273, 274, 275, 276, 277, 278, 279, 280, 281, 282, 283, 284, 285, 286, 287, 288, 289, 290, 291, 292, 293, 294, 295, 296, 297, 298, 299, 300, 301, 302, 303, 304, 305, 306, 307, 308, 309, 310, 311, 312, 313, 314, 315, 316, 317, 318, 319, 320, 321, 322, 323, 324, 325, 326, 327, 328, 329, 330, 331, 332, 333, 334, 335, 336, 337, 338, 339, 340, 341, 342, 343, 344, 345, 346, 347, 348, 349, 350, 351, 352, 353, 354, 355, 356, 357, 358, 359, 360, 361, 362, 363, 364, 365, 366, 367, 368, 369, 370, 371, 372, 373, 374, 375, 376, 377, 378, 379, 380, 381, 382, 383, 384, 385, 386, 387, 388, 389, 390, 391, 392, 393, 394, 395, 396, 397, 398, 399, 400, 401, 402, 403, 404, 405, 406, 407, 408, 409, 410, 411, 412, 413, 414, 415, 416, 417, 418, 419, 420, 421, 422, 423, 424, 425, 426, 427, 428, 429, 430, 431, 432, 433, 434, 435, 436, 437, 438, 439, 440, 441],
      "AcquisitionTime": ["100938.482500", "100939.972500", "100941.462500", "100942.952500", "100944.442500", "100945.932500", "100947.422500", "100948.912500", "100950.402500", "100951.892500", "100953.382500", "100954.872500", "100956.362500", "100957.852500", "100959.342500", "101000.832500", "101002.322500", "101003.812500", "101005.302500", "101006.792500", "101008.282500", "101009.772500", "101011.262500", "101012.752500", "101014.242500", "101015.732500", "101017.222500", "101018.712500", "101020.202500", "101021.692500", "101023.182500", "101024.672500", "101026.162500", "101027.652500", "101029.142500", "101030.632500", "101032.122500", "101033.612500", "101035.102500", "101036.592500", "101038.082500", "101039.572500", "101041.062500", "101042.552500", "101044.042500", "101045.532500", "101047.022500", "101048.512500", "101050.002500", "101051.492500", "101052.982500", "101054.472500", "101055.962500", "101057.452500", "101058.942500", "101100.432500", "101101.922500", "101103.412500", "101104.902500", "101106.392500", "101107.882500", "101109.372500", "101110.862500", "101112.352500", "101113.842500", "101115.332500", "101116.822500", "101118.312500", "101119.802500", "101121.292500", "101122.782500", "101124.272500", "101125.762500", "101127.252500", "101128.742500", "101130.232500", "101131.722500", "101133.212500", "101134.702500", "101136.192500", "101137.682500", "101139.172500", "101140.662500", "101142.152500", "101143.642500", "101145.132500", "101146.622500", "101148.112500", "101149.602500", "101151.092500", "101152.582500", "101154.072500", "101155.562500", "101157.052500", "101158.542500", "101200.032500", "101201.522500", "101203.012500", "101204.502500", "101205.992500", "101207.482500", "101208.972500", "101210.462500", "101211.952500", "101213.442500", "101214.932500", "101216.422500", "101217.912500", "101219.402500", "101220.892500", "101222.382500", "101223.872500", "101225.362500", "101226.852500", "101228.342500", "101229.832500", "101231.322500", "101232.812500", "101234.302500", "101235.792500", "101237.282500", "101238.772500", "101240.262500", "101241.752500", "101243.242500", "101244.732500", "101246.222500", "101247.712500", "101249.202500", "101250.692500", "101252.182500", "101253.672500", "101255.162500", "101256.652500", "101258.142500", "101259.632500", "101301.122500", "101302.612500", "101304.102500", "101305.592500", "101307.082500", "101308.572500", "101310.062500", "101311.552500", "101313.042500", "101314.532500", "101316.022500", "101317.512500", "101319.002500", "101320.492500", "101321.982500", "101323.472500", "101324.962500", "101326.452500", "101327.942500", "101329.432500", "101330.922500", "101332.412500", "101333.902500", "101335.392500", "101336.882500", "101338.372500", "101339.862500", "101341.352500", "101342.842500", "101344.332500", "101345.822500", "101347.312500", "101348.802500", "101350.292500", "101351.782500", "101353.272500", "101354.762500", "101356.252500", "101357.742500", "101359.232500", "101400.722500", "101402.212500", "101403.702500", "101405.192500", "101406.682500", "101408.172500", "101409.662500", "101411.152500", "101412.642500", "101414.132500", "101415.622500", "101417.112500", "101418.602500", "101420.092500", "101421.582500", "101423.072500", "101424.562500", "101426.052500", "101427.542500", "101429.032500", "101430.522500", "101432.012500", "101433.502500", "101434.992500", "101436.482500", "101437.972500", "101439.462500", "101440.952500", "101442.442500", "101443.932500", "101445.422500", "101446.912500", "101448.402500", "101449.892500", "101451.382500", "101452.872500", "101454.362500", "101455.852500", "101457.342500", "101458.832500", "101500.322500", "101501.812500", "101503.302500", "101504.792500", "101506.282500", "101507.772500", "101509.262500", "101510.752500", "101512.242500", "101513.732500", "101515.222500", "101516.712500", "101518.202500", "101519.692500", "101521.182500", "101522.672500", "101524.162500", "101525.652500", "101527.142500", "101528.632500", "101530.122500", "101531.612500", "101533.102500", "101534.592500", "101536.082500", "101537.572500", "101539.062500", "101540.552500", "101542.042500", "101543.532500", "101545.022500", "101546.512500", "101548.002500", "101549.492500", "101550.982500", "101552.472500", "101553.962500", "101555.452500", "101556.942500", "101558.432500", "101559.922500", "101601.412500", "101602.902500", "101604.392500", "101605.882500", "101607.372500", "101608.862500", "101610.352500", "101611.842500", "101613.332500", "101614.822500", "101616.312500", "101617.802500", "101619.292500", "101620.782500", "101622.272500", "101623.762500", "101625.252500", "101626.742500", "101628.232500", "101629.722500", "101631.212500", "101632.702500", "101634.192500", "101635.682500", "101637.172500", "101638.662500", "101640.152500", "101641.642500", "101643.132500", "101644.622500", "101646.112500", "101647.602500", "101649.092500", "101650.582500", "101652.072500", "101653.562500", "101655.052500", "101656.542500", "101658.032500", "101659.522500", "101701.012500", "101702.502500", "101703.992500", "101705.482500", "101706.972500", "101708.462500", "101709.952500", "101711.442500", "101712.932500", "101714.422500", "101715.912500", "101717.402500", "101718.892500", "101720.382500", "101721.872500", "101723.362500", "101724.852500", "101726.342500", "101727.832500", "101729.322500", "101730.812500", "101732.302500", "101733.792500", "101735.282500", "101736.772500", "101738.262500", "101739.752500", "101741.242500", "101742.732500", "101744.222500", "101745.712500", "101747.202500", "101748.692500", "101750.182500", "101751.672500", "101753.162500", "101754.652500", "101756.142500", "101757.632500", "101759.122500", "101800.612500", "101802.102500", "101803.592500", "101805.082500", "101806.572500", "101808.062500", "101809.552500", "101811.042500", "101812.532500", "101814.022500", "101815.512500", "101817.002500", "101818.492500", "101819.982500", "101821.472500", "101822.962500", "101824.452500", "101825.942500", "101827.432500", "101828.922500", "101830.412500", "101831.902500", "101833.392500", "101834.882500", "101836.372500", "101837.862500", "101839.352500", "101840.842500", "101842.332500", "101843.822500", "101845.312500", "101846.802500", "101848.292500", "101849.782500", "101851.272500", "101852.762500", "101854.252500", "101855.742500", "101857.232500", "101858.722500", "101900.212500", "101901.702500", "101903.192500", "101904.682500", "101906.172500", "101907.662500", "101909.152500", "101910.642500", "101912.132500", "101913.622500", "101915.112500", "101916.602500", "101918.092500", "101919.582500", "101921.072500", "101922.562500", "101924.052500", "101925.542500", "101927.032500", "101928.522500", "101930.012500", "101931.502500", "101932.992500", "101934.482500", "101935.972500", "101937.462500", "101938.952500", "101940.442500", "101941.932500", "101943.422500", "101944.912500", "101946.402500", "101947.892500", "101949.382500", "101950.872500", "101952.362500", "101953.852500", "101955.342500", "101956.832500", "101958.322500", "101959.812500", "102001.302500", "102002.792500", "102004.282500", "102005.772500", "102007.262500", "102008.752500", "102010.242500", "102011.732500", "102013.222500", "102014.712500", "102016.202500", "102017.692500", "102019.182500", "102020.672500", "102022.162500", "102023.652500", "102025.142500", "102026.632500", "102028.122500", "102029.612500", "102031.102500", "102032.592500", "102034.082500"],
      "ContentTime": ["101110.476000", "101110.479000", "101110.482000", "101110.485000", "101110.488000", "101110.491000", "101110.494000", "101110.497000", "101110.500000", "101110.503000", "101110.506000", "101110.509000", "101110.513000", "101110.516000", "101110.519000", "101110.521000", "101110.524000", "101110.527000", "101110.530000", "101110.533000", "101110.536000", "101110.539000", "101110.542000", "101110.545000", "101110.548000", "101110.551000", "101110.554000", "101110.556000", "101110.559000", "101110.562000", "101110.565000", "101110.568000", "101110.571000", "101110.574000", "101110.577000", "101110.580000", "101110.582000", "101110.585000", "101110.588000", "101130.440000", "101130.443000", "101130.451000", "101130.454000", "101130.457000", "101130.460000", "101130.463000", "101130.465000", "101130.468000", "101130.471000", "101130.474000", "101130.477000", "101130.480000", "101130.483000", "101130.486000", "101130.489000", "101130.492000", "101130.494000", "101130.497000", "101130.500000", "101150.440000", "101150.443000", "101150.446000", "101150.449000", "101150.452000", "101150.459000", "101150.462000", "101150.465000", "101150.468000", "101150.471000", "101150.474000", "101150.477000", "101150.480000", "101150.483000", "101150.486000", "101150.488000", "101150.491000", "101150.494000", "101150.497000", "101150.500000", "101210.440000", "101210.443000", "101210.446000", "101210.449000", "101210.452000", "101210.455000", "101210.457000", "101210.460000", "101210.463000", "101210.466000", "101210.469000", "101210.472000", "101210.475000", "101210.478000", "101210.481000", "101210.484000", "101210.487000", "101210.489000", "101210.492000", "101210.495000", "101250.440000", "101250.443000", "101250.446000", "101250.449000", "101250.464000", "101250.467000", "101250.470000", "101250.474000", "101250.477000", "101250.480000", "101250.482000", "101250.485000", "101250.488000", "101250.491000", "101250.495000", "101250.498000", "101250.500000", "101250.504000", "101250.506000", "101250.510000", "101250.512000", "101250.515000", "101250.518000", "101250.521000", "101250.524000", "101250.527000", "101250.530000", "101250.533000", "101250.536000", "101330.440000", "101330.443000", "101330.446000", "101330.449000", "101330.452000", "101330.455000", "101330.458000", "101330.461000", "101330.463000", "101330.466000", "101330.469000", "101330.472000", "101330.475000", "101330.478000", "101330.481000", "101330.484000", "101330.487000", "101330.490000", "101330.493000", "101330.496000", "101330.499000", "101330.502000", "101330.505000", "101330.507000", "101330.510000", "101330.513000", "101330.516000", "101410.440000", "101410.443000", "101410.446000", "101410.449000", "101410.452000", "101410.455000", "101410.458000", "101410.461000", "101410.464000", "101410.466000", "101410.469000", "101410.472000", "101410.475000", "101410.478000", "101410.481000", "101410.484000", "101410.487000", "101410.490000", "101410.493000", "101410.496000", "101410.499000", "101410.501000", "101410.504000", "101410.507000", "101410.510000", "101410.513000", "101410.516000", "101450.440000", "101450.443000", "101450.446000", "101450.449000", "101450.452000", "101450.455000", "101450.458000", "101450.461000", "101450.464000", "101450.467000", "101450.470000", "101450.473000", "101450.476000", "101450.479000", "101450.481000", "101450.484000", "101450.487000", "101450.490000", "101450.493000", "101450.496000", "101450.499000", "101450.502000", "101450.505000", "101450.508000", "101450.511000", "101450.513000", "101530.440000", "101530.443000", "101530.446000", "101530.449000", "101530.452000", "101530.455000", "101530.458000", "101530.461000", "101530.464000", "101530.466000", "101530.469000", "101530.472000", "101530.475000", "101530.478000", "101530.481000", "101530.484000", "101530.487000", "101530.490000", "101530.493000", "101530.496000", "101530.499000", "101530.502000", "101530.505000", "101530.508000", "101530.511000", "101530.514000", "101530.516000", "101610.440000", "101610.443000", "101610.446000", "101610.449000", "101610.452000", "101610.455000", "101610.458000", "101610.461000", "101610.463000", "101610.466000", "101610.469000", "101610.472000", "101610.475000", "101610.478000", "101610.481000", "101610.484000", "101610.487000", "101610.490000", "101610.493000", "101610.496000", "101610.498000", "101610.501000", "101610.504000", "101610.507000", "101610.510000", "101610.513000", "101610.516000", "101650.440000", "101650.443000", "101650.446000", "101650.449000", "101650.452000", "101650.455000", "101650.458000", "101650.461000", "101650.463000", "101650.466000", "101650.469000", "101650.472000", "101650.475000", "101650.478000", "101650.481000", "101650.484000", "101650.487000", "101650.490000", "101650.493000", "101650.496000", "101650.499000", "101650.501000", "101650.504000", "101650.507000", "101650.510000", "101650.513000", "101650.516000", "101730.440000", "101730.443000", "101730.446000", "101730.449000", "101730.452000", "101730.455000", "101730.458000", "101730.461000", "101730.464000", "101730.466000", "101730.469000", "101730.472000", "101730.475000", "101730.478000", "101730.481000", "101730.484000", "101730.487000", "101730.490000", "101730.493000", "101730.496000", "101730.499000", "101730.502000", "101730.505000", "101730.508000", "101730.511000", "101730.514000", "101730.517000", "101810.440000", "101810.443000", "101810.446000", "101810.449000", "101810.452000", "101810.455000", "101810.458000", "101810.461000", "101810.463000", "101810.470000", "101810.473000", "101810.476000", "101810.479000", "101810.481000", "101810.484000", "101810.487000", "101810.490000", "101810.493000", "101810.496000", "101810.499000", "101810.502000", "101810.505000", "101810.508000", "101810.511000", "101810.514000", "101810.517000", "101810.519000", "101850.440000", "101850.443000", "101850.446000", "101850.449000", "101850.452000", "101850.455000", "101850.458000", "101850.461000", "101850.464000", "101850.467000", "101850.470000", "101850.473000", "101850.476000", "101850.479000", "101850.482000", "101850.485000", "101850.488000", "101850.490000", "101850.493000", "101850.496000", "101850.499000", "101850.502000", "101850.505000", "101850.508000", "101850.511000", "101850.514000", "101850.517000", "101930.440000", "101930.443000", "101930.446000", "101930.449000", "101930.452000", "101930.455000", "101930.458000", "101930.461000", "101930.464000", "101930.467000", "101930.470000", "101930.472000", "101930.475000", "101930.478000", "101930.481000", "101930.484000", "101930.487000", "101930.490000", "101930.493000", "101930.496000", "101930.499000", "101930.502000", "101930.505000", "101930.508000", "101930.511000", "101930.513000", "102010.440000", "102010.443000", "102010.446000", "102010.449000", "102010.452000", "102010.455000", "102010.458000", "102010.461000", "102010.464000", "102010.467000", "102010.470000", "102010.473000", "102010.480000", "102010.483000", "102010.486000", "102010.489000", "102010.492000", "102010.495000", "102010.498000", "102010.501000", "102010.504000", "102010.507000", "102010.510000", "102010.512000", "102010.515000", "102010.518000", "102010.521000", "102036.265000", "102036.268000", "102036.271000", "102036.274000", "102036.277000", "102036.280000", "102036.283000", "102036.286000", "102036.289000", "102036.292000", "102036.295000", "102036.298000", "102036.301000", "102036.304000", "102036.307000", "102036.310000", "102036.313000", "102036.316000"],
