{
  "AcquisitionMatrixPE": 104,
  "AcquisitionNumber": 1,
  "AcquisitionTime": "09:43:39.130000",
  "BandwidthPerPixelPhaseEncode": 17.17,
  "BaseResolution": 104,
  "BodyPartExamined": "BRAIN",
  "CoilString": "HC1-7;NC1_2",
  "ConsistencyInfo": "N4_VE11C_LATEST_20160120",
  "ConversionSoftware": "dcm2niix",
  "ConversionSoftwareVersion": "v1.0.20190902",
  "DerivedVendorReportedEchoSpacing": 0.000560011,
  "DeviceSerialNumber": "167006",
  "DwellTime": 2.1e-06,
  "EchoTime": 0.037,
  "EchoTrainLength": 104,
  "EffectiveEchoSpacing": 0.000560011,
  "FlipAngle": 52,
  "ImageComments": "Unaliased_MB4_PE3_LB",
  "ImageOrientationPatientDICOM": [0.999175, 0.0395103, 0.00938508, -0.0293058, 0.861516, -0.506885],
  "ImageType": [
    "ORIGINAL",
    "PRIMARY",
    "M",
    "MB",
    "ND",
    "MOSAIC"
],
  "ImagingFrequency": 123.259,
  "InPlanePhaseEncodingDirectionDICOM": "COL",
  "InstitutionAddress": "Chemin_Queen-Mary_4565_Montreal_District_CA_H3W_1W5",
  "InstitutionName": "IUGM",
  "InstitutionalDepartmentName": "Department",
  "MRAcquisitionType": "2D",
  "MagneticFieldStrength": 3,
  "Manufacturer": "Siemens",
  "ManufacturersModelName": "Prisma_fit",
  "Modality": "MR",
  "MultibandAccelerationFactor": 4,
  "PartialFourier": 1,
  "PatientPosition": "HFS",
  "PercentPhaseFOV": 100,
  "PhaseEncodingDirection": "j",
  "PhaseEncodingSteps": 104,
  "PhaseResolution": 1,
  "PixelBandwidth": 2290,
  "ProcedureStepDescription": "video_friends",
  "ProtocolName": "func_task-friends-s04e08a",
  "PulseSequenceDetails": "%CustomerSeq%_cmrr_mbep2d_bold",
  "ReceiveCoilActiveElements": "HC1-7;NC1,2",
  "ReceiveCoilName": "HeadNeck_64",
  "ReconMatrixPE": 104,
  "RepetitionTime": 1.49,
  "SAR": 0.0360675,
  "ScanOptions": "FS",
  "ScanningSequence": "EP",
  "SequenceName": "epfid2d1_104",
  "SequenceVariant": "SK_SS",
  "SeriesDescription": "func_task-friends-s04e08a",
  "SeriesNumber": 13,
  "ShimSetting": [633, -7201, -8870, 397, -8, -194, 6, 0],
  "SliceThickness": 2,
  "SliceTiming": [0, 0.785, 0.1, 0.8825, 0.1975, 0.98, 0.295, 1.08, 0.3925, 1.1775, 0.49, 1.275, 0.59, 1.3725, 0.6875, 0, 0.785, 0.1, 0.8825, 0.1975, 0.98, 0.295, 1.08, 0.3925, 1.1775, 0.49, 1.275, 0.59, 1.3725, 0.6875, 0, 0.785, 0.1, 0.8825, 0.1975, 0.98, 0.295, 1.08, 0.3925, 1.1775, 0.49, 1.275, 0.59, 1.3725, 0.6875, 0, 0.785, 0.1, 0.8825, 0.1975, 0.98, 0.295, 1.08, 0.3925, 1.1775, 0.49, 1.275, 0.59, 1.3725, 0.6875],
  "SoftwareVersions": "syngo_MR_E11",
  "SpacingBetweenSlices": 2,
  "StationName": "MRC35049",
  "TaskName": "s04e08a",
  "TotalReadoutTime": 0.0576811,
  "TxRefAmp": 249.553,
  "WipMemBlock": "1f443dc7-7004-44d5-8d02-0f7dae040951||Sequence: R016 ve11c/master r/e634e98; Dec 19 2017 11:00:25 by eja",
  "dcmmeta_affine": [
    [-1.9983501434326172, -0.058611564338207245, 0.05622513219714165, 105.27973175048828],
    [-0.07902064919471741, 1.7230311632156372, -1.012382984161377, -55.45890426635742],
    [0.01877015270292759, 1.013769268989563, 1.7239255905151367, -96.87533569335938],
    [0.0, 0.0, 0.0, 1.0]
],
  "dcmmeta_reorient_transform": [
    [0.0, -1.0, 0.0, 103.0],
    [1.0, 0.0, 0.0, 0.0],
    [0.0, 0.0, 1.0, 0.0],
    [0.0, 0.0, 0.0, 1.0]
],
  "dcmmeta_shape": [104, 104, 60, 503],
  "dcmmeta_slice_dim": 2,
  "dcmmeta_version": 0.6,
  "global": {
    "const": {
      "AcquisitionMatrix": [104, 0, 0, 104],
      "AngioFlag": "N",
      "BitsAllocated": 16,
      "BitsStored": 16,
      "BodyPartExamined": "BRAIN",
      "Columns": 832,
      "EchoNumbers": 1,
      "EchoTime": 37.0,
      "EchoTrainLength": 104,
      "FlipAngle": 52.0,
      "HighBit": 15,
      "ImageOrientationPatient": [0.99917508711542, 0.03951032316505, 0.00938507598772, -0.0293057829516, 0.86151558853679, -0.5068846632062],
      "ImagePositionPatient": [-805.30759203604, -777.9601705507, 369.72260074916],
      "ImageType": [
        "ORIGINAL",
        "PRIMARY",
        "M",
        "MB",
        "ND",
        "MOSAIC"
],
      "ImagedNucleus": "1H",
      "ImagingFrequency": 123.259037,
      "InPlanePhaseEncodingDirection": "COL",
      "MRAcquisitionType": "2D",
      "MagneticFieldStrength": 3.0,
      "Manufacturer": "SIEMENS",
      "ManufacturerModelName": "Prisma_fit",
      "Modality": "MR",
      "NumberOfAverages": 1.0,
      "NumberOfPhaseEncodingSteps": 104,
      "PercentPhaseFieldOfView": 100.0,
      "PercentSampling": 100.0,
      "PerformedProcedureStepStartTime": "090447.929000",
      "PhotometricInterpretation": "MONOCHROME2",
      "PixelBandwidth": 2290.0,
      "PixelRepresentation": 0,
      "PixelSpacing": [2.0, 2.0],
      "ProtocolName": "func_task-friends-s04e08a",
      "RepetitionTime": 1490.0,
      "Rows": 832,
      "SAR": 0.03606748257171,
      "SamplesPerPixel": 1,
      "ScanOptions": "FS",
      "ScanningSequence": "EP",
      "SequenceName": "epfid2d1_104",
      "SequenceVariant": [
        "SK",
        "SS"
],
      "SeriesDescription": "func_task-friends-s04e08a",
      "SeriesNumber": 13,
      "SeriesTime": "094450.327000",
      "SliceLocation": -52.470429356501,
      "SliceThickness": 2.0,
      "SmallestImagePixelValue": 0,
      "SoftwareVersions": "syngo MR E11",
      "SpacingBetweenSlices": 1.9999999929107,
      "SpecificCharacterSet": "ISO_IR 100",
      "StudyID": "1",
      "StudyTime": "090447.814000",
      "TransmitCoilName": "Body",
      "VariableFlipAngleFlag": "N",
      "WindowCenterWidthExplanation": "Algo1",
      "dBdt": 0.0},
    "slices": {}
  },
  "time": {
    "samples": {
      "AcquisitionNumber": [1, 2, 3, 4, 5, 6, 7, 8, 9, 10, 11, 12, 13, 14, 15, 16, 17, 18, 19, 20, 21, 22, 23, 24, 25, 26, 27, 28, 29, 30, 31, 32, 33, 34, 35, 36, 37, 38, 39, 40, 41, 42, 43, 44, 45, 46, 47, 48, 49, 50, 51, 52, 53, 54, 55, 56, 57, 58, 59, 60, 61, 62, 63, 64, 65, 66, 67, 68, 69, 70, 71, 72, 73, 74, 75, 76, 77, 78, 79, 80, 81, 82, 83, 84, 85, 86, 87, 88, 89, 90, 91, 92, 93, 94, 95, 96, 97, 98, 99, 100, 101, 102, 103, 104, 105, 106, 107, 108, 109, 110, 111, 112, 113, 114, 115, 116, 117, 118, 119, 120, 121, 122, 123, 124, 125, 126, 127, 128, 129, 130, 131, 132, 133, 134, 135, 136, 137, 138, 139, 140, 141, 142, 143, 144, 145, 146, 147, 148, 149, 150, 151, 152, 153, 154, 155, 156, 157, 158, 159, 160, 161, 162, 163, 164, 165, 166, 167, 168, 169, 170, 171, 172, 173, 174, 175, 176, 177, 178, 179, 180, 181, 182, 183, 184, 185, 186, 187, 188, 189, 190, 191, 192, 193, 194, 195, 196, 197, 198, 199, 200, 201, 202, 203, 204, 205, 206, 207, 208, 209, 210, 211, 212, 213, 214, 215, 216, 217, 218, 219, 220, 221, 222, 223, 224, 225, 226, 227, 228, 229, 230, 231, 232, 233, 234, 235, 236, 237, 238, 239, 240, 241, 242, 243, 244, 245, 246, 247, 248, 249, 250, 251, 252, 253, 254, 255, 256, 257, 258, 259, 260, 261, 262, 263, 264, 265, 266, 267, 268, 269, 270, 271, 272, 273, 274, 275, 276, 277, 278, 279, 280, 281, 282, 283, 284, 285, 286, 287, 288, 289, 290, 291, 292, 293, 294, 295, 296, 297, 298, 299, 300, 301, 302, 303, 304, 305, 306, 307, 308, 309, 310, 311, 312, 313, 314, 315, 316, 317, 318, 319, 320, 321, 322, 323, 324, 325, 326, 327, 328, 329, 330, 331, 332, 333, 334, 335, 336, 337, 338, 339, 340, 341, 342, 343, 344, 345, 346, 347, 348, 349, 350, 351, 352, 353, 354, 355, 356, 357, 358, 359, 360, 361, 362, 363, 364, 365, 366, 367, 368, 369, 370, 371, 372, 373, 374, 375, 376, 377, 378, 379, 380, 381, 382, 383, 384, 385, 386, 387, 388, 389, 390, 391, 392, 393, 394, 395, 396, 397, 398, 399, 400, 401, 402, 403, 404, 405, 406, 407, 408, 409, 410, 411, 412, 413, 414, 415, 416, 417, 418, 419, 420, 421, 422, 423, 424, 425, 426, 427, 428, 429, 430, 431, 432, 433, 434, 435, 436, 437, 438, 439, 440, 441, 442, 443, 444, 445, 446, 447, 448, 449, 450, 451, 452, 453, 454, 455, 456, 457, 458, 459, 460, 461, 462, 463, 464, 465, 466, 467, 468, 469, 470, 471, 472, 473, 474, 475, 476, 477, 478, 479, 480, 481, 482, 483, 484, 485, 486, 487, 488, 489, 490, 491, 492, 493, 494, 495, 496, 497, 498, 499, 500, 501, 502, 503],
      "AcquisitionTime": ["094339.130000", "094340.620000", "094342.110000", "094343.600000", "094345.090000", "094346.580000", "094348.070000", "094349.560000", "094351.050000", "094352.540000", "094354.030000", "094355.520000", "094357.010000", "094358.500000", "094359.990000", "094401.480000", "094402.970000", "094404.460000", "094405.950000", "094407.440000", "094408.930000", "094410.420000", "094411.910000", "094413.400000", "094414.890000", "094416.380000", "094417.870000", "094419.360000", "094420.850000", "094422.340000", "094423.830000", "094425.320000", "094426.810000", "094428.300000", "094429.790000", "094431.280000", "094432.770000", "094434.260000", "094435.750000", "094437.240000", "094438.730000", "094440.220000", "094441.710000", "094443.200000", "094444.690000", "094446.180000", "094447.670000", "094449.160000", "094450.650000", "094452.140000", "094453.630000", "094455.120000", "094456.610000", "094458.100000", "094459.590000", "094501.080000", "094502.570000", "094504.060000", "094505.550000", "094507.040000", "094508.530000", "094510.020000", "094511.510000", "094513.000000", "094514.490000", "094515.980000", "094517.470000", "094518.960000", "094520.450000", "094521.940000", "094523.430000", "094524.920000", "094526.410000", "094527.900000", "094529.390000", "094530.880000", "094532.370000", "094533.860000", "094535.350000", "094536.840000", "094538.330000", "094539.820000", "094541.310000", "094542.800000", "094544.290000", "094545.780000", "094547.270000", "094548.760000", "094550.250000", "094551.740000", "094553.230000", "094554.720000", "094556.210000", "094557.700000", "094559.190000", "094600.680000", "094602.170000", "094603.660000", "094605.150000", "094606.640000", "094608.130000", "094609.620000", "094611.110000", "094612.600000", "094614.090000", "094615.580000", "094617.070000", "094618.560000", "094620.050000", "094621.540000", "094623.030000", "094624.520000", "094626.010000", "094627.500000", "094628.990000", "094630.480000", "094631.970000", "094633.460000", "094634.950000", "094636.440000", "094637.930000", "094639.420000", "094640.910000", "094642.400000", "094643.890000", "094645.380000", "094646.870000", "094648.360000", "094649.850000", "094651.340000", "094652.830000", "094654.320000", "094655.810000", "094657.300000", "094658.790000", "094700.280000", "094701.770000", "094703.260000", "094704.750000", "094706.240000", "094707.730000", "094709.220000", "094710.710000", "094712.200000", "094713.690000", "094715.180000", "094716.670000", "094718.160000", "094719.650000", "094721.140000", "094722.630000", "094724.120000", "094725.610000", "094727.100000", "094728.590000", "094730.080000", "094731.570000", "094733.060000", "094734.550000", "094736.040000", "094737.530000", "094739.020000", "094740.510000", "094742.000000", "094743.490000", "094744.980000", "094746.470000", "094747.960000", "094749.450000", "094750.940000", "094752.430000", "094753.920000", "094755.410000", "094756.900000", "094758.390000", "094759.880000", "094801.370000", "094802.860000", "094804.350000", "094805.840000", "094807.330000", "094808.820000", "094810.310000", "094811.800000", "094813.290000", "094814.780000", "094816.270000", "094817.760000", "094819.250000", "094820.740000", "094822.230000", "094823.720000", "094825.210000", "094826.700000", "094828.190000", "094829.680000", "094831.170000", "094832.660000", "094834.150000", "094835.640000", "094837.130000", "094838.620000", "094840.110000", "094841.600000", "094843.090000", "094844.580000", "094846.070000", "094847.560000", "094849.050000", "094850.540000", "094852.030000", "094853.520000", "094855.010000", "094856.500000", "094857.990000", "094859.480000", "094900.970000", "094902.460000", "094903.950000", "094905.440000", "094906.930000", "094908.420000", "094909.910000", "094911.400000", "094912.890000", "094914.380000", "094915.870000", "094917.360000", "094918.850000", "094920.340000", "094921.830000", "094923.320000", "094924.810000", "094926.300000", "094927.790000", "094929.280000", "094930.770000", "094932.260000", "094933.750000", "094935.240000", "094936.730000", "094938.220000", "094939.710000", "094941.200000", "094942.690000", "094944.180000", "094945.670000", "094947.160000", "094948.650000", "094950.140000", "094951.630000", "094953.120000", "094954.610000", "094956.100000", "094957.590000", "094959.080000", "095000.570000", "095002.060000", "095003.550000", "095005.040000", "095006.530000", "095008.020000", "095009.510000", "095011.000000", "095012.490000", "095013.980000", "095015.470000", "095016.960000", "095018.450000", "095019.940000", "095021.430000", "095022.920000", "095024.410000", "095025.900000", "095027.390000", "095028.880000", "095030.370000", "095031.860000", "095033.350000", "095034.840000", "095036.330000", "095037.820000", "095039.310000", "095040.800000", "095042.290000", "095043.780000", "095045.270000", "095046.760000", "095048.250000", "095049.740000", "095051.230000", "095052.720000", "095054.210000", "095055.700000", "095057.190000", "095058.680000", "095100.170000", "095101.660000", "095103.150000", "095104.640000", "095106.130000", "095107.620000", "095109.110000", "095110.600000", "095112.090000", "095113.580000", "095115.070000", "095116.560000", "095118.050000", "095119.540000", "095121.030000", "095122.520000", "095124.010000", "095125.500000", "095126.990000", "095128.480000", "095129.970000", "095131.460000", "095132.950000", "095134.440000", "095135.930000", "095137.420000", "095138.910000", "095140.400000", "095141.890000", "095143.380000", "095144.870000", "095146.360000", "095147.850000", "095149.340000", "095150.830000", "095152.320000", "095153.810000", "095155.300000", "095156.790000", "095158.280000", "095159.770000", "095201.260000", "095202.750000", "095204.240000", "095205.730000", "095207.220000", "095208.710000", "095210.200000", "095211.690000", "095213.180000", "095214.670000", "095216.160000", "095217.650000", "095219.140000", "095220.630000", "095222.120000", "095223.610000", "095225.100000", "095226.590000", "095228.080000", "095229.570000", "095231.060000", "095232.550000", "095234.040000", "095235.530000", "095237.020000", "095238.510000", "095240.000000", "095241.490000", "095242.980000", "095244.470000", "095245.960000", "095247.450000", "095248.940000", "095250.430000", "095251.920000", "095253.410000", "095254.900000", "095256.390000", "095257.880000", "095259.370000", "095300.860000", "095302.350000", "095303.840000", "095305.330000", "095306.820000", "095308.310000", "095309.800000", "095311.290000", "095312.780000", "095314.270000", "095315.760000", "095317.250000", "095318.740000", "095320.230000", "095321.720000", "095323.210000", "095324.700000", "095326.190000", "095327.680000", "095329.170000", "095330.660000", "095332.150000", "095333.640000", "095335.130000", "095336.620000", "095338.110000", "095339.600000", "095341.090000", "095342.580000", "095344.070000", "095345.560000", "095347.050000", "095348.540000", "095350.030000", "095351.520000", "095353.010000", "095354.500000", "095355.990000", "095357.480000", "095358.970000", "095400.460000", "095401.950000", "095403.440000", "095404.930000", "095406.420000", "095407.910000", "095409.400000", "095410.890000", "095412.380000", "095413.870000", "095415.360000", "095416.850000", "095418.340000", "095419.830000", "095421.320000", "095422.810000", "095424.300000", "095425.790000", "095427.280000", "095428.770000", "095430.260000", "095431.750000", "095433.240000", "095434.730000", "095436.220000", "095437.710000", "095439.200000", "095440.690000", "095442.180000", "095443.670000", "095445.160000", "095446.650000", "095448.140000", "095449.630000", "095451.120000", "095452.610000", "095454.100000", "095455.590000", "095457.080000", "095458.570000", "095500.060000", "095501.550000", "095503.040000", "095504.530000", "095506.020000", "095507.510000", "095509.000000", "095510.490000", "095511.980000", "095513.470000", "095514.960000", "095516.450000", "095517.940000", "095519.430000", "095520.920000", "095522.410000", "095523.900000", "095525.390000", "095526.880000", "095528.370000", "095529.860000", "095531.350000", "095532.840000", "095534.330000", "095535.820000", "095537.310000", "095538.800000", "095540.290000", "095541.780000", "095543.270000", "095544.760000", "095546.250000", "095547.740000", "095549.230000", "095550.720000", "095552.210000", "095553.700000", "095555.190000", "095556.680000", "095558.170000", "095559.660000", "095601.150000", "095602.640000", "095604.130000", "095605.620000", "095607.110000"],
      "ContentTime": ["094450.330000", "094450.334000", "094450.349000", "094450.352000", "094450.355000", "094450.358000", "094450.361000", "094450.364000", "094450.367000", "094450.370000", "094450.373000", "094450.375000", "094450.378000", "094450.381000", "094450.384000", "094450.387000", "094510.298000", "094510.307000", "094510.310000", "094510.313000", "094510.316000", "094510.319000", "094510.322000", "094510.325000", "094510.328000", "094510.330000", "094510.333000", "094510.336000", "094510.339000", "094510.342000", "094510.345000", "094510.348000", "094510.351000", "094510.354000", "094510.356000", "094510.359000", "094530.298000", "094530.301000", "094530.304000", "094530.307000", "094530.310000", "094530.313000", "094530.316000", "094530.319000", "094530.322000", "094530.325000", "094530.327000", "094530.330000", "094530.333000", "094530.336000", "094530.339000", "094530.342000", "094530.345000", "094530.348000", "094530.351000", "094530.353000", "094550.298000", "094550.301000", "094550.304000", "094550.307000", "094550.310000", "094550.313000", "094550.315000", "094550.318000", "094550.321000", "094550.324000", "094550.327000", "094550.330000", "094550.333000", "094550.336000", "094550.338000", "094550.341000", "094550.344000", "094550.347000", "094550.350000", "094550.353000", "094550.356000", "094610.298000", "094610.301000", "094610.304000", "094610.307000", "094610.310000", "094610.313000", "094610.315000", "094610.318000", "094610.321000", "094610.324000", "094610.327000", "094610.330000", "094610.333000", "094610.336000", "094610.339000", "094610.342000", "094610.344000", "094610.347000", "094610.350000", "094610.353000", "094650.297000", "094650.300000", "094650.303000", "094650.306000", "094650.309000", "094650.312000", "094650.315000", "094650.317000", "094650.321000", "094650.324000", "094650.327000", "094650.330000", "094650.333000", "094650.336000", "094650.339000", "094650.342000", "094650.345000", "094650.348000", "094650.350000", "094650.353000", "094650.356000", "094650.359000", "094650.362000", "094650.365000", "094650.368000", "094650.371000", "094650.374000", "094650.377000", "094650.380000", "094650.383000", "094730.298000", "094730.301000", "094730.304000", "094730.307000", "094730.310000", "094730.313000", "094730.316000", "094730.319000", "094730.321000", "094730.324000", "094730.327000", "094730.330000", "094730.333000", "094730.336000", "094730.339000", "094730.342000", "094730.345000", "094730.348000", "094730.351000", "094730.353000", "094730.356000", "094730.359000", "094730.362000", "094730.365000", "094730.368000", "094730.371000", "094730.374000", "094810.298000", "094810.301000", "094810.304000", "094810.307000", "094810.310000", "094810.313000", "094810.323000", "094810.326000", "094810.329000", "094810.332000", "094810.334000", "094810.337000", "094810.340000", "094810.343000", "094810.346000", "094810.349000", "094810.352000", "094810.355000", "094810.358000", "094810.361000", "094810.364000", "094810.367000", "094810.370000", "094810.372000", "094810.375000", "094810.378000", "094810.381000", "094850.298000", "094850.301000", "094850.304000", "094850.307000", "094850.310000", "094850.313000", "094850.316000", "094850.319000", "094850.322000", "094850.325000", "094850.327000", "094850.331000", "094850.333000", "094850.336000", "094850.339000", "094850.342000", "094850.345000", "094850.348000", "094850.351000", "094850.354000", "094850.357000", "094850.360000", "094850.363000", "094850.366000", "094850.369000", "094850.372000", "094850.374000", "094930.313000", "094930.316000", "094930.319000", "094930.322000", "094930.325000", "094930.328000", "094930.345000", "094930.348000", "094930.351000", "094930.354000", "094930.357000", "094930.360000", "094930.363000", "094930.366000", "094930.369000", "094930.372000", "094930.374000", "094930.377000", "094930.380000", "094930.383000", "094930.386000", "094930.389000", "094930.392000", "094930.395000", "094930.398000", "094930.401000", "094930.404000", "095010.299000", "095010.302000", "095010.305000", "095010.308000", "095010.311000", "095010.314000", "095010.316000", "095010.319000", "095010.322000", "095010.325000", "095010.328000", "095010.331000", "095010.334000", "095010.337000", "095010.340000", "095010.343000", "095010.346000", "095010.349000", "095010.351000", "095010.354000", "095010.357000", "095010.360000", "095010.363000", "095010.366000", "095010.369000", "095010.372000", "095010.375000", "095050.298000", "095050.301000", "095050.304000", "095050.307000", "095050.310000", "095050.313000", "095050.316000", "095050.319000", "095050.322000", "095050.325000", "095050.328000", "095050.331000", "095050.334000", "095050.336000", "095050.340000", "095050.343000", "095050.346000", "095050.349000", "095050.352000", "095050.355000", "095050.358000", "095050.361000", "095050.364000", "095050.367000", "095050.370000", "095050.373000", "095130.297000", "095130.300000", "095130.303000", "095130.306000", "095130.309000", "095130.312000", "095130.315000", "095130.318000", "095130.321000", "095130.324000", "095130.327000", "095130.330000", "095130.333000", "095130.336000", "095130.338000", "095130.341000", "095130.344000", "095130.347000", "095130.350000", "095130.353000", "095130.356000", "095130.359000", "095130.362000", "095130.365000", "095130.367000", "095130.370000", "095130.373000", "095210.298000", "095210.301000", "095210.304000", "095210.307000", "095210.310000", "095210.313000", "095210.316000", "095210.319000", "095210.322000", "095210.324000", "095210.327000", "095210.330000", "095210.333000", "095210.336000", "095210.339000", "095210.342000", "095210.345000", "095210.348000", "095210.351000", "095210.354000", "095210.356000", "095210.359000", "095210.362000", "095210.365000", "095210.368000", "095210.371000", "095210.374000", "095250.298000", "095250.301000", "095250.304000", "095250.307000", "095250.310000", "095250.313000", "095250.316000", "095250.319000", "095250.321000", "095250.324000", "095250.327000", "095250.330000", "095250.333000", "095250.336000", "095250.339000", "095250.342000", "095250.345000", "095250.348000", "095250.351000", "095250.354000", "095250.357000", "095250.359000", "095250.362000", "095250.365000", "095250.368000", "095250.371000", "095250.374000", "095330.298000", "095330.301000", "095330.304000", "095330.307000", "095330.310000", "095330.313000", "095330.316000", "095330.319000", "095330.322000", "095330.325000", "095330.327000", "095330.330000", "095330.333000", "095330.336000", "095330.339000", "095330.342000", "095330.345000", "095330.348000", "095330.351000", "095330.354000", "095330.357000", "095330.360000", "095330.363000", "095330.366000", "095330.369000", "095330.372000", "095330.375000", "095410.298000", "095410.301000", "095410.304000", "095410.307000", "095410.310000", "095410.313000", "095410.316000", "095410.319000", "095410.322000", "095410.325000", "095410.328000", "095410.331000", "095410.333000", "095410.336000", "095410.339000", "095410.342000", "095410.345000", "095410.348000", "095410.351000", "095410.354000", "095410.357000", "095410.360000", "095410.363000", "095410.366000", "095410.369000", "095410.372000", "095410.375000", "095450.298000", "095450.301000", "095450.304000", "095450.307000", "095450.310000", "095450.313000", "095450.316000", "095450.319000", "095450.322000", "095450.325000", "095450.328000", "095450.331000", "095450.334000", "095450.337000", "095450.339000", "095450.342000", "095450.345000", "095450.348000", "095450.351000", "095450.354000", "095450.357000", "095450.360000", "095450.363000", "095450.366000", "095450.369000", "095450.372000", "095450.375000", "095530.298000", "095530.301000", "095530.304000", "095530.318000", "095530.321000", "095530.325000", "095530.328000", "095530.331000", "095530.334000", "095530.337000", "095530.340000", "095530.343000", "095530.346000", "095530.349000", "095530.352000", "095530.354000", "095530.357000", "095530.360000", "095530.363000", "095530.366000", "095530.369000", "095530.372000", "095530.375000", "095530.378000", "095530.381000", "095530.384000", "095609.256000", "095609.259000", "095609.262000", "095609.265000", "095609.268000", "095609.271000", "095609.274000", "095609.277000", "095609.281000", "095609.284000", "095609.287000", "095609.290000", "095609.293000", "095609.296000", "095609.298000", "095609.301000", "095609.304000", "095609.307000", "095609.310000", "095609.313000", "095609.316000", "095609.319000", "095609.322000", "095609.325000", "095609.334000", "095609.337000", "095609.340000"],
