{
  "AcquisitionMatrixPE": 104,
  "AcquisitionNumber": 1,
  "AcquisitionTime": "11:05:55.010000",
  "BandwidthPerPixelPhaseEncode": 17.17,
  "BaseResolution": 104,
  "BodyPartExamined": "BRAIN",
  "CoilString": "HC1-7;NC1_2",
  "ConsistencyInfo": "N4_VE11C_LATEST_20160120",
  "ConversionSoftware": "dcm2niix",
  "ConversionSoftwareVersion": "v1.0.20190902",
  "DerivedVendorReportedEchoSpacing": 0.000560011,
  "DeviceSerialNumber": "167006",
  "DwellTime": 2.1e-06,
  "EchoTime": 0.037,
  "EchoTrainLength": 104,
  "EffectiveEchoSpacing": 0.000560011,
  "FlipAngle": 52,
  "ImageComments": "Unaliased_MB4_PE3_LB",
  "ImageOrientationPatientDICOM": [0.999376, 0.0263328, 0.0235212, -0.0150016, 0.919727, -0.392272],
  "ImageType": [
    "ORIGINAL",
    "PRIMARY",
    "M",
    "MB",
    "ND",
    "MOSAIC"
],
  "ImagingFrequency": 123.259,
  "InPlanePhaseEncodingDirectionDICOM": "COL",
  "InstitutionAddress": "Chemin_Queen-Mary_4565_Montreal_District_CA_H3W_1W5",
  "InstitutionName": "IUGM",
  "InstitutionalDepartmentName": "Department",
  "MRAcquisitionType": "2D",
  "MagneticFieldStrength": 3,
  "Manufacturer": "Siemens",
  "ManufacturersModelName": "Prisma_fit",
  "Modality": "MR",
  "MultibandAccelerationFactor": 4,
  "PartialFourier": 1,
  "PatientPosition": "HFS",
  "PercentPhaseFOV": 100,
  "PhaseEncodingDirection": "j",
  "PhaseEncodingSteps": 104,
  "PhaseResolution": 1,
  "PixelBandwidth": 2290,
  "ProcedureStepDescription": "video_friends",
  "ProtocolName": "func_task-friends-s04e06b",
  "PulseSequenceDetails": "%CustomerSeq%_cmrr_mbep2d_bold",
  "ReceiveCoilActiveElements": "HC1-7;NC1,2",
  "ReceiveCoilName": "HeadNeck_64",
  "ReconMatrixPE": 104,
  "RepetitionTime": 1.49,
  "SAR": 0.0398062,
  "ScanOptions": "FS",
  "ScanningSequence": "EP",
  "SequenceName": "epfid2d1_104",
  "SequenceVariant": "SK_SS",
  "SeriesDescription": "func_task-friends-s04e06b",
  "SeriesNumber": 30,
  "ShimSetting": [635, -7180, -8862, 633, 91, 26, 19, -6],
  "SliceThickness": 2,
  "SliceTiming": [0, 0.7825, 0.0975, 0.88, 0.195, 0.98, 0.2925, 1.0775, 0.39, 1.175, 0.49, 1.2725, 0.5875, 1.37, 0.685, 0, 0.7825, 0.0975, 0.88, 0.195, 0.98, 0.2925, 1.0775, 0.39, 1.175, 0.49, 1.2725, 0.5875, 1.37, 0.685, 0, 0.7825, 0.0975, 0.88, 0.195, 0.98, 0.2925, 1.0775, 0.39, 1.175, 0.49, 1.2725, 0.5875, 1.37, 0.685, 0, 0.7825, 0.0975, 0.88, 0.195, 0.98, 0.2925, 1.0775, 0.39, 1.175, 0.49, 1.2725, 0.5875, 1.37, 0.685],
  "SoftwareVersions": "syngo_MR_E11",
  "SpacingBetweenSlices": 2,
  "StationName": "MRC35049",
  "TaskName": "s04e06b",
  "TotalReadoutTime": 0.0576811,
  "TxRefAmp": 248.123,
  "WipMemBlock": "1eba99be-5ed9-4a9e-ad09-4047f3fd7f1a||Sequence: R016 ve11c/master r/e634e98; Dec 19 2017 11:00:25 by eja",
  "dcmmeta_affine": [
    [-1.9987529516220093, -0.030003294348716736, 0.06392540037631989, 103.30945587158203],
    [-0.05266563966870308, 1.8394536972045898, -0.7833495140075684, -63.28298568725586],
    [0.0470423698425293, 0.7845444083213806, 1.8390967845916748, -72.80748748779297],
    [0.0, 0.0, 0.0, 1.0]
],
  "dcmmeta_reorient_transform": [
    [0.0, -1.0, 0.0, 103.0],
    [1.0, 0.0, 0.0, 0.0],
    [0.0, 0.0, 1.0, 0.0],
    [0.0, 0.0, 0.0, 1.0]
],
  "dcmmeta_shape": [104, 104, 60, 465],
  "dcmmeta_slice_dim": 2,
  "dcmmeta_version": 0.6,
  "global": {
    "const": {
      "AcquisitionMatrix": [104, 0, 0, 104],
      "AngioFlag": "N",
      "BitsAllocated": 16,
      "BitsStored": 16,
      "BodyPartExamined": "BRAIN",
      "Columns": 832,
      "EchoNumbers": 1,
      "EchoTime": 37.0,
      "EchoTrainLength": 104,
      "FlipAngle": 52.0,
      "HighBit": 15,
      "ImageOrientationPatient": [0.99937647384087, 0.02633281906597, 0.02352118562975, -0.0150016474878, 0.91972684831595, -0.3922721951139],
      "ImagePositionPatient": [-816.84399247911, -814.91218395695, 276.45132206853],
      "ImageType": [
        "ORIGINAL",
        "PRIMARY",
        "M",
        "MB",
        "ND",
        "MOSAIC"
],
      "ImagedNucleus": "1H",
      "ImagingFrequency": 123.259034,
      "InPlanePhaseEncodingDirection": "COL",
      "MRAcquisitionType": "2D",
      "MagneticFieldStrength": 3.0,
      "Manufacturer": "SIEMENS",
      "ManufacturerModelName": "Prisma_fit",
      "Modality": "MR",
      "NumberOfAverages": 1.0,
      "NumberOfPhaseEncodingSteps": 104,
      "PercentPhaseFieldOfView": 100.0,
      "PercentSampling": 100.0,
      "PerformedProcedureStepStartTime": "090500.784000",
      "PhotometricInterpretation": "MONOCHROME2",
      "PixelBandwidth": 2290.0,
      "PixelRepresentation": 0,
      "PixelSpacing": [2.0, 2.0],
      "ProtocolName": "func_task-friends-s04e06b",
      "RepetitionTime": 1490.0,
      "Rows": 832,
      "SAR": 0.03980615938945,
      "SamplesPerPixel": 1,
      "ScanOptions": "FS",
      "ScanningSequence": "EP",
      "SequenceName": "epfid2d1_104",
      "SequenceVariant": [
        "SK",
        "SS"
],
      "SeriesDescription": "func_task-friends-s04e06b",
      "SeriesNumber": 30,
      "SeriesTime": "110711.124000",
      "SliceLocation": -38.861611050573,
      "SliceThickness": 2.0,
      "SmallestImagePixelValue": 0,
      "SoftwareVersions": "syngo MR E11",
      "SpacingBetweenSlices": 2.0000000141044,
      "SpecificCharacterSet": "ISO_IR 100",
      "StudyID": "1",
      "StudyTime": "090500.636000",
      "TransmitCoilName": "Body",
      "VariableFlipAngleFlag": "N",
      "WindowCenterWidthExplanation": "Algo1",
      "dBdt": 0.0},
    "slices": {}
  },
  "time": {
    "samples": {
      "AcquisitionNumber": [1, 2, 3, 4, 5, 6, 7, 8, 9, 10, 11, 12, 13, 14, 15, 16, 17, 18, 19, 20, 21, 22, 23, 24, 25, 26, 27, 28, 29, 30, 31, 32, 33, 34, 35, 36, 37, 38, 39, 40, 41, 42, 43, 44, 45, 46, 47, 48, 49, 50, 51, 52, 53, 54, 55, 56, 57, 58, 59, 60, 61, 62, 63, 64, 65, 66, 67, 68, 69, 70, 71, 72, 73, 74, 75, 76, 77, 78, 79, 80, 81, 82, 83, 84, 85, 86, 87, 88, 89, 90, 91, 92, 93, 94, 95, 96, 97, 98, 99, 100, 101, 102, 103, 104, 105, 106, 107, 108, 109, 110, 111, 112, 113, 114, 115, 116, 117, 118, 119, 120, 121, 122, 123, 124, 125, 126, 127, 128, 129, 130, 131, 132, 133, 134, 135, 136, 137, 138, 139, 140, 141, 142, 143, 144, 145, 146, 147, 148, 149, 150, 151, 152, 153, 154, 155, 156, 157, 158, 159, 160, 161, 162, 163, 164, 165, 166, 167, 168, 169, 170, 171, 172, 173, 174, 175, 176, 177, 178, 179, 180, 181, 182, 183, 184, 185, 186, 187, 188, 189, 190, 191, 192, 193, 194, 195, 196, 197, 198, 199, 200, 201, 202, 203, 204, 205, 206, 207, 208, 209, 210, 211, 212, 213, 214, 215, 216, 217, 218, 219, 220, 221, 222, 223, 224, 225, 226, 227, 228, 229, 230, 231, 232, 233, 234, 235, 236, 237, 238, 239, 240, 241, 242, 243, 244, 245, 246, 247, 248, 249, 250, 251, 252, 253, 254, 255, 256, 257, 258, 259, 260, 261, 262, 263, 264, 265, 266, 267, 268, 269, 270, 271, 272, 273, 274, 275, 276, 277, 278, 279, 280, 281, 282, 283, 284, 285, 286, 287, 288, 289, 290, 291, 292, 293, 294, 295, 296, 297, 298, 299, 300, 301, 302, 303, 304, 305, 306, 307, 308, 309, 310, 311, 312, 313, 314, 315, 316, 317, 318, 319, 320, 321, 322, 323, 324, 325, 326, 327, 328, 329, 330, 331, 332, 333, 334, 335, 336, 337, 338, 339, 340, 341, 342, 343, 344, 345, 346, 347, 348, 349, 350, 351, 352, 353, 354, 355, 356, 357, 358, 359, 360, 361, 362, 363, 364, 365, 366, 367, 368, 369, 370, 371, 372, 373, 374, 375, 376, 377, 378, 379, 380, 381, 382, 383, 384, 385, 386, 387, 388, 389, 390, 391, 392, 393, 394, 395, 396, 397, 398, 399, 400, 401, 402, 403, 404, 405, 406, 407, 408, 409, 410, 411, 412, 413, 414, 415, 416, 417, 418, 419, 420, 421, 422, 423, 424, 425, 426, 427, 428, 429, 430, 431, 432, 433, 434, 435, 436, 437, 438, 439, 440, 441, 442, 443, 444, 445, 446, 447, 448, 449, 450, 451, 452, 453, 454, 455, 456, 457, 458, 459, 460, 461, 462, 463, 464, 465],
      "AcquisitionTime": ["110555.010000", "110556.500000", "110557.990000", "110559.480000", "110600.970000", "110602.460000", "110603.950000", "110605.440000", "110606.930000", "110608.420000", "110609.910000", "110611.400000", "110612.890000", "110614.380000", "110615.870000", "110617.360000", "110618.850000", "110620.340000", "110621.830000", "110623.320000", "110624.810000", "110626.300000", "110627.790000", "110629.280000", "110630.770000", "110632.260000", "110633.750000", "110635.240000", "110636.730000", "110638.220000", "110639.710000", "110641.200000", "110642.690000", "110644.180000", "110645.670000", "110647.160000", "110648.650000", "110650.140000", "110651.630000", "110653.120000", "110654.610000", "110656.100000", "110657.590000", "110659.080000", "110700.570000", "110702.060000", "110703.550000", "110705.040000", "110706.530000", "110708.020000", "110709.510000", "110711.000000", "110712.490000", "110713.980000", "110715.470000", "110716.960000", "110718.450000", "110719.940000", "110721.430000", "110722.920000", "110724.410000", "110725.900000", "110727.390000", "110728.880000", "110730.370000", "110731.860000", "110733.350000", "110734.840000", "110736.330000", "110737.820000", "110739.310000", "110740.800000", "110742.290000", "110743.780000", "110745.270000", "110746.760000", "110748.250000", "110749.740000", "110751.230000", "110752.720000", "110754.210000", "110755.700000", "110757.190000", "110758.680000", "110800.170000", "110801.660000", "110803.150000", "110804.640000", "110806.130000", "110807.620000", "110809.110000", "110810.600000", "110812.090000", "110813.580000", "110815.070000", "110816.560000", "110818.050000", "110819.540000", "110821.030000", "110822.520000", "110824.010000", "110825.500000", "110826.990000", "110828.480000", "110829.970000", "110831.460000", "110832.950000", "110834.440000", "110835.930000", "110837.420000", "110838.910000", "110840.400000", "110841.890000", "110843.380000", "110844.870000", "110846.360000", "110847.850000", "110849.340000", "110850.830000", "110852.320000", "110853.810000", "110855.300000", "110856.790000", "110858.280000", "110859.770000", "110901.260000", "110902.750000", "110904.240000", "110905.730000", "110907.220000", "110908.710000", "110910.200000", "110911.690000", "110913.180000", "110914.670000", "110916.160000", "110917.650000", "110919.140000", "110920.630000", "110922.120000", "110923.610000", "110925.100000", "110926.590000", "110928.080000", "110929.570000", "110931.060000", "110932.550000", "110934.040000", "110935.530000", "110937.020000", "110938.510000", "110940.000000", "110941.490000", "110942.980000", "110944.470000", "110945.960000", "110947.450000", "110948.940000", "110950.430000", "110951.920000", "110953.410000", "110954.900000", "110956.390000", "110957.880000", "110959.370000", "111000.860000", "111002.350000", "111003.840000", "111005.330000", "111006.820000", "111008.310000", "111009.800000", "111011.290000", "111012.780000", "111014.270000", "111015.760000", "111017.250000", "111018.740000", "111020.230000", "111021.720000", "111023.210000", "111024.700000", "111026.190000", "111027.680000", "111029.170000", "111030.660000", "111032.150000", "111033.640000", "111035.130000", "111036.620000", "111038.110000", "111039.600000", "111041.090000", "111042.580000", "111044.070000", "111045.560000", "111047.050000", "111048.540000", "111050.030000", "111051.520000", "111053.010000", "111054.500000", "111055.990000", "111057.480000", "111058.970000", "111100.460000", "111101.950000", "111103.440000", "111104.930000", "111106.420000", "111107.910000", "111109.400000", "111110.890000", "111112.380000", "111113.870000", "111115.360000", "111116.850000", "111118.340000", "111119.830000", "111121.320000", "111122.810000", "111124.300000", "111125.790000", "111127.280000", "111128.770000", "111130.260000", "111131.750000", "111133.240000", "111134.730000", "111136.220000", "111137.710000", "111139.200000", "111140.690000", "111142.180000", "111143.670000", "111145.160000", "111146.650000", "111148.140000", "111149.630000", "111151.120000", "111152.610000", "111154.100000", "111155.590000", "111157.080000", "111158.570000", "111200.060000", "111201.550000", "111203.040000", "111204.530000", "111206.020000", "111207.510000", "111209.000000", "111210.490000", "111211.980000", "111213.470000", "111214.960000", "111216.450000", "111217.940000", "111219.430000", "111220.920000", "111222.410000", "111223.900000", "111225.390000", "111226.880000", "111228.370000", "111229.860000", "111231.350000", "111232.840000", "111234.330000", "111235.820000", "111237.310000", "111238.800000", "111240.290000", "111241.780000", "111243.270000", "111244.760000", "111246.250000", "111247.740000", "111249.230000", "111250.720000", "111252.210000", "111253.700000", "111255.190000", "111256.680000", "111258.170000", "111259.660000", "111301.150000", "111302.640000", "111304.130000", "111305.620000", "111307.110000", "111308.600000", "111310.090000", "111311.580000", "111313.070000", "111314.560000", "111316.050000", "111317.540000", "111319.030000", "111320.520000", "111322.010000", "111323.500000", "111324.990000", "111326.480000", "111327.970000", "111329.460000", "111330.950000", "111332.440000", "111333.930000", "111335.420000", "111336.910000", "111338.400000", "111339.890000", "111341.380000", "111342.870000", "111344.360000", "111345.850000", "111347.340000", "111348.830000", "111350.320000", "111351.810000", "111353.300000", "111354.790000", "111356.280000", "111357.770000", "111359.260000", "111400.750000", "111402.240000", "111403.730000", "111405.220000", "111406.710000", "111408.200000", "111409.690000", "111411.180000", "111412.670000", "111414.160000", "111415.650000", "111417.140000", "111418.630000", "111420.120000", "111421.610000", "111423.100000", "111424.590000", "111426.080000", "111427.570000", "111429.060000", "111430.550000", "111432.040000", "111433.530000", "111435.020000", "111436.510000", "111438.000000", "111439.490000", "111440.980000", "111442.470000", "111443.960000", "111445.450000", "111446.940000", "111448.430000", "111449.920000", "111451.410000", "111452.900000", "111454.390000", "111455.880000", "111457.370000", "111458.860000", "111500.350000", "111501.840000", "111503.330000", "111504.820000", "111506.310000", "111507.800000", "111509.290000", "111510.780000", "111512.270000", "111513.760000", "111515.250000", "111516.740000", "111518.230000", "111519.720000", "111521.210000", "111522.700000", "111524.190000", "111525.680000", "111527.170000", "111528.660000", "111530.150000", "111531.640000", "111533.130000", "111534.620000", "111536.110000", "111537.600000", "111539.090000", "111540.580000", "111542.070000", "111543.560000", "111545.050000", "111546.540000", "111548.030000", "111549.520000", "111551.010000", "111552.500000", "111553.990000", "111555.480000", "111556.970000", "111558.460000", "111559.950000", "111601.440000", "111602.930000", "111604.420000", "111605.910000", "111607.400000", "111608.890000", "111610.380000", "111611.870000", "111613.360000", "111614.850000", "111616.340000", "111617.830000", "111619.320000", "111620.810000", "111622.300000", "111623.790000", "111625.280000", "111626.770000", "111628.260000", "111629.750000", "111631.240000", "111632.730000", "111634.220000", "111635.710000", "111637.200000", "111638.690000", "111640.180000", "111641.670000", "111643.160000", "111644.650000", "111646.140000", "111647.630000", "111649.120000", "111650.610000", "111652.100000", "111653.590000", "111655.080000", "111656.570000", "111658.060000", "111659.550000", "111701.040000", "111702.530000", "111704.020000", "111705.510000", "111707.000000", "111708.490000", "111709.980000", "111711.470000", "111712.960000", "111714.450000", "111715.940000", "111717.430000", "111718.920000", "111720.410000", "111721.900000", "111723.390000", "111724.880000", "111726.370000"],
      "ContentTime": ["110711.127000", "110711.130000", "110711.133000", "110711.136000", "110711.139000", "110711.142000", "110711.145000", "110711.149000", "110711.157000", "110711.160000", "110711.163000", "110711.177000", "110711.181000", "110711.184000", "110711.187000", "110711.189000", "110711.193000", "110711.195000", "110711.198000", "110711.201000", "110711.204000", "110731.087000", "110731.090000", "110731.093000", "110731.096000", "110731.099000", "110731.102000", "110731.105000", "110731.108000", "110731.111000", "110731.120000", "110731.123000", "110731.126000", "110731.129000", "110731.132000", "110731.135000", "110731.138000", "110731.141000", "110731.143000", "110731.147000", "110731.149000", "110751.086000", "110751.089000", "110751.092000", "110751.095000", "110751.098000", "110751.101000", "110751.104000", "110751.107000", "110751.110000", "110751.112000", "110751.116000", "110751.119000", "110751.121000", "110751.124000", "110751.127000", "110751.130000", "110751.133000", "110751.136000", "110751.139000", "110751.142000", "110811.086000", "110811.089000", "110811.092000", "110811.095000", "110811.098000", "110811.101000", "110811.104000", "110811.107000", "110811.110000", "110811.113000", "110811.116000", "110811.119000", "110811.122000", "110811.125000", "110811.128000", "110811.131000", "110811.134000", "110811.137000", "110811.140000", "110811.143000", "110831.087000", "110831.090000", "110831.093000", "110831.096000", "110831.099000", "110831.102000", "110831.105000", "110831.108000", "110831.111000", "110831.114000", "110831.117000", "110831.120000", "110831.123000", "110831.126000", "110831.129000", "110831.132000", "110831.134000", "110831.137000", "110831.140000", "110831.143000", "110911.087000", "110911.090000", "110911.093000", "110911.096000", "110911.099000", "110911.102000", "110911.105000", "110911.108000", "110911.111000", "110911.114000", "110911.116000", "110911.119000", "110911.122000", "110911.125000", "110911.128000", "110911.131000", "110911.134000", "110911.137000", "110911.140000", "110911.143000", "110911.146000", "110911.150000", "110911.153000", "110911.156000", "110911.159000", "110911.162000", "110911.165000", "110911.168000", "110911.171000", "110951.087000", "110951.090000", "110951.093000", "110951.096000", "110951.099000", "110951.102000", "110951.105000", "110951.108000", "110951.111000", "110951.114000", "110951.117000", "110951.120000", "110951.123000", "110951.126000", "110951.129000", "110951.131000", "110951.134000", "110951.137000", "110951.140000", "110951.143000", "110951.146000", "110951.149000", "110951.152000", "110951.155000", "110951.158000", "110951.161000", "110951.164000", "111031.086000", "111031.089000", "111031.092000", "111031.095000", "111031.098000", "111031.101000", "111031.104000", "111031.107000", "111031.110000", "111031.113000", "111031.122000", "111031.125000", "111031.129000", "111031.132000", "111031.135000", "111031.137000", "111031.141000", "111031.143000", "111031.146000", "111031.149000", "111031.152000", "111031.155000", "111031.158000", "111031.161000", "111031.164000", "111031.167000", "111031.170000", "111111.087000", "111111.090000", "111111.093000", "111111.096000", "111111.099000", "111111.102000", "111111.105000", "111111.108000", "111111.111000", "111111.114000", "111111.117000", "111111.135000", "111111.137000", "111111.140000", "111111.143000", "111111.146000", "111111.149000", "111111.152000", "111111.155000", "111111.158000", "111111.161000", "111111.164000", "111111.167000", "111111.170000", "111111.173000", "111111.176000", "111111.179000", "111151.087000", "111151.090000", "111151.093000", "111151.096000", "111151.099000", "111151.102000", "111151.110000", "111151.113000", "111151.116000", "111151.119000", "111151.122000", "111151.125000", "111151.128000", "111151.131000", "111151.134000", "111151.137000", "111151.140000", "111151.143000", "111151.146000", "111151.149000", "111151.151000", "111151.154000", "111151.157000", "111151.160000", "111151.163000", "111151.166000", "111151.169000", "111231.086000", "111231.089000", "111231.092000", "111231.095000", "111231.098000", "111231.101000", "111231.104000", "111231.107000", "111231.110000", "111231.113000", "111231.116000", "111231.119000", "111231.122000", "111231.125000", "111231.128000", "111231.131000", "111231.134000", "111231.137000", "111231.140000", "111231.142000", "111231.145000", "111231.148000", "111231.151000", "111231.154000", "111231.157000", "111231.160000", "111231.163000", "111311.087000", "111311.090000", "111311.094000", "111311.097000", "111311.100000", "111311.102000", "111311.106000", "111311.109000", "111311.112000", "111311.114000", "111311.118000", "111311.120000", "111311.123000", "111311.126000", "111311.129000", "111311.132000", "111311.135000", "111311.138000", "111311.141000", "111311.144000", "111311.147000", "111311.150000", "111311.153000", "111311.156000", "111311.159000", "111311.163000", "111351.087000", "111351.090000", "111351.093000", "111351.096000", "111351.099000", "111351.102000", "111351.105000", "111351.108000", "111351.111000", "111351.114000", "111351.117000", "111351.120000", "111351.123000", "111351.126000", "111351.129000", "111351.132000", "111351.135000", "111351.138000", "111351.141000", "111351.144000", "111351.146000", "111351.149000", "111351.152000", "111351.155000", "111351.158000", "111351.161000", "111351.164000", "111431.087000", "111431.090000", "111431.093000", "111431.096000", "111431.099000", "111431.102000", "111431.105000", "111431.108000", "111431.111000", "111431.114000", "111431.117000", "111431.120000", "111431.123000", "111431.126000", "111431.129000", "111431.132000", "111431.135000", "111431.138000", "111431.141000", "111431.144000", "111431.147000", "111431.150000", "111431.153000", "111431.156000", "111431.158000", "111431.161000", "111431.164000", "111511.086000", "111511.089000", "111511.092000", "111511.095000", "111511.098000", "111511.101000", "111511.104000", "111511.107000", "111511.110000", "111511.113000", "111511.116000", "111511.119000", "111511.122000", "111511.125000", "111511.128000", "111511.131000", "111511.134000", "111511.137000", "111511.140000", "111511.142000", "111511.146000", "111511.149000", "111511.152000", "111511.154000", "111511.158000", "111511.160000", "111511.163000", "111551.087000", "111551.090000", "111551.093000", "111551.096000", "111551.099000", "111551.102000", "111551.118000", "111551.121000", "111551.124000", "111551.126000", "111551.129000", "111551.133000", "111551.135000", "111551.138000", "111551.141000", "111551.144000", "111551.147000", "111551.150000", "111551.153000", "111551.156000", "111551.159000", "111551.162000", "111551.165000", "111551.168000", "111551.171000", "111551.174000", "111551.296000", "111631.087000", "111631.090000", "111631.093000", "111631.096000", "111631.099000", "111631.102000", "111631.105000", "111631.108000", "111631.111000", "111631.114000", "111631.117000", "111631.120000", "111631.123000", "111631.126000", "111631.129000", "111631.132000", "111631.135000", "111631.138000", "111631.141000", "111631.144000", "111631.147000", "111631.150000", "111631.153000", "111631.156000", "111631.159000", "111631.162000", "111631.165000", "111711.086000", "111711.090000", "111711.093000", "111711.095000", "111711.098000", "111711.102000", "111711.105000", "111711.107000", "111711.110000", "111711.113000", "111711.116000", "111711.119000", "111711.122000", "111711.125000", "111711.128000", "111711.131000", "111711.134000", "111711.137000", "111711.140000", "111711.143000", "111711.146000", "111711.149000", "111711.152000", "111711.155000", "111711.158000", "111711.161000", "111711.164000", "111728.997000", "111729.002000", "111729.005000", "111729.008000", "111729.011000", "111729.014000", "111729.017000", "111729.020000", "111729.023000", "111729.026000", "111729.030000", "111729.032000"],
