{
  "AcquisitionMatrixPE": 104,
  "AcquisitionNumber": 1,
  "AcquisitionTime": "11:32:0.802500",
  "BandwidthPerPixelPhaseEncode": 17.17,
  "BaseResolution": 104,
  "BodyPartExamined": "BRAIN",
  "CoilString": "HC1-7;NC1_2",
  "ConsistencyInfo": "N4_VE11C_LATEST_20160120",
  "ConversionSoftware": "dcm2niix",
  "ConversionSoftwareVersion": "v1.0.20190902",
  "DerivedVendorReportedEchoSpacing": 0.000560011,
  "DeviceSerialNumber": "167006",
  "DwellTime": 2.1e-06,
  "EchoTime": 0.037,
  "EchoTrainLength": 104,
  "EffectiveEchoSpacing": 0.000560011,
  "FlipAngle": 52,
  "ImageComments": "Unaliased_MB4_PE3_LB",
  "ImageOrientationPatientDICOM": [0.999376, 0.0263328, 0.0235212, -0.0150016, 0.919727, -0.392272],
  "ImageType": [
    "ORIGINAL",
    "PRIMARY",
    "M",
    "MB",
    "ND",
    "MOSAIC"
],
  "ImagingFrequency": 123.259,
  "InPlanePhaseEncodingDirectionDICOM": "COL",
  "InstitutionAddress": "Chemin_Queen-Mary_4565_Montreal_District_CA_H3W_1W5",
  "InstitutionName": "IUGM",
  "InstitutionalDepartmentName": "Department",
  "MRAcquisitionType": "2D",
  "MagneticFieldStrength": 3,
  "Manufacturer": "Siemens",
  "ManufacturersModelName": "Prisma_fit",
  "Modality": "MR",
  "MultibandAccelerationFactor": 4,
  "PartialFourier": 1,
  "PatientPosition": "HFS",
  "PercentPhaseFOV": 100,
  "PhaseEncodingDirection": "j",
  "PhaseEncodingSteps": 104,
  "PhaseResolution": 1,
  "PixelBandwidth": 2290,
  "ProcedureStepDescription": "video_friends",
  "ProtocolName": "func_task-friends-s04e07b",
  "PulseSequenceDetails": "%CustomerSeq%_cmrr_mbep2d_bold",
  "ReceiveCoilActiveElements": "HC1-7;NC1,2",
  "ReceiveCoilName": "HeadNeck_64",
  "ReconMatrixPE": 104,
  "RepetitionTime": 1.49,
  "SAR": 0.0398171,
  "ScanOptions": "FS",
  "ScanningSequence": "EP",
  "SequenceName": "epfid2d1_104",
  "SequenceVariant": "SK_SS",
  "SeriesDescription": "func_task-friends-s04e07b",
  "SeriesNumber": 34,
  "ShimSetting": [635, -7180, -8862, 633, 91, 26, 19, -6],
  "SliceThickness": 2,
  "SliceTiming": [0, 0.785, 0.0975, 0.8825, 0.195, 0.98, 0.295, 1.0775, 0.3925, 1.175, 0.49, 1.275, 0.5875, 1.3725, 0.685, 0, 0.785, 0.0975, 0.8825, 0.195, 0.98, 0.295, 1.0775, 0.3925, 1.175, 0.49, 1.275, 0.5875, 1.3725, 0.685, 0, 0.785, 0.0975, 0.8825, 0.195, 0.98, 0.295, 1.0775, 0.3925, 1.175, 0.49, 1.275, 0.5875, 1.3725, 0.685, 0, 0.785, 0.0975, 0.8825, 0.195, 0.98, 0.295, 1.0775, 0.3925, 1.175, 0.49, 1.275, 0.5875, 1.3725, 0.685],
  "SoftwareVersions": "syngo_MR_E11",
  "SpacingBetweenSlices": 2,
  "StationName": "MRC35049",
  "TaskName": "s04e07b",
  "TotalReadoutTime": 0.0576811,
  "TxRefAmp": 248.123,
  "WipMemBlock": "bd038239-7fe5-4294-943d-fdbc899ae291||Sequence: R016 ve11c/master r/e634e98; Dec 19 2017 11:00:25 by eja",
  "dcmmeta_affine": [
    [-1.9987529516220093, -0.030003294348716736, 0.06392540037631989, 103.30945587158203],
    [-0.05266563966870308, 1.8394536972045898, -0.7833495140075684, -63.28298568725586],
    [0.0470423698425293, 0.7845444083213806, 1.8390967845916748, -72.80748748779297],
    [0.0, 0.0, 0.0, 1.0]
],
  "dcmmeta_reorient_transform": [
    [0.0, -1.0, 0.0, 103.0],
    [1.0, 0.0, 0.0, 0.0],
    [0.0, 0.0, 1.0, 0.0],
    [0.0, 0.0, 0.0, 1.0]
],
  "dcmmeta_shape": [104, 104, 60, 497],
  "dcmmeta_slice_dim": 2,
  "dcmmeta_version": 0.6,
  "global": {
    "const": {
      "AcquisitionMatrix": [104, 0, 0, 104],
      "AngioFlag": "N",
      "BitsAllocated": 16,
      "BitsStored": 16,
      "BodyPartExamined": "BRAIN",
      "Columns": 832,
      "EchoNumbers": 1,
      "EchoTime": 37.0,
      "EchoTrainLength": 104,
      "FlipAngle": 52.0,
      "HighBit": 15,
      "ImageOrientationPatient": [0.99937647384087, 0.02633281906597, 0.02352118562975, -0.0150016474878, 0.91972684831595, -0.3922721951139],
      "ImagePositionPatient": [-816.84399247911, -814.91218395695, 276.45132206853],
      "ImageType": [
        "ORIGINAL",
        "PRIMARY",
        "M",
        "MB",
        "ND",
        "MOSAIC"
],
      "ImagedNucleus": "1H",
      "ImagingFrequency": 123.259038,
      "InPlanePhaseEncodingDirection": "COL",
      "MRAcquisitionType": "2D",
      "MagneticFieldStrength": 3.0,
      "Manufacturer": "SIEMENS",
      "ManufacturerModelName": "Prisma_fit",
      "Modality": "MR",
      "NumberOfAverages": 1.0,
      "NumberOfPhaseEncodingSteps": 104,
      "PercentPhaseFieldOfView": 100.0,
      "PercentSampling": 100.0,
      "PerformedProcedureStepStartTime": "090500.784000",
      "PhotometricInterpretation": "MONOCHROME2",
      "PixelBandwidth": 2290.0,
      "PixelRepresentation": 0,
      "PixelSpacing": [2.0, 2.0],
      "ProtocolName": "func_task-friends-s04e07b",
      "RepetitionTime": 1490.0,
      "Rows": 832,
      "SAR": 0.03981705397897,
      "SamplesPerPixel": 1,
      "ScanOptions": "FS",
      "ScanningSequence": "EP",
      "SequenceName": "epfid2d1_104",
      "SequenceVariant": [
        "SK",
        "SS"
],
      "SeriesDescription": "func_task-friends-s04e07b",
      "SeriesNumber": 34,
      "SeriesTime": "113305.167000",
      "SliceLocation": -38.861611050573,
      "SliceThickness": 2.0,
      "SmallestImagePixelValue": 0,
      "SoftwareVersions": "syngo MR E11",
      "SpacingBetweenSlices": 2.0000000141044,
      "SpecificCharacterSet": "ISO_IR 100",
      "StudyID": "1",
      "StudyTime": "090500.636000",
      "TransmitCoilName": "Body",
      "VariableFlipAngleFlag": "N",
      "WindowCenterWidthExplanation": "Algo1",
      "dBdt": 0.0},
    "slices": {}
  },
  "time": {
    "samples": {
      "AcquisitionNumber": [1, 2, 3, 4, 5, 6, 7, 8, 9, 10, 11, 12, 13, 14, 15, 16, 17, 18, 19, 20, 21, 22, 23, 24, 25, 26, 27, 28, 29, 30, 31, 32, 33, 34, 35, 36, 37, 38, 39, 40, 41, 42, 43, 44, 45, 46, 47, 48, 49, 50, 51, 52, 53, 54, 55, 56, 57, 58, 59, 60, 61, 62, 63, 64, 65, 66, 67, 68, 69, 70, 71, 72, 73, 74, 75, 76, 77, 78, 79, 80, 81, 82, 83, 84, 85, 86, 87, 88, 89, 90, 91, 92, 93, 94, 95, 96, 97, 98, 99, 100, 101, 102, 103, 104, 105, 106, 107, 108, 109, 110, 111, 112, 113, 114, 115, 116, 117, 118, 119, 120, 121, 122, 123, 124, 125, 126, 127, 128, 129, 130, 131, 132, 133, 134, 135, 136, 137, 138, 139, 140, 141, 142, 143, 144, 145, 146, 147, 148, 149, 150, 151, 152, 153, 154, 155, 156, 157, 158, 159, 160, 161, 162, 163, 164, 165, 166, 167, 168, 169, 170, 171, 172, 173, 174, 175, 176, 177, 178, 179, 180, 181, 182, 183, 184, 185, 186, 187, 188, 189, 190, 191, 192, 193, 194, 195, 196, 197, 198, 199, 200, 201, 202, 203, 204, 205, 206, 207, 208, 209, 210, 211, 212, 213, 214, 215, 216, 217, 218, 219, 220, 221, 222, 223, 224, 225, 226, 227, 228, 229, 230, 231, 232, 233, 234, 235, 236, 237, 238, 239, 240, 241, 242, 243, 244, 245, 246, 247, 248, 249, 250, 251, 252, 253, 254, 255, 256, 257, 258, 259, 260, 261, 262, 263, 264, 265, 266, 267, 268, 269, 270, 271, 272, 273, 274, 275, 276, 277, 278, 279, 280, 281, 282, 283, 284, 285, 286, 287, 288, 289, 290, 291, 292, 293, 294, 295, 296, 297, 298, 299, 300, 301, 302, 303, 304, 305, 306, 307, 308, 309, 310, 311, 312, 313, 314, 315, 316, 317, 318, 319, 320, 321, 322, 323, 324, 325, 326, 327, 328, 329, 330, 331, 332, 333, 334, 335, 336, 337, 338, 339, 340, 341, 342, 343, 344, 345, 346, 347, 348, 349, 350, 351, 352, 353, 354, 355, 356, 357, 358, 359, 360, 361, 362, 363, 364, 365, 366, 367, 368, 369, 370, 371, 372, 373, 374, 375, 376, 377, 378, 379, 380, 381, 382, 383, 384, 385, 386, 387, 388, 389, 390, 391, 392, 393, 394, 395, 396, 397, 398, 399, 400, 401, 402, 403, 404, 405, 406, 407, 408, 409, 410, 411, 412, 413, 414, 415, 416, 417, 418, 419, 420, 421, 422, 423, 424, 425, 426, 427, 428, 429, 430, 431, 432, 433, 434, 435, 436, 437, 438, 439, 440, 441, 442, 443, 444, 445, 446, 447, 448, 449, 450, 451, 452, 453, 454, 455, 456, 457, 458, 459, 460, 461, 462, 463, 464, 465, 466, 467, 468, 469, 470, 471, 472, 473, 474, 475, 476, 477, 478, 479, 480, 481, 482, 483, 484, 485, 486, 487, 488, 489, 490, 491, 492, 493, 494, 495, 496, 497],
      "AcquisitionTime": ["113200.802500", "113202.292500", "113203.782500", "113205.272500", "113206.762500", "113208.252500", "113209.742500", "113211.232500", "113212.722500", "113214.212500", "113215.702500", "113217.192500", "113218.682500", "113220.172500", "113221.662500", "113223.152500", "113224.642500", "113226.132500", "113227.622500", "113229.112500", "113230.602500", "113232.092500", "113233.582500", "113235.072500", "113236.562500", "113238.052500", "113239.542500", "113241.032500", "113242.522500", "113244.012500", "113245.502500", "113246.992500", "113248.482500", "113249.972500", "113251.462500", "113252.952500", "113254.442500", "113255.932500", "113257.422500", "113258.912500", "113300.402500", "113301.892500", "113303.382500", "113304.872500", "113306.362500", "113307.852500", "113309.342500", "113310.832500", "113312.322500", "113313.812500", "113315.302500", "113316.792500", "113318.282500", "113319.772500", "113321.262500", "113322.752500", "113324.242500", "113325.732500", "113327.222500", "113328.712500", "113330.202500", "113331.692500", "113333.182500", "113334.672500", "113336.162500", "113337.652500", "113339.142500", "113340.632500", "113342.122500", "113343.612500", "113345.102500", "113346.592500", "113348.082500", "113349.572500", "113351.062500", "113352.552500", "113354.042500", "113355.532500", "113357.022500", "113358.512500", "113400.002500", "113401.492500", "113402.982500", "113404.472500", "113405.962500", "113407.452500", "113408.942500", "113410.432500", "113411.922500", "113413.412500", "113414.902500", "113416.392500", "113417.882500", "113419.372500", "113420.862500", "113422.352500", "113423.842500", "113425.332500", "113426.822500", "113428.312500", "113429.802500", "113431.292500", "113432.782500", "113434.272500", "113435.762500", "113437.252500", "113438.742500", "113440.232500", "113441.722500", "113443.212500", "113444.702500", "113446.192500", "113447.682500", "113449.172500", "113450.662500", "113452.152500", "113453.642500", "113455.132500", "113456.622500", "113458.112500", "113459.602500", "113501.092500", "113502.582500", "113504.072500", "113505.562500", "113507.052500", "113508.542500", "113510.032500", "113511.522500", "113513.012500", "113514.502500", "113515.992500", "113517.482500", "113518.972500", "113520.462500", "113521.952500", "113523.442500", "113524.932500", "113526.422500", "113527.912500", "113529.402500", "113530.892500", "113532.382500", "113533.872500", "113535.362500", "113536.852500", "113538.342500", "113539.832500", "113541.322500", "113542.812500", "113544.302500", "113545.792500", "113547.282500", "113548.772500", "113550.262500", "113551.752500", "113553.242500", "113554.732500", "113556.222500", "113557.712500", "113559.202500", "113600.692500", "113602.182500", "113603.672500", "113605.162500", "113606.652500", "113608.142500", "113609.632500", "113611.122500", "113612.612500", "113614.102500", "113615.592500", "113617.082500", "113618.572500", "113620.062500", "113621.552500", "113623.042500", "113624.532500", "113626.022500", "113627.512500", "113629.002500", "113630.492500", "113631.982500", "113633.472500", "113634.962500", "113636.452500", "113637.942500", "113639.432500", "113640.922500", "113642.412500", "113643.902500", "113645.392500", "113646.882500", "113648.372500", "113649.862500", "113651.352500", "113652.842500", "113654.332500", "113655.822500", "113657.312500", "113658.802500", "113700.292500", "113701.782500", "113703.272500", "113704.762500", "113706.252500", "113707.742500", "113709.232500", "113710.722500", "113712.212500", "113713.702500", "113715.192500", "113716.682500", "113718.172500", "113719.662500", "113721.152500", "113722.642500", "113724.132500", "113725.622500", "113727.112500", "113728.602500", "113730.092500", "113731.582500", "113733.072500", "113734.562500", "113736.052500", "113737.542500", "113739.032500", "113740.522500", "113742.012500", "113743.502500", "113744.992500", "113746.482500", "113747.972500", "113749.462500", "113750.952500", "113752.442500", "113753.932500", "113755.422500", "113756.912500", "113758.402500", "113759.892500", "113801.382500", "113802.872500", "113804.362500", "113805.852500", "113807.342500", "113808.832500", "113810.322500", "113811.812500", "113813.302500", "113814.792500", "113816.282500", "113817.772500", "113819.262500", "113820.752500", "113822.242500", "113823.732500", "113825.222500", "113826.712500", "113828.202500", "113829.692500", "113831.182500", "113832.672500", "113834.162500", "113835.652500", "113837.142500", "113838.632500", "113840.122500", "113841.612500", "113843.102500", "113844.592500", "113846.082500", "113847.572500", "113849.062500", "113850.552500", "113852.042500", "113853.532500", "113855.022500", "113856.512500", "113858.002500", "113859.492500", "113900.982500", "113902.472500", "113903.962500", "113905.452500", "113906.942500", "113908.432500", "113909.922500", "113911.412500", "113912.902500", "113914.392500", "113915.882500", "113917.372500", "113918.862500", "113920.352500", "113921.842500", "113923.332500", "113924.822500", "113926.312500", "113927.802500", "113929.292500", "113930.782500", "113932.272500", "113933.762500", "113935.252500", "113936.742500", "113938.232500", "113939.722500", "113941.212500", "113942.702500", "113944.192500", "113945.682500", "113947.172500", "113948.662500", "113950.152500", "113951.642500", "113953.132500", "113954.622500", "113956.112500", "113957.602500", "113959.092500", "114000.582500", "114002.072500", "114003.562500", "114005.052500", "114006.542500", "114008.032500", "114009.522500", "114011.012500", "114012.502500", "114013.992500", "114015.482500", "114016.972500", "114018.462500", "114019.952500", "114021.442500", "114022.932500", "114024.422500", "114025.912500", "114027.402500", "114028.892500", "114030.382500", "114031.872500", "114033.362500", "114034.852500", "114036.342500", "114037.832500", "114039.322500", "114040.812500", "114042.302500", "114043.792500", "114045.282500", "114046.772500", "114048.262500", "114049.752500", "114051.242500", "114052.732500", "114054.222500", "114055.712500", "114057.202500", "114058.692500", "114100.182500", "114101.672500", "114103.162500", "114104.652500", "114106.142500", "114107.632500", "114109.122500", "114110.612500", "114112.102500", "114113.592500", "114115.082500", "114116.572500", "114118.062500", "114119.552500", "114121.042500", "114122.532500", "114124.022500", "114125.512500", "114127.002500", "114128.492500", "114129.982500", "114131.472500", "114132.962500", "114134.452500", "114135.942500", "114137.432500", "114138.922500", "114140.412500", "114141.902500", "114143.392500", "114144.882500", "114146.372500", "114147.862500", "114149.352500", "114150.842500", "114152.332500", "114153.822500", "114155.312500", "114156.802500", "114158.292500", "114159.782500", "114201.272500", "114202.762500", "114204.252500", "114205.742500", "114207.232500", "114208.722500", "114210.212500", "114211.702500", "114213.192500", "114214.682500", "114216.172500", "114217.662500", "114219.152500", "114220.642500", "114222.132500", "114223.622500", "114225.112500", "114226.602500", "114228.092500", "114229.582500", "114231.072500", "114232.562500", "114234.052500", "114235.542500", "114237.032500", "114238.522500", "114240.012500", "114241.502500", "114242.992500", "114244.482500", "114245.972500", "114247.462500", "114248.952500", "114250.442500", "114251.932500", "114253.422500", "114254.912500", "114256.402500", "114257.892500", "114259.382500", "114300.872500", "114302.362500", "114303.852500", "114305.342500", "114306.832500", "114308.322500", "114309.812500", "114311.302500", "114312.792500", "114314.282500", "114315.772500", "114317.262500", "114318.752500", "114320.242500", "114321.732500", "114323.222500", "114324.712500", "114326.202500", "114327.692500", "114329.182500", "114330.672500", "114332.162500", "114333.652500", "114335.142500", "114336.632500", "114338.122500", "114339.612500", "114341.102500", "114342.592500", "114344.082500", "114345.572500", "114347.062500", "114348.552500", "114350.042500", "114351.532500", "114353.022500", "114354.512500", "114356.002500", "114357.492500", "114358.982500", "114400.472500", "114401.962500", "114403.452500", "114404.942500", "114406.432500", "114407.922500", "114409.412500", "114410.902500", "114412.392500", "114413.882500", "114415.372500", "114416.862500", "114418.352500", "114419.842500"],
      "ContentTime": ["113305.169000", "113305.173000", "113305.176000", "113305.179000", "113305.182000", "113305.184000", "113325.140000", "113325.143000", "113325.152000", "113325.155000", "113325.158000", "113325.161000", "113325.164000", "113325.167000", "113325.170000", "113325.173000", "113325.176000", "113325.179000", "113325.182000", "113325.185000", "113325.193000", "113325.196000", "113325.199000", "113325.202000", "113325.205000", "113325.208000", "113325.211000", "113345.140000", "113345.143000", "113345.146000", "113345.149000", "113345.152000", "113345.155000", "113345.158000", "113345.161000", "113345.164000", "113345.166000", "113345.169000", "113345.193000", "113345.196000", "113345.199000", "113345.202000", "113345.205000", "113345.208000", "113345.211000", "113345.214000", "113345.217000", "113405.139000", "113405.142000", "113405.145000", "113405.148000", "113405.151000", "113405.165000", "113405.168000", "113405.171000", "113405.174000", "113405.177000", "113405.180000", "113405.183000", "113405.186000", "113405.188000", "113405.191000", "113405.194000", "113405.197000", "113405.200000", "113405.203000", "113405.206000", "113425.139000", "113425.142000", "113425.145000", "113425.148000", "113425.151000", "113425.154000", "113425.157000", "113425.160000", "113425.163000", "113425.166000", "113425.169000", "113425.172000", "113425.175000", "113425.178000", "113425.181000", "113425.184000", "113425.197000", "113425.200000", "113425.203000", "113425.205000", "113445.140000", "113445.143000", "113445.146000", "113445.149000", "113445.152000", "113445.155000", "113445.158000", "113445.161000", "113445.164000", "113445.177000", "113445.180000", "113445.183000", "113445.186000", "113445.188000", "113445.192000", "113445.194000", "113445.197000", "113445.200000", "113445.203000", "113445.206000", "113525.140000", "113525.143000", "113525.146000", "113525.149000", "113525.152000", "113525.155000", "113525.158000", "113525.161000", "113525.164000", "113525.167000", "113525.170000", "113525.176000", "113525.179000", "113525.182000", "113525.185000", "113525.188000", "113525.191000", "113525.194000", "113525.197000", "113525.200000", "113525.203000", "113525.206000", "113525.209000", "113525.211000", "113525.215000", "113525.218000", "113525.220000", "113525.223000", "113525.227000", "113605.140000", "113605.143000", "113605.146000", "113605.149000", "113605.152000", "113605.155000", "113605.158000", "113605.161000", "113605.164000", "113605.167000", "113605.170000", "113605.173000", "113605.176000", "113605.179000", "113605.182000", "113605.185000", "113605.188000", "113605.191000", "113605.194000", "113605.197000", "113605.200000", "113605.203000", "113605.206000", "113605.209000", "113605.212000", "113605.215000", "113605.218000", "113645.139000", "113645.142000", "113645.145000", "113645.148000", "113645.151000", "113645.154000", "113645.157000", "113645.160000", "113645.163000", "113645.166000", "113645.169000", "113645.172000", "113645.175000", "113645.178000", "113645.181000", "113645.184000", "113645.187000", "113645.190000", "113645.193000", "113645.196000", "113645.199000", "113645.202000", "113645.205000", "113645.208000", "113645.211000", "113645.214000", "113645.216000", "113725.141000", "113725.144000", "113725.147000", "113725.150000", "113725.153000", "113725.157000", "113725.160000", "113725.163000", "113725.166000", "113725.169000", "113725.172000", "113725.175000", "113725.178000", "113725.181000", "113725.184000", "113725.188000", "113725.191000", "113725.199000", "113725.202000", "113725.205000", "113725.208000", "113725.211000", "113725.213000", "113725.216000", "113725.219000", "113725.222000", "113725.225000", "113805.140000", "113805.143000", "113805.146000", "113805.149000", "113805.167000", "113805.170000", "113805.173000", "113805.176000", "113805.180000", "113805.183000", "113805.186000", "113805.189000", "113805.192000", "113805.195000", "113805.198000", "113805.201000", "113805.204000", "113805.207000", "113805.210000", "113805.213000", "113805.216000", "113805.219000", "113805.222000", "113805.225000", "113805.228000", "113805.231000", "113845.139000", "113845.142000", "113845.145000", "113845.148000", "113845.151000", "113845.154000", "113845.157000", "113845.160000", "113845.163000", "113845.166000", "113845.169000", "113845.172000", "113845.287000", "113845.290000", "113845.293000", "113845.296000", "113845.299000", "113845.302000", "113845.305000", "113845.308000", "113845.311000", "113845.314000", "113845.317000", "113845.320000", "113845.323000", "113845.326000", "113845.330000", "113925.140000", "113925.143000", "113925.146000", "113925.149000", "113925.152000", "113925.155000", "113925.158000", "113925.161000", "113925.164000", "113925.167000", "113925.170000", "113925.173000", "113925.194000", "113925.197000", "113925.200000", "113925.203000", "113925.206000", "113925.209000", "113925.212000", "113925.215000", "113925.218000", "113925.221000", "113925.224000", "113925.227000", "113925.230000", "113925.233000", "113925.236000", "114005.140000", "114005.143000", "114005.146000", "114005.149000", "114005.152000", "114005.155000", "114005.158000", "114005.161000", "114005.164000", "114005.167000", "114005.170000", "114005.173000", "114005.176000", "114005.179000", "114005.182000", "114005.185000", "114005.188000", "114005.191000", "114005.194000", "114005.197000", "114005.200000", "114005.203000", "114005.206000", "114005.209000", "114005.212000", "114005.215000", "114005.218000", "114045.140000", "114045.143000", "114045.146000", "114045.149000", "114045.152000", "114045.155000", "114045.158000", "114045.161000", "114045.164000", "114045.167000", "114045.170000", "114045.173000", "114045.176000", "114045.179000", "114045.182000", "114045.185000", "114045.188000", "114045.191000", "114045.194000", "114045.197000", "114045.200000", "114045.203000", "114045.206000", "114045.209000", "114045.212000", "114045.215000", "114045.218000", "114125.139000", "114125.142000", "114125.145000", "114125.148000", "114125.151000", "114125.154000", "114125.157000", "114125.160000", "114125.163000", "114125.166000", "114125.169000", "114125.172000", "114125.305000", "114125.308000", "114125.311000", "114125.313000", "114125.317000", "114125.319000", "114125.322000", "114125.325000", "114125.328000", "114125.331000", "114125.334000", "114125.337000", "114125.340000", "114125.343000", "114125.346000", "114145.140000", "114145.143000", "114145.146000", "114145.149000", "114145.152000", "114145.155000", "114145.158000", "114145.161000", "114145.164000", "114145.167000", "114145.170000", "114145.173000", "114145.176000", "114225.140000", "114225.143000", "114225.146000", "114225.149000", "114225.152000", "114225.155000", "114225.158000", "114225.161000", "114225.164000", "114225.167000", "114225.170000", "114225.173000", "114225.177000", "114225.180000", "114225.190000", "114225.192000", "114225.195000", "114225.198000", "114225.201000", "114225.204000", "114225.207000", "114225.210000", "114225.213000", "114225.216000", "114225.219000", "114225.222000", "114225.225000", "114305.140000", "114305.143000", "114305.146000", "114305.149000", "114305.152000", "114305.155000", "114305.158000", "114305.161000", "114305.164000", "114305.167000", "114305.170000", "114305.173000", "114305.176000", "114305.179000", "114305.182000", "114305.185000", "114305.188000", "114305.191000", "114305.194000", "114305.197000", "114305.200000", "114305.203000", "114305.206000", "114305.209000", "114305.212000", "114305.215000", "114305.218000", "114345.139000", "114345.142000", "114345.145000", "114345.148000", "114345.151000", "114345.154000", "114345.157000", "114345.160000", "114345.163000", "114345.166000", "114345.169000", "114345.173000", "114345.176000", "114345.179000", "114345.182000", "114345.185000", "114345.188000", "114345.191000", "114345.194000", "114345.197000", "114345.200000", "114345.203000", "114345.206000", "114345.209000", "114345.212000", "114345.215000", "114345.218000", "114422.191000", "114422.195000", "114422.198000", "114422.201000", "114422.204000", "114422.207000", "114422.210000", "114422.213000", "114422.216000", "114422.219000", "114422.222000", "114422.225000", "114422.227000", "114422.230000", "114422.233000", "114422.236000", "114422.239000", "114422.242000", "114422.245000", "114422.248000", "114422.251000", "114422.254000", "114422.257000", "114422.260000", "114422.263000"],
