{
  "AcquisitionMatrixPE": 104,
  "AcquisitionNumber": 1,
  "AcquisitionTime": "10:53:25.915000",
  "BandwidthPerPixelPhaseEncode": 17.17,
  "BaseResolution": 104,
  "BodyPartExamined": "BRAIN",
  "CoilString": "HC1-7;NC1_2",
  "ConsistencyInfo": "N4_VE11C_LATEST_20160120",
  "ConversionSoftware": "dcm2niix",
  "ConversionSoftwareVersion": "v1.0.20190902",
  "DerivedVendorReportedEchoSpacing": 0.000560011,
  "DeviceSerialNumber": "167006",
  "DwellTime": 2.1e-06,
  "EchoTime": 0.037,
  "EchoTrainLength": 104,
  "EffectiveEchoSpacing": 0.000560011,
  "FlipAngle": 52,
  "ImageComments": "Unaliased_MB4_PE3_LB",
  "ImageOrientationPatientDICOM": [0.999376, 0.0263328, 0.0235212, -0.0150016, 0.919727, -0.392272],
  "ImageType": [
    "ORIGINAL",
    "PRIMARY",
    "M",
    "MB",
    "ND",
    "MOSAIC"
],
  "ImagingFrequency": 123.259,
  "InPlanePhaseEncodingDirectionDICOM": "COL",
  "InstitutionAddress": "Chemin_Queen-Mary_4565_Montreal_District_CA_H3W_1W5",
  "InstitutionName": "IUGM",
  "InstitutionalDepartmentName": "Department",
  "MRAcquisitionType": "2D",
  "MagneticFieldStrength": 3,
  "Manufacturer": "Siemens",
  "ManufacturersModelName": "Prisma_fit",
  "Modality": "MR",
  "MultibandAccelerationFactor": 4,
  "PartialFourier": 1,
  "PatientPosition": "HFS",
  "PercentPhaseFOV": 100,
  "PhaseEncodingDirection": "j",
  "PhaseEncodingSteps": 104,
  "PhaseResolution": 1,
  "PixelBandwidth": 2290,
  "ProcedureStepDescription": "video_friends",
  "ProtocolName": "func_task-friends-s04e06a",
  "PulseSequenceDetails": "%CustomerSeq%_cmrr_mbep2d_bold",
  "ReceiveCoilActiveElements": "HC1-7;NC1,2",
  "ReceiveCoilName": "HeadNeck_64",
  "ReconMatrixPE": 104,
  "RepetitionTime": 1.49,
  "SAR": 0.0398062,
  "ScanOptions": "FS",
  "ScanningSequence": "EP",
  "SequenceName": "epfid2d1_104",
  "SequenceVariant": "SK_SS",
  "SeriesDescription": "func_task-friends-s04e06a",
  "SeriesNumber": 28,
  "ShimSetting": [635, -7180, -8862, 633, 91, 26, 19, -6],
  "SliceThickness": 2,
  "SliceTiming": [0, 0.7825, 0.0975, 0.88, 0.195, 0.98, 0.2925, 1.0775, 0.39, 1.175, 0.49, 1.2725, 0.5875, 1.37, 0.685, 0, 0.7825, 0.0975, 0.88, 0.195, 0.98, 0.2925, 1.0775, 0.39, 1.175, 0.49, 1.2725, 0.5875, 1.37, 0.685, 0, 0.7825, 0.0975, 0.88, 0.195, 0.98, 0.2925, 1.0775, 0.39, 1.175, 0.49, 1.2725, 0.5875, 1.37, 0.685, 0, 0.7825, 0.0975, 0.88, 0.195, 0.98, 0.2925, 1.0775, 0.39, 1.175, 0.49, 1.2725, 0.5875, 1.37, 0.685],
  "SoftwareVersions": "syngo_MR_E11",
  "SpacingBetweenSlices": 2,
  "StationName": "MRC35049",
  "TaskName": "s04e06a",
  "TotalReadoutTime": 0.0576811,
  "TxRefAmp": 248.123,
  "WipMemBlock": "bd4c35a6-f79e-463d-8f39-7ee29e0d344a||Sequence: R016 ve11c/master r/e634e98; Dec 19 2017 11:00:25 by eja",
  "dcmmeta_affine": [
    [-1.9987529516220093, -0.030003294348716736, 0.06392540037631989, 103.30945587158203],
    [-0.05266563966870308, 1.8394536972045898, -0.7833495140075684, -63.28298568725586],
    [0.0470423698425293, 0.7845444083213806, 1.8390967845916748, -72.80748748779297],
    [0.0, 0.0, 0.0, 1.0]
],
  "dcmmeta_reorient_transform": [
    [0.0, -1.0, 0.0, 103.0],
    [1.0, 0.0, 0.0, 0.0],
    [0.0, 0.0, 1.0, 0.0],
    [0.0, 0.0, 0.0, 1.0]
],
  "dcmmeta_shape": [104, 104, 60, 465],
  "dcmmeta_slice_dim": 2,
  "dcmmeta_version": 0.6,
  "global": {
    "const": {
      "AcquisitionMatrix": [104, 0, 0, 104],
      "AngioFlag": "N",
      "BitsAllocated": 16,
      "BitsStored": 16,
      "BodyPartExamined": "BRAIN",
      "Columns": 832,
      "EchoNumbers": 1,
      "EchoTime": 37.0,
      "EchoTrainLength": 104,
      "FlipAngle": 52.0,
      "HighBit": 15,
      "ImageOrientationPatient": [0.99937647384087, 0.02633281906597, 0.02352118562975, -0.0150016474878, 0.91972684831595, -0.3922721951139],
      "ImagePositionPatient": [-816.84399247911, -814.91218395695, 276.45132206853],
      "ImageType": [
        "ORIGINAL",
        "PRIMARY",
        "M",
        "MB",
        "ND",
        "MOSAIC"
],
      "ImagedNucleus": "1H",
      "ImagingFrequency": 123.25903,
      "InPlanePhaseEncodingDirection": "COL",
      "MRAcquisitionType": "2D",
      "MagneticFieldStrength": 3.0,
      "Manufacturer": "SIEMENS",
      "ManufacturerModelName": "Prisma_fit",
      "Modality": "MR",
      "NumberOfAverages": 1.0,
      "NumberOfPhaseEncodingSteps": 104,
      "PercentPhaseFieldOfView": 100.0,
      "PercentSampling": 100.0,
      "PerformedProcedureStepStartTime": "090500.784000",
      "PhotometricInterpretation": "MONOCHROME2",
      "PixelBandwidth": 2290.0,
      "PixelRepresentation": 0,
      "PixelSpacing": [2.0, 2.0],
      "ProtocolName": "func_task-friends-s04e06a",
      "RepetitionTime": 1490.0,
      "Rows": 832,
      "SAR": 0.03980615938945,
      "SamplesPerPixel": 1,
      "ScanOptions": "FS",
      "ScanningSequence": "EP",
      "SequenceName": "epfid2d1_104",
      "SequenceVariant": [
        "SK",
        "SS"
],
      "SeriesDescription": "func_task-friends-s04e06a",
      "SeriesNumber": 28,
      "SeriesTime": "105445.167000",
      "SliceLocation": -38.861611050573,
      "SliceThickness": 2.0,
      "SmallestImagePixelValue": 0,
      "SoftwareVersions": "syngo MR E11",
      "SpacingBetweenSlices": 2.0000000141044,
      "SpecificCharacterSet": "ISO_IR 100",
      "StudyID": "1",
      "StudyTime": "090500.636000",
      "TransmitCoilName": "Body",
      "VariableFlipAngleFlag": "N",
      "WindowCenterWidthExplanation": "Algo1",
      "dBdt": 0.0},
    "slices": {}
  },
  "time": {
    "samples": {
      "AcquisitionNumber": [1, 2, 3, 4, 5, 6, 7, 8, 9, 10, 11, 12, 13, 14, 15, 16, 17, 18, 19, 20, 21, 22, 23, 24, 25, 26, 27, 28, 29, 30, 31, 32, 33, 34, 35, 36, 37, 38, 39, 40, 41, 42, 43, 44, 45, 46, 47, 48, 49, 50, 51, 52, 53, 54, 55, 56, 57, 58, 59, 60, 61, 62, 63, 64, 65, 66, 67, 68, 69, 70, 71, 72, 73, 74, 75, 76, 77, 78, 79, 80, 81, 82, 83, 84, 85, 86, 87, 88, 89, 90, 91, 92, 93, 94, 95, 96, 97, 98, 99, 100, 101, 102, 103, 104, 105, 106, 107, 108, 109, 110, 111, 112, 113, 114, 115, 116, 117, 118, 119, 120, 121, 122, 123, 124, 125, 126, 127, 128, 129, 130, 131, 132, 133, 134, 135, 136, 137, 138, 139, 140, 141, 142, 143, 144, 145, 146, 147, 148, 149, 150, 151, 152, 153, 154, 155, 156, 157, 158, 159, 160, 161, 162, 163, 164, 165, 166, 167, 168, 169, 170, 171, 172, 173, 174, 175, 176, 177, 178, 179, 180, 181, 182, 183, 184, 185, 186, 187, 188, 189, 190, 191, 192, 193, 194, 195, 196, 197, 198, 199, 200, 201, 202, 203, 204, 205, 206, 207, 208, 209, 210, 211, 212, 213, 214, 215, 216, 217, 218, 219, 220, 221, 222, 223, 224, 225, 226, 227, 228, 229, 230, 231, 232, 233, 234, 235, 236, 237, 238, 239, 240, 241, 242, 243, 244, 245, 246, 247, 248, 249, 250, 251, 252, 253, 254, 255, 256, 257, 258, 259, 260, 261, 262, 263, 264, 265, 266, 267, 268, 269, 270, 271, 272, 273, 274, 275, 276, 277, 278, 279, 280, 281, 282, 283, 284, 285, 286, 287, 288, 289, 290, 291, 292, 293, 294, 295, 296, 297, 298, 299, 300, 301, 302, 303, 304, 305, 306, 307, 308, 309, 310, 311, 312, 313, 314, 315, 316, 317, 318, 319, 320, 321, 322, 323, 324, 325, 326, 327, 328, 329, 330, 331, 332, 333, 334, 335, 336, 337, 338, 339, 340, 341, 342, 343, 344, 345, 346, 347, 348, 349, 350, 351, 352, 353, 354, 355, 356, 357, 358, 359, 360, 361, 362, 363, 364, 365, 366, 367, 368, 369, 370, 371, 372, 373, 374, 375, 376, 377, 378, 379, 380, 381, 382, 383, 384, 385, 386, 387, 388, 389, 390, 391, 392, 393, 394, 395, 396, 397, 398, 399, 400, 401, 402, 403, 404, 405, 406, 407, 408, 409, 410, 411, 412, 413, 414, 415, 416, 417, 418, 419, 420, 421, 422, 423, 424, 425, 426, 427, 428, 429, 430, 431, 432, 433, 434, 435, 436, 437, 438, 439, 440, 441, 442, 443, 444, 445, 446, 447, 448, 449, 450, 451, 452, 453, 454, 455, 456, 457, 458, 459, 460, 461, 462, 463, 464, 465],
      "AcquisitionTime": ["105325.915000", "105327.405000", "105328.895000", "105330.385000", "105331.875000", "105333.365000", "105334.855000", "105336.345000", "105337.835000", "105339.325000", "105340.815000", "105342.305000", "105343.795000", "105345.285000", "105346.775000", "105348.265000", "105349.755000", "105351.245000", "105352.735000", "105354.225000", "105355.715000", "105357.205000", "105358.695000", "105400.185000", "105401.675000", "105403.165000", "105404.655000", "105406.145000", "105407.635000", "105409.125000", "105410.615000", "105412.105000", "105413.595000", "105415.085000", "105416.575000", "105418.065000", "105419.555000", "105421.045000", "105422.535000", "105424.025000", "105425.515000", "105427.005000", "105428.495000", "105429.985000", "105431.475000", "105432.965000", "105434.455000", "105435.945000", "105437.435000", "105438.925000", "105440.415000", "105441.905000", "105443.395000", "105444.885000", "105446.375000", "105447.865000", "105449.355000", "105450.845000", "105452.335000", "105453.825000", "105455.315000", "105456.805000", "105458.295000", "105459.785000", "105501.275000", "105502.765000", "105504.255000", "105505.745000", "105507.235000", "105508.725000", "105510.215000", "105511.705000", "105513.195000", "105514.685000", "105516.175000", "105517.665000", "105519.155000", "105520.645000", "105522.135000", "105523.625000", "105525.115000", "105526.605000", "105528.095000", "105529.585000", "105531.075000", "105532.565000", "105534.055000", "105535.545000", "105537.035000", "105538.525000", "105540.015000", "105541.505000", "105542.995000", "105544.485000", "105545.975000", "105547.465000", "105548.955000", "105550.445000", "105551.935000", "105553.425000", "105554.915000", "105556.405000", "105557.895000", "105559.385000", "105600.875000", "105602.365000", "105603.855000", "105605.345000", "105606.835000", "105608.325000", "105609.815000", "105611.305000", "105612.795000", "105614.285000", "105615.775000", "105617.265000", "105618.755000", "105620.245000", "105621.735000", "105623.225000", "105624.715000", "105626.205000", "105627.695000", "105629.185000", "105630.675000", "105632.165000", "105633.655000", "105635.145000", "105636.635000", "105638.125000", "105639.615000", "105641.105000", "105642.595000", "105644.085000", "105645.575000", "105647.065000", "105648.555000", "105650.045000", "105651.535000", "105653.025000", "105654.515000", "105656.005000", "105657.495000", "105658.985000", "105700.475000", "105701.965000", "105703.455000", "105704.945000", "105706.435000", "105707.925000", "105709.415000", "105710.905000", "105712.395000", "105713.885000", "105715.375000", "105716.865000", "105718.355000", "105719.845000", "105721.335000", "105722.825000", "105724.315000", "105725.805000", "105727.295000", "105728.785000", "105730.275000", "105731.765000", "105733.255000", "105734.745000", "105736.235000", "105737.725000", "105739.215000", "105740.705000", "105742.195000", "105743.685000", "105745.175000", "105746.665000", "105748.155000", "105749.645000", "105751.135000", "105752.625000", "105754.115000", "105755.605000", "105757.095000", "105758.585000", "105800.075000", "105801.565000", "105803.055000", "105804.545000", "105806.035000", "105807.525000", "105809.015000", "105810.505000", "105811.995000", "105813.485000", "105814.975000", "105816.465000", "105817.955000", "105819.445000", "105820.935000", "105822.425000", "105823.915000", "105825.405000", "105826.895000", "105828.385000", "105829.875000", "105831.365000", "105832.855000", "105834.345000", "105835.835000", "105837.325000", "105838.815000", "105840.305000", "105841.795000", "105843.285000", "105844.775000", "105846.265000", "105847.755000", "105849.245000", "105850.735000", "105852.225000", "105853.715000", "105855.205000", "105856.695000", "105858.185000", "105859.675000", "105901.165000", "105902.655000", "105904.145000", "105905.635000", "105907.125000", "105908.615000", "105910.105000", "105911.595000", "105913.085000", "105914.575000", "105916.065000", "105917.555000", "105919.045000", "105920.535000", "105922.025000", "105923.515000", "105925.005000", "105926.495000", "105927.985000", "105929.475000", "105930.965000", "105932.455000", "105933.945000", "105935.435000", "105936.925000", "105938.415000", "105939.905000", "105941.395000", "105942.885000", "105944.375000", "105945.865000", "105947.355000", "105948.845000", "105950.335000", "105951.825000", "105953.315000", "105954.805000", "105956.295000", "105957.785000", "105959.275000", "110000.765000", "110002.255000", "110003.745000", "110005.235000", "110006.725000", "110008.215000", "110009.705000", "110011.195000", "110012.685000", "110014.175000", "110015.665000", "110017.155000", "110018.645000", "110020.135000", "110021.625000", "110023.115000", "110024.605000", "110026.095000", "110027.585000", "110029.075000", "110030.565000", "110032.055000", "110033.545000", "110035.035000", "110036.525000", "110038.015000", "110039.505000", "110040.995000", "110042.485000", "110043.975000", "110045.465000", "110046.955000", "110048.445000", "110049.935000", "110051.425000", "110052.915000", "110054.405000", "110055.895000", "110057.385000", "110058.875000", "110100.365000", "110101.855000", "110103.345000", "110104.835000", "110106.325000", "110107.815000", "110109.305000", "110110.795000", "110112.285000", "110113.775000", "110115.265000", "110116.755000", "110118.245000", "110119.735000", "110121.225000", "110122.715000", "110124.205000", "110125.695000", "110127.185000", "110128.675000", "110130.165000", "110131.655000", "110133.145000", "110134.635000", "110136.125000", "110137.615000", "110139.105000", "110140.595000", "110142.085000", "110143.575000", "110145.065000", "110146.555000", "110148.045000", "110149.535000", "110151.025000", "110152.515000", "110154.005000", "110155.495000", "110156.985000", "110158.475000", "110159.965000", "110201.455000", "110202.945000", "110204.435000", "110205.925000", "110207.415000", "110208.905000", "110210.395000", "110211.885000", "110213.375000", "110214.865000", "110216.355000", "110217.845000", "110219.335000", "110220.825000", "110222.315000", "110223.805000", "110225.295000", "110226.785000", "110228.275000", "110229.765000", "110231.255000", "110232.745000", "110234.235000", "110235.725000", "110237.215000", "110238.705000", "110240.195000", "110241.685000", "110243.175000", "110244.665000", "110246.155000", "110247.645000", "110249.135000", "110250.625000", "110252.115000", "110253.605000", "110255.095000", "110256.585000", "110258.075000", "110259.565000", "110301.055000", "110302.545000", "110304.035000", "110305.525000", "110307.015000", "110308.505000", "110309.995000", "110311.485000", "110312.975000", "110314.465000", "110315.955000", "110317.445000", "110318.935000", "110320.425000", "110321.915000", "110323.405000", "110324.895000", "110326.385000", "110327.875000", "110329.365000", "110330.855000", "110332.345000", "110333.835000", "110335.325000", "110336.815000", "110338.305000", "110339.795000", "110341.285000", "110342.775000", "110344.265000", "110345.755000", "110347.245000", "110348.735000", "110350.225000", "110351.715000", "110353.205000", "110354.695000", "110356.185000", "110357.675000", "110359.165000", "110400.655000", "110402.145000", "110403.635000", "110405.125000", "110406.615000", "110408.105000", "110409.595000", "110411.085000", "110412.575000", "110414.065000", "110415.555000", "110417.045000", "110418.535000", "110420.025000", "110421.515000", "110423.005000", "110424.495000", "110425.985000", "110427.475000", "110428.965000", "110430.455000", "110431.945000", "110433.435000", "110434.925000", "110436.415000", "110437.905000", "110439.395000", "110440.885000", "110442.375000", "110443.865000", "110445.355000", "110446.845000", "110448.335000", "110449.825000", "110451.315000", "110452.805000", "110454.295000", "110455.785000", "110457.275000"],
      "ContentTime": ["105445.169000", "105445.173000", "105445.176000", "105445.179000", "105445.182000", "105445.185000", "105445.188000", "105445.191000", "105445.194000", "105445.197000", "105445.200000", "105445.208000", "105445.211000", "105445.214000", "105445.217000", "105445.220000", "105445.223000", "105445.226000", "105445.229000", "105445.232000", "105445.235000", "105445.238000", "105445.240000", "105445.243000", "105445.246000", "105505.139000", "105505.142000", "105505.145000", "105505.148000", "105505.151000", "105505.154000", "105505.157000", "105505.160000", "105505.163000", "105505.167000", "105505.170000", "105505.173000", "105505.179000", "105505.182000", "105505.185000", "105505.188000", "105505.191000", "105505.194000", "105505.196000", "105505.199000", "105525.140000", "105525.143000", "105525.146000", "105525.149000", "105525.152000", "105525.155000", "105525.158000", "105525.161000", "105525.164000", "105525.167000", "105525.170000", "105525.173000", "105525.176000", "105525.179000", "105525.182000", "105525.185000", "105525.188000", "105525.191000", "105525.194000", "105525.197000", "105545.140000", "105545.143000", "105545.146000", "105545.149000", "105545.152000", "105545.155000", "105545.158000", "105545.161000", "105545.164000", "105545.167000", "105545.170000", "105545.173000", "105545.176000", "105545.187000", "105545.190000", "105545.193000", "105545.196000", "105545.199000", "105545.202000", "105545.205000", "105605.140000", "105605.143000", "105605.146000", "105605.149000", "105605.152000", "105605.155000", "105605.158000", "105605.161000", "105605.164000", "105605.167000", "105605.170000", "105605.173000", "105605.176000", "105605.179000", "105605.182000", "105605.185000", "105605.188000", "105605.191000", "105605.193000", "105605.196000", "105645.140000", "105645.143000", "105645.146000", "105645.149000", "105645.152000", "105645.155000", "105645.158000", "105645.161000", "105645.164000", "105645.167000", "105645.169000", "105645.173000", "105645.176000", "105645.178000", "105645.181000", "105645.184000", "105645.187000", "105645.190000", "105645.202000", "105645.205000", "105645.208000", "105645.211000", "105645.214000", "105645.217000", "105645.220000", "105645.223000", "105645.226000", "105645.229000", "105725.139000", "105725.142000", "105725.145000", "105725.148000", "105725.151000", "105725.154000", "105725.157000", "105725.160000", "105725.163000", "105725.166000", "105725.169000", "105725.172000", "105725.175000", "105725.178000", "105725.181000", "105725.184000", "105725.186000", "105725.190000", "105725.192000", "105725.195000", "105725.198000", "105725.201000", "105725.204000", "105725.207000", "105725.210000", "105725.213000", "105725.216000", "105805.140000", "105805.143000", "105805.146000", "105805.149000", "105805.152000", "105805.155000", "105805.158000", "105805.161000", "105805.164000", "105805.167000", "105805.173000", "105805.176000", "105805.179000", "105805.182000", "105805.185000", "105805.188000", "105805.191000", "105805.194000", "105805.197000", "105805.200000", "105805.203000", "105805.206000", "105805.209000", "105805.211000", "105805.214000", "105805.217000", "105805.220000", "105845.140000", "105845.143000", "105845.146000", "105845.149000", "105845.152000", "105845.155000", "105845.158000", "105845.161000", "105845.164000", "105845.167000", "105845.170000", "105845.173000", "105845.176000", "105845.179000", "105845.182000", "105845.185000", "105845.188000", "105845.191000", "105845.194000", "105845.197000", "105845.200000", "105845.203000", "105845.205000", "105845.209000", "105845.211000", "105845.214000", "105845.217000", "105925.139000", "105925.142000", "105925.145000", "105925.148000", "105925.151000", "105925.154000", "105925.157000", "105925.160000", "105925.163000", "105925.166000", "105925.169000", "105925.171000", "105925.175000", "105925.178000", "105925.181000", "105925.184000", "105925.187000", "105925.190000", "105925.192000", "105925.195000", "105925.198000", "105925.201000", "105925.204000", "105925.207000", "105925.211000", "105925.214000", "110005.140000", "110005.143000", "110005.146000", "110005.149000", "110005.160000", "110005.163000", "110005.166000", "110005.169000", "110005.172000", "110005.175000", "110005.178000", "110005.181000", "110005.184000", "110005.187000", "110005.190000", "110005.193000", "110005.196000", "110005.198000", "110005.201000", "110005.204000", "110005.207000", "110005.210000", "110005.213000", "110005.216000", "110005.219000", "110005.222000", "110005.225000", "110045.140000", "110045.143000", "110045.146000", "110045.149000", "110045.152000", "110045.155000", "110045.158000", "110045.161000", "110045.164000", "110045.167000", "110045.170000", "110045.173000", "110045.176000", "110045.179000", "110045.182000", "110045.185000", "110045.188000", "110045.191000", "110045.194000", "110045.197000", "110045.200000", "110045.203000", "110045.206000", "110045.209000", "110045.212000", "110045.214000", "110045.217000", "110125.140000", "110125.143000", "110125.151000", "110125.154000", "110125.157000", "110125.160000", "110125.163000", "110125.166000", "110125.169000", "110125.172000", "110125.175000", "110125.178000", "110125.181000", "110125.184000", "110125.187000", "110125.190000", "110125.193000", "110125.196000", "110125.199000", "110125.202000", "110125.205000", "110125.208000", "110125.211000", "110125.214000", "110125.217000", "110125.220000", "110125.224000", "110145.139000", "110145.145000", "110145.148000", "110145.151000", "110145.154000", "110145.157000", "110145.160000", "110145.163000", "110145.166000", "110145.169000", "110145.172000", "110145.175000", "110145.178000", "110225.140000", "110225.143000", "110225.150000", "110225.153000", "110225.156000", "110225.159000", "110225.162000", "110225.165000", "110225.168000", "110225.171000", "110225.174000", "110225.177000", "110225.180000", "110225.183000", "110225.186000", "110225.189000", "110225.192000", "110225.195000", "110225.198000", "110225.201000", "110225.205000", "110225.208000", "110225.211000", "110225.240000", "110225.243000", "110225.246000", "110225.249000", "110305.140000", "110305.143000", "110305.146000", "110305.149000", "110305.152000", "110305.155000", "110305.158000", "110305.161000", "110305.164000", "110305.167000", "110305.170000", "110305.173000", "110305.226000", "110305.229000", "110305.232000", "110305.235000", "110305.238000", "110305.241000", "110305.244000", "110305.247000", "110305.250000", "110305.253000", "110305.256000", "110305.259000", "110305.262000", "110305.265000", "110305.268000", "110345.140000", "110345.143000", "110345.146000", "110345.149000", "110345.152000", "110345.155000", "110345.158000", "110345.161000", "110345.164000", "110345.167000", "110345.170000", "110345.173000", "110345.176000", "110345.179000", "110345.182000", "110345.185000", "110345.188000", "110345.191000", "110345.194000", "110345.197000", "110345.200000", "110345.203000", "110345.206000", "110345.209000", "110345.212000", "110345.215000", "110345.218000", "110425.140000", "110425.143000", "110425.146000", "110425.149000", "110425.152000", "110425.155000", "110425.158000", "110425.161000", "110425.164000", "110425.167000", "110425.170000", "110425.173000", "110425.176000", "110425.179000", "110425.182000", "110425.185000", "110425.188000", "110425.191000", "110425.194000", "110425.197000", "110425.200000", "110425.203000", "110425.206000", "110425.209000", "110425.212000", "110425.215000", "110425.218000", "110459.145000", "110459.149000", "110459.152000", "110459.155000", "110459.158000", "110459.161000", "110459.164000", "110459.167000", "110459.170000", "110459.173000", "110459.176000", "110459.180000", "110459.183000", "110459.186000", "110459.189000", "110459.192000", "110459.195000", "110459.198000", "110459.201000", "110459.204000", "110459.207000", "110459.210000", "110459.213000"],
