{
  "AcquisitionMatrixPE": 104,
  "AcquisitionNumber": 1,
  "AcquisitionTime": "09:30:18.970000",
  "BandwidthPerPixelPhaseEncode": 17.17,
  "BaseResolution": 104,
  "BodyPartExamined": "BRAIN",
  "CoilString": "HC1-7;NC1_2",
  "ConsistencyInfo": "N4_VE11C_LATEST_20160120",
  "ConversionSoftware": "dcm2niix",
  "ConversionSoftwareVersion": "v1.0.20190902",
  "DerivedVendorReportedEchoSpacing": 0.000560011,
  "DeviceSerialNumber": "167006",
  "DwellTime": 2.1e-06,
  "EchoTime": 0.037,
  "EchoTrainLength": 104,
  "EffectiveEchoSpacing": 0.000560011,
  "FlipAngle": 52,
  "ImageComments": "Unaliased_MB4_PE3_LB",
  "ImageOrientationPatientDICOM": [0.999094, -0.00365165, 0.0424124, 0.0204046, 0.915481, -0.401843],
  "ImageType": [
    "ORIGINAL",
    "PRIMARY",
    "M",
    "MB",
    "ND",
    "MOSAIC"
],
  "ImagingFrequency": 123.259,
  "InPlanePhaseEncodingDirectionDICOM": "COL",
  "InstitutionAddress": "Chemin_Queen-Mary_4565_Montreal_District_CA_H3W_1W5",
  "InstitutionName": "IUGM",
  "InstitutionalDepartmentName": "Department",
  "MRAcquisitionType": "2D",
  "MagneticFieldStrength": 3,
  "Manufacturer": "Siemens",
  "ManufacturersModelName": "Prisma_fit",
  "Modality": "MR",
  "MultibandAccelerationFactor": 4,
  "PartialFourier": 1,
  "PatientPosition": "HFS",
  "PercentPhaseFOV": 100,
  "PhaseEncodingDirection": "j",
  "PhaseEncodingSteps": 104,
  "PhaseResolution": 1,
  "PixelBandwidth": 2290,
  "ProcedureStepDescription": "video_friends",
  "ProtocolName": "func_task-friends-s04e03a",
  "PulseSequenceDetails": "%CustomerSeq%_cmrr_mbep2d_bold",
  "ReceiveCoilActiveElements": "HC1-7;NC1,2",
  "ReceiveCoilName": "HeadNeck_64",
  "ReconMatrixPE": 104,
  "RepetitionTime": 1.49,
  "SAR": 0.0377915,
  "ScanOptions": "FS",
  "ScanningSequence": "EP",
  "SequenceName": "epfid2d1_104",
  "SequenceVariant": "SK_SS",
  "SeriesDescription": "func_task-friends-s04e03a",
  "SeriesNumber": 9,
  "ShimSetting": [637, -7171, -8853, 624, 84, 55, 26, -10],
  "SliceThickness": 2,
  "SliceTiming": [0, 0.7825, 0.0975, 0.88, 0.195, 0.98, 0.2925, 1.0775, 0.39, 1.175, 0.49, 1.2725, 0.5875, 1.37, 0.685, 0, 0.7825, 0.0975, 0.88, 0.195, 0.98, 0.2925, 1.0775, 0.39, 1.175, 0.49, 1.2725, 0.5875, 1.37, 0.685, 0, 0.7825, 0.0975, 0.88, 0.195, 0.98, 0.2925, 1.0775, 0.39, 1.175, 0.49, 1.2725, 0.5875, 1.37, 0.685, 0, 0.7825, 0.0975, 0.88, 0.195, 0.98, 0.2925, 1.0775, 0.39, 1.175, 0.49, 1.2725, 0.5875, 1.37, 0.685],
  "SoftwareVersions": "syngo_MR_E11",
  "SpacingBetweenSlices": 2,
  "StationName": "MRC35049",
  "TaskName": "s04e03a",
  "TotalReadoutTime": 0.0576811,
  "TxRefAmp": 243.08,
  "WipMemBlock": "0a0ffbad-f6cc-4968-9ebd-5c2b9734fde6||Sequence: R016 ve11c/master r/e634e98; Dec 19 2017 11:00:25 by eja",
  "dcmmeta_affine": [
    [-1.9981870651245117, 0.040809255093336105, 0.07472063601016998, 100.31393432617188],
    [0.007303307298570871, 1.8309623003005981, -0.8046885132789612, -66.26335906982422],
    [0.08482470363378525, 0.8036862015724182, 1.8294516801834106, -73.45032501220703],
    [0.0, 0.0, 0.0, 1.0]
],
  "dcmmeta_reorient_transform": [
    [0.0, -1.0, 0.0, 103.0],
    [1.0, 0.0, 0.0, 0.0],
    [0.0, 0.0, 1.0, 0.0],
    [0.0, 0.0, 0.0, 1.0]
],
  "dcmmeta_shape": [104, 104, 60, 445],
  "dcmmeta_slice_dim": 2,
  "dcmmeta_version": 0.6,
  "global": {
    "const": {
      "AcquisitionMatrix": [104, 0, 0, 104],
      "AngioFlag": "N",
      "BitsAllocated": 16,
      "BitsStored": 16,
      "BodyPartExamined": "BRAIN",
      "Columns": 832,
      "EchoNumbers": 1,
      "EchoTime": 37.0,
      "EchoTrainLength": 104,
      "FlipAngle": 52.0,
      "HighBit": 15,
      "ImageOrientationPatient": [0.99909351802946, -0.0036516536801, 0.04241235264537, 0.02040462787508, 0.91548117087356, -0.4018430999],
      "ImagePositionPatient": [-846.71193550384, -786.1376512401, 270.99494052325],
      "ImageType": [
        "ORIGINAL",
        "PRIMARY",
        "M",
        "MB",
        "ND",
        "MOSAIC"
],
      "ImagedNucleus": "1H",
      "ImagingFrequency": 123.25901,
      "InPlanePhaseEncodingDirection": "COL",
      "MRAcquisitionType": "2D",
      "MagneticFieldStrength": 3.0,
      "Manufacturer": "SIEMENS",
      "ManufacturerModelName": "Prisma_fit",
      "Modality": "MR",
      "NumberOfAverages": 1.0,
      "NumberOfPhaseEncodingSteps": 104,
      "PercentPhaseFieldOfView": 100.0,
      "PercentSampling": 100.0,
      "PerformedProcedureStepStartTime": "090500.784000",
      "PhotometricInterpretation": "MONOCHROME2",
      "PixelBandwidth": 2290.0,
      "PixelRepresentation": 0,
      "PixelSpacing": [2.0, 2.0],
      "ProtocolName": "func_task-friends-s04e03a",
      "RepetitionTime": 1490.0,
      "Rows": 832,
      "SAR": 0.03779147512795,
      "SamplesPerPixel": 1,
      "ScanOptions": "FS",
      "ScanningSequence": "EP",
      "SequenceName": "epfid2d1_104",
      "SequenceVariant": [
        "SK",
        "SS"
],
      "SeriesDescription": "func_task-friends-s04e03a",
      "SeriesNumber": 9,
      "SeriesTime": "093142.282000",
      "SliceLocation": -36.7784643031,
      "SliceThickness": 2.0,
      "SmallestImagePixelValue": 0,
      "SoftwareVersions": "syngo MR E11",
      "SpacingBetweenSlices": 2.0000000463222,
      "SpecificCharacterSet": "ISO_IR 100",
      "StudyID": "1",
      "StudyTime": "090500.636000",
      "TransmitCoilName": "Body",
      "VariableFlipAngleFlag": "N",
      "dBdt": 0.0},
    "slices": {}
  },
  "time": {
    "samples": {
      "AcquisitionNumber": [1, 2, 3, 4, 5, 6, 7, 8, 9, 10, 11, 12, 13, 14, 15, 16, 17, 18, 19, 20, 21, 22, 23, 24, 25, 26, 27, 28, 29, 30, 31, 32, 33, 34, 35, 36, 37, 38, 39, 40, 41, 42, 43, 44, 45, 46, 47, 48, 49, 50, 51, 52, 53, 54, 55, 56, 57, 58, 59, 60, 61, 62, 63, 64, 65, 66, 67, 68, 69, 70, 71, 72, 73, 74, 75, 76, 77, 78, 79, 80, 81, 82, 83, 84, 85, 86, 87, 88, 89, 90, 91, 92, 93, 94, 95, 96, 97, 98, 99, 100, 101, 102, 103, 104, 105, 106, 107, 108, 109, 110, 111, 112, 113, 114, 115, 116, 117, 118, 119, 120, 121, 122, 123, 124, 125, 126, 127, 128, 129, 130, 131, 132, 133, 134, 135, 136, 137, 138, 139, 140, 141, 142, 143, 144, 145, 146, 147, 148, 149, 150, 151, 152, 153, 154, 155, 156, 157, 158, 159, 160, 161, 162, 163, 164, 165, 166, 167, 168, 169, 170, 171, 172, 173, 174, 175, 176, 177, 178, 179, 180, 181, 182, 183, 184, 185, 186, 187, 188, 189, 190, 191, 192, 193, 194, 195, 196, 197, 198, 199, 200, 201, 202, 203, 204, 205, 206, 207, 208, 209, 210, 211, 212, 213, 214, 215, 216, 217, 218, 219, 220, 221, 222, 223, 224, 225, 226, 227, 228, 229, 230, 231, 232, 233, 234, 235, 236, 237, 238, 239, 240, 241, 242, 243, 244, 245, 246, 247, 248, 249, 250, 251, 252, 253, 254, 255, 256, 257, 258, 259, 260, 261, 262, 263, 264, 265, 266, 267, 268, 269, 270, 271, 272, 273, 274, 275, 276, 277, 278, 279, 280, 281, 282, 283, 284, 285, 286, 287, 288, 289, 290, 291, 292, 293, 294, 295, 296, 297, 298, 299, 300, 301, 302, 303, 304, 305, 306, 307, 308, 309, 310, 311, 312, 313, 314, 315, 316, 317, 318, 319, 320, 321, 322, 323, 324, 325, 326, 327, 328, 329, 330, 331, 332, 333, 334, 335, 336, 337, 338, 339, 340, 341, 342, 343, 344, 345, 346, 347, 348, 349, 350, 351, 352, 353, 354, 355, 356, 357, 358, 359, 360, 361, 362, 363, 364, 365, 366, 367, 368, 369, 370, 371, 372, 373, 374, 375, 376, 377, 378, 379, 380, 381, 382, 383, 384, 385, 386, 387, 388, 389, 390, 391, 392, 393, 394, 395, 396, 397, 398, 399, 400, 401, 402, 403, 404, 405, 406, 407, 408, 409, 410, 411, 412, 413, 414, 415, 416, 417, 418, 419, 420, 421, 422, 423, 424, 425, 426, 427, 428, 429, 430, 431, 432, 433, 434, 435, 436, 437, 438, 439, 440, 441, 442, 443, 444, 445],
      "AcquisitionTime": ["093018.970000", "093020.460000", "093021.950000", "093023.440000", "093024.930000", "093026.420000", "093027.910000", "093029.400000", "093030.890000", "093032.380000", "093033.870000", "093035.360000", "093036.850000", "093038.340000", "093039.830000", "093041.320000", "093042.810000", "093044.300000", "093045.790000", "093047.280000", "093048.770000", "093050.260000", "093051.750000", "093053.240000", "093054.730000", "093056.220000", "093057.710000", "093059.200000", "093100.690000", "093102.180000", "093103.670000", "093105.160000", "093106.650000", "093108.140000", "093109.630000", "093111.120000", "093112.610000", "093114.100000", "093115.590000", "093117.080000", "093118.570000", "093120.060000", "093121.550000", "093123.040000", "093124.530000", "093126.020000", "093127.510000", "093129.000000", "093130.490000", "093131.980000", "093133.470000", "093134.960000", "093136.450000", "093137.940000", "093139.430000", "093140.920000", "093142.410000", "093143.900000", "093145.390000", "093146.880000", "093148.370000", "093149.860000", "093151.350000", "093152.840000", "093154.330000", "093155.820000", "093157.310000", "093158.800000", "093200.290000", "093201.780000", "093203.270000", "093204.760000", "093206.250000", "093207.740000", "093209.230000", "093210.720000", "093212.210000", "093213.700000", "093215.190000", "093216.680000", "093218.170000", "093219.660000", "093221.150000", "093222.640000", "093224.130000", "093225.620000", "093227.110000", "093228.600000", "093230.090000", "093231.580000", "093233.070000", "093234.560000", "093236.050000", "093237.540000", "093239.030000", "093240.520000", "093242.010000", "093243.500000", "093244.990000", "093246.480000", "093247.970000", "093249.460000", "093250.950000", "093252.440000", "093253.930000", "093255.420000", "093256.910000", "093258.400000", "093259.890000", "093301.380000", "093302.870000", "093304.360000", "093305.850000", "093307.340000", "093308.830000", "093310.320000", "093311.810000", "093313.300000", "093314.790000", "093316.280000", "093317.770000", "093319.260000", "093320.750000", "093322.240000", "093323.730000", "093325.220000", "093326.710000", "093328.200000", "093329.690000", "093331.180000", "093332.670000", "093334.160000", "093335.650000", "093337.140000", "093338.630000", "093340.120000", "093341.610000", "093343.100000", "093344.590000", "093346.080000", "093347.570000", "093349.060000", "093350.550000", "093352.040000", "093353.530000", "093355.020000", "093356.510000", "093358.000000", "093359.490000", "093400.980000", "093402.470000", "093403.960000", "093405.450000", "093406.940000", "093408.430000", "093409.920000", "093411.410000", "093412.900000", "093414.390000", "093415.880000", "093417.370000", "093418.860000", "093420.350000", "093421.840000", "093423.330000", "093424.820000", "093426.310000", "093427.800000", "093429.290000", "093430.780000", "093432.270000", "093433.760000", "093435.250000", "093436.740000", "093438.230000", "093439.720000", "093441.210000", "093442.700000", "093444.190000", "093445.680000", "093447.170000", "093448.660000", "093450.150000", "093451.640000", "093453.130000", "093454.620000", "093456.110000", "093457.600000", "093459.090000", "093500.580000", "093502.070000", "093503.560000", "093505.050000", "093506.540000", "093508.030000", "093509.520000", "093511.010000", "093512.500000", "093513.990000", "093515.480000", "093516.970000", "093518.460000", "093519.950000", "093521.440000", "093522.930000", "093524.420000", "093525.910000", "093527.400000", "093528.890000", "093530.380000", "093531.870000", "093533.360000", "093534.850000", "093536.340000", "093537.830000", "093539.320000", "093540.810000", "093542.300000", "093543.790000", "093545.280000", "093546.770000", "093548.260000", "093549.750000", "093551.240000", "093552.730000", "093554.220000", "093555.710000", "093557.200000", "093558.690000", "093600.180000", "093601.670000", "093603.160000", "093604.650000", "093606.140000", "093607.630000", "093609.120000", "093610.610000", "093612.100000", "093613.590000", "093615.080000", "093616.570000", "093618.060000", "093619.550000", "093621.040000", "093622.530000", "093624.020000", "093625.510000", "093627.000000", "093628.490000", "093629.980000", "093631.470000", "093632.960000", "093634.450000", "093635.940000", "093637.430000", "093638.920000", "093640.410000", "093641.900000", "093643.390000", "093644.880000", "093646.370000", "093647.860000", "093649.350000", "093650.840000", "093652.330000", "093653.820000", "093655.310000", "093656.800000", "093658.290000", "093659.780000", "093701.270000", "093702.760000", "093704.250000", "093705.740000", "093707.230000", "093708.720000", "093710.210000", "093711.700000", "093713.190000", "093714.680000", "093716.170000", "093717.660000", "093719.150000", "093720.640000", "093722.130000", "093723.620000", "093725.110000", "093726.600000", "093728.090000", "093729.580000", "093731.070000", "093732.560000", "093734.050000", "093735.540000", "093737.030000", "093738.520000", "093740.010000", "093741.500000", "093742.990000", "093744.480000", "093745.970000", "093747.460000", "093748.950000", "093750.440000", "093751.930000", "093753.420000", "093754.910000", "093756.400000", "093757.890000", "093759.380000", "093800.870000", "093802.360000", "093803.850000", "093805.340000", "093806.830000", "093808.320000", "093809.810000", "093811.300000", "093812.790000", "093814.280000", "093815.770000", "093817.260000", "093818.750000", "093820.240000", "093821.730000", "093823.220000", "093824.710000", "093826.200000", "093827.690000", "093829.180000", "093830.670000", "093832.160000", "093833.650000", "093835.140000", "093836.630000", "093838.120000", "093839.610000", "093841.100000", "093842.590000", "093844.080000", "093845.570000", "093847.060000", "093848.550000", "093850.040000", "093851.530000", "093853.020000", "093854.510000", "093856.000000", "093857.490000", "093858.980000", "093900.470000", "093901.960000", "093903.450000", "093904.940000", "093906.430000", "093907.920000", "093909.410000", "093910.900000", "093912.390000", "093913.880000", "093915.370000", "093916.860000", "093918.350000", "093919.840000", "093921.330000", "093922.820000", "093924.310000", "093925.800000", "093927.290000", "093928.780000", "093930.270000", "093931.760000", "093933.250000", "093934.740000", "093936.230000", "093937.720000", "093939.210000", "093940.700000", "093942.190000", "093943.680000", "093945.170000", "093946.660000", "093948.150000", "093949.640000", "093951.130000", "093952.620000", "093954.110000", "093955.600000", "093957.090000", "093958.580000", "094000.070000", "094001.560000", "094003.050000", "094004.540000", "094006.030000", "094007.520000", "094009.010000", "094010.500000", "094011.990000", "094013.480000", "094014.970000", "094016.460000", "094017.950000", "094019.440000", "094020.930000", "094022.420000", "094023.910000", "094025.400000", "094026.890000", "094028.380000", "094029.870000", "094031.360000", "094032.850000", "094034.340000", "094035.830000", "094037.320000", "094038.810000", "094040.300000", "094041.790000", "094043.280000", "094044.770000", "094046.260000", "094047.750000", "094049.240000", "094050.730000", "094052.220000", "094053.710000", "094055.200000", "094056.690000", "094058.180000", "094059.670000", "094101.160000", "094102.650000", "094104.140000", "094105.630000", "094107.120000", "094108.610000", "094110.100000", "094111.590000", "094113.080000", "094114.570000", "094116.060000", "094117.550000", "094119.040000", "094120.530000"],
      "ContentTime": ["093142.285000", "093142.288000", "093142.291000", "093142.304000", "093142.310000", "093142.313000", "093142.316000", "093142.319000", "093142.322000", "093142.324000", "093142.328000", "093142.331000", "093142.333000", "093142.336000", "093142.340000", "093142.343000", "093142.346000", "093142.348000", "093142.352000", "093142.355000", "093142.359000", "093142.362000", "093142.365000", "093142.368000", "093142.371000", "093142.374000", "093142.377000", "093202.247000", "093202.250000", "093202.254000", "093202.257000", "093202.260000", "093202.263000", "093202.266000", "093202.269000", "093202.282000", "093202.285000", "093202.288000", "093202.291000", "093202.293000", "093202.296000", "093202.299000", "093202.302000", "093202.305000", "093202.308000", "093202.311000", "093202.314000", "093222.248000", "093222.251000", "093222.254000", "093222.257000", "093222.269000", "093222.272000", "093222.275000", "093222.278000", "093222.281000", "093222.284000", "093222.287000", "093222.290000", "093222.293000", "093222.295000", "093222.298000", "093222.301000", "093222.304000", "093222.307000", "093222.310000", "093222.313000", "093242.248000", "093242.252000", "093242.255000", "093242.258000", "093242.261000", "093242.264000", "093242.282000", "093242.285000", "093242.288000", "093242.291000", "093242.294000", "093242.297000", "093242.300000", "093242.303000", "093242.306000", "093242.309000", "093242.312000", "093242.315000", "093242.318000", "093242.321000", "093302.247000", "093302.250000", "093302.253000", "093302.256000", "093302.259000", "093302.262000", "093302.265000", "093302.268000", "093302.271000", "093302.273000", "093302.276000", "093302.279000", "093302.282000", "093302.285000", "093302.288000", "093302.291000", "093302.294000", "093302.297000", "093302.300000", "093302.303000", "093302.306000", "093342.247000", "093342.250000", "093342.253000", "093342.256000", "093342.259000", "093342.262000", "093342.265000", "093342.268000", "093342.271000", "093342.274000", "093342.276000", "093342.279000", "093342.282000", "093342.285000", "093342.288000", "093342.291000", "093342.296000", "093342.298000", "093342.301000", "093342.304000", "093342.307000", "093342.310000", "093342.313000", "093342.316000", "093342.319000", "093342.322000", "093342.325000", "093342.328000", "093422.247000", "093422.250000", "093422.253000", "093422.256000", "093422.259000", "093422.262000", "093422.265000", "093422.268000", "093422.271000", "093422.274000", "093422.276000", "093422.280000", "093422.282000", "093422.285000", "093422.288000", "093422.291000", "093422.294000", "093422.297000", "093422.300000", "093422.303000", "093422.306000", "093422.309000", "093422.313000", "093422.316000", "093422.319000", "093422.321000", "093502.248000", "093502.251000", "093502.254000", "093502.257000", "093502.260000", "093502.263000", "093502.266000", "093502.269000", "093502.272000", "093502.275000", "093502.278000", "093502.281000", "093502.284000", "093502.287000", "093502.290000", "093502.293000", "093502.295000", "093502.298000", "093502.301000", "093502.304000", "093502.307000", "093502.310000", "093502.313000", "093502.316000", "093502.319000", "093502.322000", "093502.325000", "093542.247000", "093542.250000", "093542.253000", "093542.256000", "093542.259000", "093542.262000", "093542.265000", "093542.268000", "093542.271000", "093542.274000", "093542.277000", "093542.280000", "093542.283000", "093542.286000", "093542.289000", "093542.298000", "093542.301000", "093542.304000", "093542.307000", "093542.310000", "093542.313000", "093542.316000", "093542.319000", "093542.322000", "093542.325000", "093542.328000", "093542.331000", "093622.247000", "093622.250000", "093622.253000", "093622.256000", "093622.259000", "093622.262000", "093622.265000", "093622.268000", "093622.271000", "093622.274000", "093622.277000", "093622.280000", "093622.282000", "093622.286000", "093622.288000", "093622.291000", "093622.294000", "093622.297000", "093622.300000", "093622.303000", "093622.306000", "093622.309000", "093622.312000", "093622.315000", "093622.318000", "093622.321000", "093622.324000", "093702.248000", "093702.251000", "093702.254000", "093702.257000", "093702.260000", "093702.263000", "093702.266000", "093702.269000", "093702.272000", "093702.275000", "093702.278000", "093702.281000", "093702.284000", "093702.287000", "093702.290000", "093702.293000", "093702.296000", "093702.299000", "093702.302000", "093702.304000", "093702.308000", "093702.311000", "093702.313000", "093702.316000", "093702.319000", "093702.322000", "093702.325000", "093742.247000", "093742.250000", "093742.253000", "093742.256000", "093742.259000", "093742.262000", "093742.265000", "093742.268000", "093742.271000", "093742.274000", "093742.277000", "093742.280000", "093742.283000", "093742.286000", "093742.289000", "093742.292000", "093742.295000", "093742.298000", "093742.300000", "093742.304000", "093742.306000", "093742.309000", "093742.312000", "093742.315000", "093742.318000", "093742.321000", "093742.324000", "093822.247000", "093822.250000", "093822.253000", "093822.264000", "093822.267000", "093822.270000", "093822.273000", "093822.276000", "093822.279000", "093822.282000", "093822.285000", "093822.288000", "093822.291000", "093822.294000", "093822.297000", "093822.300000", "093822.303000", "093822.306000", "093822.309000", "093822.312000", "093822.315000", "093822.318000", "093822.321000", "093822.324000", "093822.327000", "093822.330000", "093902.248000", "093902.251000", "093902.254000", "093902.257000", "093902.260000", "093902.263000", "093902.266000", "093902.269000", "093902.272000", "093902.275000", "093902.278000", "093902.281000", "093902.284000", "093902.286000", "093902.289000", "093902.292000", "093902.295000", "093902.298000", "093902.301000", "093902.304000", "093902.307000", "093902.310000", "093902.313000", "093902.316000", "093902.319000", "093902.322000", "093902.325000", "093942.248000", "093942.284000", "093942.287000", "093942.290000", "093942.293000", "093942.296000", "093942.299000", "093942.302000", "093942.305000", "093942.308000", "093942.311000", "093942.314000", "093942.317000", "093942.320000", "093942.323000", "093942.326000", "093942.329000", "093942.332000", "093942.335000", "093942.338000", "093942.341000", "093942.344000", "093942.346000", "093942.350000", "093942.353000", "093942.355000", "093942.358000", "094022.247000", "094022.250000", "094022.253000", "094022.256000", "094022.259000", "094022.262000", "094022.266000", "094022.268000", "094022.271000", "094022.274000", "094022.277000", "094022.280000", "094022.283000", "094022.286000", "094022.289000", "094022.292000", "094022.295000", "094022.298000", "094022.301000", "094022.304000", "094022.307000", "094022.310000", "094022.313000", "094022.316000", "094022.319000", "094022.322000", "094022.325000", "094102.247000", "094102.250000", "094102.253000", "094102.256000", "094102.259000", "094102.262000", "094102.265000", "094102.268000", "094102.271000", "094102.274000", "094102.277000", "094102.280000", "094102.283000", "094102.286000", "094102.289000", "094102.292000", "094102.295000", "094102.298000", "094102.301000", "094102.304000", "094102.306000", "094102.310000", "094102.312000", "094102.315000", "094102.318000", "094102.321000", "094102.324000", "094122.677000", "094122.680000", "094122.683000", "094122.686000", "094122.689000", "094122.692000", "094122.695000", "094122.698000", "094122.701000", "094122.704000", "094122.707000", "094122.710000", "094122.714000", "094122.717000"],
