{
  "AcquisitionMatrixPE": 104,
  "AcquisitionNumber": 1,
  "AcquisitionTime": "13:28:28.247500",
  "BandwidthPerPixelPhaseEncode": 17.17,
  "BaseResolution": 104,
  "BodyPartExamined": "BRAIN",
  "CoilString": "HC1-7;NC1_2",
  "ConsistencyInfo": "N4_VE11C_LATEST_20160120",
  "ConversionSoftware": "dcm2niix",
  "ConversionSoftwareVersion": "v1.0.20190902",
  "DerivedVendorReportedEchoSpacing": 0.000560011,
  "DeviceSerialNumber": "167006",
  "DwellTime": 2.1e-06,
  "EchoTime": 0.037,
  "EchoTrainLength": 104,
  "EffectiveEchoSpacing": 0.000560011,
  "FlipAngle": 52,
  "ImageComments": "Unaliased_MB4_PE3_LB",
  "ImageOrientationPatientDICOM": [0.997929, 0.00239481, -0.0642802, -0.0170704, 0.973335, -0.228751],
  "ImageType": [
    "ORIGINAL",
    "PRIMARY",
    "M",
    "MB",
    "ND",
    "MOSAIC"
],
  "ImagingFrequency": 123.259,
  "InPlanePhaseEncodingDirectionDICOM": "COL",
  "InstitutionAddress": "Chemin_Queen-Mary_4565_Montreal_District_CA_H3W_1W5",
  "InstitutionName": "IUGM",
  "InstitutionalDepartmentName": "Department",
  "MRAcquisitionType": "2D",
  "MagneticFieldStrength": 3,
  "Manufacturer": "Siemens",
  "ManufacturersModelName": "Prisma_fit",
  "Modality": "MR",
  "MultibandAccelerationFactor": 4,
  "PartialFourier": 1,
  "PatientPosition": "HFS",
  "PercentPhaseFOV": 100,
  "PhaseEncodingDirection": "j",
  "PhaseEncodingSteps": 104,
  "PhaseResolution": 1,
  "PixelBandwidth": 2290,
  "ProcedureStepDescription": "video_friends",
  "ProtocolName": "func_task-friends-s05e01a",
  "PulseSequenceDetails": "%CustomerSeq%_cmrr_mbep2d_bold",
  "ReceiveCoilActiveElements": "HC1-7;NC1,2",
  "ReceiveCoilName": "HeadNeck_64",
  "ReconMatrixPE": 104,
  "RepetitionTime": 1.49,
  "SAR": 0.0289313,
  "ScanOptions": "FS",
  "ScanningSequence": "EP",
  "SequenceName": "epfid2d1_104",
  "SequenceVariant": "SK_SS",
  "SeriesDescription": "func_task-friends-s05e01a",
  "SeriesNumber": 9,
  "ShimSetting": [596, -7250, -8829, 605, -80, -265, 17, 58],
  "SliceThickness": 2,
  "SliceTiming": [0, 0.7825, 0.0975, 0.88, 0.195, 0.98, 0.2925, 1.0775, 0.39, 1.175, 0.49, 1.2725, 0.5875, 1.37, 0.685, 0, 0.7825, 0.0975, 0.88, 0.195, 0.98, 0.2925, 1.0775, 0.39, 1.175, 0.49, 1.2725, 0.5875, 1.37, 0.685, 0, 0.7825, 0.0975, 0.88, 0.195, 0.98, 0.2925, 1.0775, 0.39, 1.175, 0.49, 1.2725, 0.5875, 1.37, 0.685, 0, 0.7825, 0.0975, 0.88, 0.195, 0.98, 0.2925, 1.0775, 0.39, 1.175, 0.49, 1.2725, 0.5875, 1.37, 0.685],
  "SoftwareVersions": "syngo_MR_E11",
  "SpacingBetweenSlices": 2,
  "StationName": "MRC35049",
  "TaskName": "s05e01a",
  "TotalReadoutTime": 0.0576811,
  "TxRefAmp": 216.35,
  "WipMemBlock": "f06f15cb-0e0d-4a02-a951-0e3c7a78dfb3||Sequence: R016 ve11c/master r/e634e98; Dec 19 2017 11:00:25 by eja",
  "dcmmeta_affine": [
    [-1.995858073234558, -0.03414088487625122, -0.12403667718172073, 103.81013488769531],
    [-0.004789622500538826, 1.946670651435852, -0.45874857902526855, -82.68175506591797],
    [-0.12856033444404602, 0.45750147104263306, 1.942720890045166, -47.32528305053711],
    [0.0, 0.0, 0.0, 1.0]
],
  "dcmmeta_reorient_transform": [
    [0.0, -1.0, 0.0, 103.0],
    [1.0, 0.0, 0.0, 0.0],
    [0.0, 0.0, 1.0, 0.0],
    [0.0, 0.0, 0.0, 1.0]
],
  "dcmmeta_shape": [104, 104, 60, 439],
  "dcmmeta_slice_dim": 2,
  "dcmmeta_version": 0.6,
  "global": {
    "const": {
      "AcquisitionMatrix": [104, 0, 0, 104],
      "AngioFlag": "N",
      "BitsAllocated": 16,
      "BitsStored": 16,
      "BodyPartExamined": "BRAIN",
      "Columns": 832,
      "EchoNumbers": 1,
      "EchoTime": 37.0,
      "EchoTrainLength": 104,
      "FlipAngle": 52.0,
      "HighBit": 15,
      "ImageOrientationPatient": [0.99792901817077, 0.00239481134904, -0.0642801646803, -0.017070442082, 0.97333534862493, -0.2287507357897],
      "ImagePositionPatient": [-814.35866770048, -828.15688312825, 213.12386418977],
      "ImageType": [
        "ORIGINAL",
        "PRIMARY",
        "M",
        "MB",
        "ND",
        "MOSAIC"
],
      "ImagedNucleus": "1H",
      "ImagingFrequency": 123.258974,
      "InPlanePhaseEncodingDirection": "COL",
      "MRAcquisitionType": "2D",
      "MagneticFieldStrength": 3.0,
      "Manufacturer": "SIEMENS",
      "ManufacturerModelName": "Prisma_fit",
      "Modality": "MR",
      "NumberOfAverages": 1.0,
      "NumberOfPhaseEncodingSteps": 104,
      "PercentPhaseFieldOfView": 100.0,
      "PercentSampling": 100.0,
      "PerformedProcedureStepStartTime": "130942.482000",
      "PhotometricInterpretation": "MONOCHROME2",
      "PixelBandwidth": 2290.0,
      "PixelRepresentation": 0,
      "PixelSpacing": [2.0, 2.0],
      "ProtocolName": "func_task-friends-s05e01a",
      "RepetitionTime": 1490.0,
      "Rows": 832,
      "SAR": 0.02893131940263,
      "SamplesPerPixel": 1,
      "ScanOptions": "FS",
      "ScanningSequence": "EP",
      "SequenceName": "epfid2d1_104",
      "SequenceVariant": [
        "SK",
        "SS"
],
      "SeriesDescription": "func_task-friends-s05e01a",
      "SeriesNumber": 9,
      "SeriesTime": "132953.197000",
      "SliceLocation": -33.442972754933,
      "SliceThickness": 2.0,
      "SmallestImagePixelValue": 0,
      "SoftwareVersions": "syngo MR E11",
      "SpacingBetweenSlices": 1.9999999601282,
      "SpecificCharacterSet": "ISO_IR 100",
      "StudyID": "1",
      "StudyTime": "130942.428000",
      "TransmitCoilName": "Body",
      "VariableFlipAngleFlag": "N",
      "WindowCenterWidthExplanation": "Algo1",
      "dBdt": 0.0},
    "slices": {}
  },
  "time": {
    "samples": {
      "AcquisitionNumber": [1, 2, 3, 4, 5, 6, 7, 8, 9, 10, 11, 12, 13, 14, 15, 16, 17, 18, 19, 20, 21, 22, 23, 24, 25, 26, 27, 28, 29, 30, 31, 32, 33, 34, 35, 36, 37, 38, 39, 40, 41, 42, 43, 44, 45, 46, 47, 48, 49, 50, 51, 52, 53, 54, 55, 56, 57, 58, 59, 60, 61, 62, 63, 64, 65, 66, 67, 68, 69, 70, 71, 72, 73, 74, 75, 76, 77, 78, 79, 80, 81, 82, 83, 84, 85, 86, 87, 88, 89, 90, 91, 92, 93, 94, 95, 96, 97, 98, 99, 100, 101, 102, 103, 104, 105, 106, 107, 108, 109, 110, 111, 112, 113, 114, 115, 116, 117, 118, 119, 120, 121, 122, 123, 124, 125, 126, 127, 128, 129, 130, 131, 132, 133, 134, 135, 136, 137, 138, 139, 140, 141, 142, 143, 144, 145, 146, 147, 148, 149, 150, 151, 152, 153, 154, 155, 156, 157, 158, 159, 160, 161, 162, 163, 164, 165, 166, 167, 168, 169, 170, 171, 172, 173, 174, 175, 176, 177, 178, 179, 180, 181, 182, 183, 184, 185, 186, 187, 188, 189, 190, 191, 192, 193, 194, 195, 196, 197, 198, 199, 200, 201, 202, 203, 204, 205, 206, 207, 208, 209, 210, 211, 212, 213, 214, 215, 216, 217, 218, 219, 220, 221, 222, 223, 224, 225, 226, 227, 228, 229, 230, 231, 232, 233, 234, 235, 236, 237, 238, 239, 240, 241, 242, 243, 244, 245, 246, 247, 248, 249, 250, 251, 252, 253, 254, 255, 256, 257, 258, 259, 260, 261, 262, 263, 264, 265, 266, 267, 268, 269, 270, 271, 272, 273, 274, 275, 276, 277, 278, 279, 280, 281, 282, 283, 284, 285, 286, 287, 288, 289, 290, 291, 292, 293, 294, 295, 296, 297, 298, 299, 300, 301, 302, 303, 304, 305, 306, 307, 308, 309, 310, 311, 312, 313, 314, 315, 316, 317, 318, 319, 320, 321, 322, 323, 324, 325, 326, 327, 328, 329, 330, 331, 332, 333, 334, 335, 336, 337, 338, 339, 340, 341, 342, 343, 344, 345, 346, 347, 348, 349, 350, 351, 352, 353, 354, 355, 356, 357, 358, 359, 360, 361, 362, 363, 364, 365, 366, 367, 368, 369, 370, 371, 372, 373, 374, 375, 376, 377, 378, 379, 380, 381, 382, 383, 384, 385, 386, 387, 388, 389, 390, 391, 392, 393, 394, 395, 396, 397, 398, 399, 400, 401, 402, 403, 404, 405, 406, 407, 408, 409, 410, 411, 412, 413, 414, 415, 416, 417, 418, 419, 420, 421, 422, 423, 424, 425, 426, 427, 428, 429, 430, 431, 432, 433, 434, 435, 436, 437, 438, 439],
      "AcquisitionTime": ["132828.247500", "132829.737500", "132831.227500", "132832.717500", "132834.207500", "132835.697500", "132837.187500", "132838.677500", "132840.167500", "132841.657500", "132843.147500", "132844.637500", "132846.127500", "132847.617500", "132849.107500", "132850.597500", "132852.087500", "132853.577500", "132855.067500", "132856.557500", "132858.047500", "132859.537500", "132901.027500", "132902.517500", "132904.007500", "132905.497500", "132906.987500", "132908.477500", "132909.967500", "132911.457500", "132912.947500", "132914.437500", "132915.927500", "132917.417500", "132918.907500", "132920.397500", "132921.887500", "132923.377500", "132924.867500", "132926.357500", "132927.847500", "132929.337500", "132930.827500", "132932.317500", "132933.807500", "132935.297500", "132936.787500", "132938.277500", "132939.767500", "132941.257500", "132942.747500", "132944.237500", "132945.727500", "132947.217500", "132948.707500", "132950.197500", "132951.687500", "132953.177500", "132954.667500", "132956.157500", "132957.647500", "132959.137500", "133000.627500", "133002.117500", "133003.607500", "133005.097500", "133006.587500", "133008.077500", "133009.567500", "133011.057500", "133012.547500", "133014.037500", "133015.527500", "133017.017500", "133018.507500", "133019.997500", "133021.487500", "133022.977500", "133024.467500", "133025.957500", "133027.447500", "133028.937500", "133030.427500", "133031.917500", "133033.407500", "133034.897500", "133036.387500", "133037.877500", "133039.367500", "133040.857500", "133042.347500", "133043.837500", "133045.327500", "133046.817500", "133048.307500", "133049.797500", "133051.287500", "133052.777500", "133054.267500", "133055.757500", "133057.247500", "133058.737500", "133100.227500", "133101.717500", "133103.207500", "133104.697500", "133106.187500", "133107.677500", "133109.167500", "133110.657500", "133112.147500", "133113.637500", "133115.127500", "133116.617500", "133118.107500", "133119.597500", "133121.087500", "133122.577500", "133124.067500", "133125.557500", "133127.047500", "133128.537500", "133130.027500", "133131.517500", "133133.007500", "133134.497500", "133135.987500", "133137.477500", "133138.967500", "133140.457500", "133141.947500", "133143.437500", "133144.927500", "133146.417500", "133147.907500", "133149.397500", "133150.887500", "133152.377500", "133153.867500", "133155.357500", "133156.847500", "133158.337500", "133159.827500", "133201.317500", "133202.807500", "133204.297500", "133205.787500", "133207.277500", "133208.767500", "133210.257500", "133211.747500", "133213.237500", "133214.727500", "133216.217500", "133217.707500", "133219.197500", "133220.687500", "133222.177500", "133223.667500", "133225.157500", "133226.647500", "133228.137500", "133229.627500", "133231.117500", "133232.607500", "133234.097500", "133235.587500", "133237.077500", "133238.567500", "133240.057500", "133241.547500", "133243.037500", "133244.527500", "133246.017500", "133247.507500", "133248.997500", "133250.487500", "133251.977500", "133253.467500", "133254.957500", "133256.447500", "133257.937500", "133259.427500", "133300.917500", "133302.407500", "133303.897500", "133305.387500", "133306.877500", "133308.367500", "133309.857500", "133311.347500", "133312.837500", "133314.327500", "133315.817500", "133317.307500", "133318.797500", "133320.287500", "133321.777500", "133323.267500", "133324.757500", "133326.247500", "133327.737500", "133329.227500", "133330.717500", "133332.207500", "133333.697500", "133335.187500", "133336.677500", "133338.167500", "133339.657500", "133341.147500", "133342.637500", "133344.127500", "133345.617500", "133347.107500", "133348.597500", "133350.087500", "133351.577500", "133353.067500", "133354.557500", "133356.047500", "133357.537500", "133359.027500", "133400.517500", "133402.007500", "133403.497500", "133404.987500", "133406.477500", "133407.967500", "133409.457500", "133410.947500", "133412.437500", "133413.927500", "133415.417500", "133416.907500", "133418.397500", "133419.887500", "133421.377500", "133422.867500", "133424.357500", "133425.847500", "133427.337500", "133428.827500", "133430.317500", "133431.807500", "133433.297500", "133434.787500", "133436.277500", "133437.767500", "133439.257500", "133440.747500", "133442.237500", "133443.727500", "133445.217500", "133446.707500", "133448.197500", "133449.687500", "133451.177500", "133452.667500", "133454.157500", "133455.647500", "133457.137500", "133458.627500", "133500.117500", "133501.607500", "133503.097500", "133504.587500", "133506.077500", "133507.567500", "133509.057500", "133510.547500", "133512.037500", "133513.527500", "133515.017500", "133516.507500", "133517.997500", "133519.487500", "133520.977500", "133522.467500", "133523.957500", "133525.447500", "133526.937500", "133528.427500", "133529.917500", "133531.407500", "133532.897500", "133534.387500", "133535.877500", "133537.367500", "133538.857500", "133540.347500", "133541.837500", "133543.327500", "133544.817500", "133546.307500", "133547.797500", "133549.287500", "133550.777500", "133552.267500", "133553.757500", "133555.247500", "133556.737500", "133558.227500", "133559.717500", "133601.207500", "133602.697500", "133604.187500", "133605.677500", "133607.167500", "133608.657500", "133610.147500", "133611.637500", "133613.127500", "133614.617500", "133616.107500", "133617.597500", "133619.087500", "133620.577500", "133622.067500", "133623.557500", "133625.047500", "133626.537500", "133628.027500", "133629.517500", "133631.007500", "133632.497500", "133633.987500", "133635.477500", "133636.967500", "133638.457500", "133639.947500", "133641.437500", "133642.927500", "133644.417500", "133645.907500", "133647.397500", "133648.887500", "133650.377500", "133651.867500", "133653.357500", "133654.847500", "133656.337500", "133657.827500", "133659.317500", "133700.807500", "133702.297500", "133703.787500", "133705.277500", "133706.767500", "133708.257500", "133709.747500", "133711.237500", "133712.727500", "133714.217500", "133715.707500", "133717.197500", "133718.687500", "133720.177500", "133721.667500", "133723.157500", "133724.647500", "133726.137500", "133727.627500", "133729.117500", "133730.607500", "133732.097500", "133733.587500", "133735.077500", "133736.567500", "133738.057500", "133739.547500", "133741.037500", "133742.527500", "133744.017500", "133745.507500", "133746.997500", "133748.487500", "133749.977500", "133751.467500", "133752.957500", "133754.447500", "133755.937500", "133757.427500", "133758.917500", "133800.407500", "133801.897500", "133803.387500", "133804.877500", "133806.367500", "133807.857500", "133809.347500", "133810.837500", "133812.327500", "133813.817500", "133815.307500", "133816.797500", "133818.287500", "133819.777500", "133821.267500", "133822.757500", "133824.247500", "133825.737500", "133827.227500", "133828.717500", "133830.207500", "133831.697500", "133833.187500", "133834.677500", "133836.167500", "133837.657500", "133839.147500", "133840.637500", "133842.127500", "133843.617500", "133845.107500", "133846.597500", "133848.087500", "133849.577500", "133851.067500", "133852.557500", "133854.047500", "133855.537500", "133857.027500", "133858.517500", "133900.007500", "133901.497500", "133902.987500", "133904.477500", "133905.967500", "133907.457500", "133908.947500", "133910.437500", "133911.927500", "133913.417500", "133914.907500", "133916.397500", "133917.887500", "133919.377500", "133920.867500"],
      "ContentTime": ["132953.200000", "132953.203000", "132953.212000", "132953.215000", "132953.218000", "132953.221000", "132953.224000", "132953.227000", "132953.229000", "132953.232000", "132953.235000", "132953.238000", "132953.241000", "132953.244000", "132953.246000", "132953.249000", "132953.252000", "132953.255000", "132953.258000", "132953.261000", "132953.264000", "132953.267000", "132953.269000", "132953.278000", "132953.281000", "132953.288000", "132953.290000", "132953.293000", "132953.296000", "132953.299000", "133013.147000", "133013.150000", "133013.153000", "133013.155000", "133013.158000", "133013.161000", "133013.164000", "133013.167000", "133013.170000", "133013.172000", "133013.175000", "133013.178000", "133013.181000", "133013.184000", "133013.186000", "133013.189000", "133013.192000", "133013.200000", "133013.203000", "133013.206000", "133033.147000", "133033.150000", "133033.152000", "133033.155000", "133033.158000", "133033.161000", "133033.164000", "133033.167000", "133033.169000", "133033.172000", "133033.175000", "133033.178000", "133033.181000", "133033.183000", "133033.186000", "133033.189000", "133033.192000", "133033.195000", "133033.197000", "133033.200000", "133053.147000", "133053.150000", "133053.152000", "133053.155000", "133053.158000", "133053.167000", "133053.170000", "133053.173000", "133053.176000", "133053.178000", "133053.181000", "133053.184000", "133053.187000", "133053.190000", "133053.192000", "133053.195000", "133053.198000", "133053.201000", "133053.204000", "133053.206000", "133053.209000", "133133.147000", "133133.150000", "133133.153000", "133133.156000", "133133.158000", "133133.161000", "133133.164000", "133133.174000", "133133.177000", "133133.180000", "133133.183000", "133133.185000", "133133.188000", "133133.191000", "133133.194000", "133133.197000", "133133.200000", "133133.202000", "133133.205000", "133133.208000", "133133.211000", "133133.213000", "133133.216000", "133133.219000", "133133.222000", "133133.225000", "133133.228000", "133133.230000", "133133.233000", "133133.236000", "133133.239000", "133133.247000", "133213.147000", "133213.150000", "133213.153000", "133213.155000", "133213.158000", "133213.161000", "133213.164000", "133213.167000", "133213.170000", "133213.172000", "133213.175000", "133213.178000", "133213.181000", "133213.184000", "133213.186000", "133213.189000", "133213.192000", "133213.195000", "133213.198000", "133213.201000", "133213.203000", "133213.206000", "133213.209000", "133213.212000", "133213.215000", "133213.217000", "133213.220000", "133253.147000", "133253.150000", "133253.153000", "133253.155000", "133253.158000", "133253.161000", "133253.164000", "133253.167000", "133253.170000", "133253.172000", "133253.175000", "133253.178000", "133253.181000", "133253.184000", "133253.186000", "133253.189000", "133253.192000", "133253.195000", "133253.198000", "133253.200000", "133253.203000", "133253.222000", "133253.224000", "133253.227000", "133253.230000", "133253.233000", "133253.236000", "133333.147000", "133333.150000", "133333.153000", "133333.155000", "133333.158000", "133333.161000", "133333.164000", "133333.167000", "133333.170000", "133333.172000", "133333.175000", "133333.178000", "133333.181000", "133333.184000", "133333.186000", "133333.189000", "133333.192000", "133333.195000", "133333.198000", "133333.201000", "133333.203000", "133333.206000", "133333.209000", "133333.212000", "133333.215000", "133333.218000", "133333.220000", "133413.147000", "133413.150000", "133413.153000", "133413.155000", "133413.174000", "133413.177000", "133413.180000", "133413.183000", "133413.185000", "133413.188000", "133413.191000", "133413.194000", "133413.197000", "133413.200000", "133413.202000", "133413.205000", "133413.208000", "133413.211000", "133413.214000", "133413.217000", "133413.219000", "133413.222000", "133413.225000", "133413.228000", "133413.231000", "133413.233000", "133413.236000", "133433.147000", "133433.150000", "133433.153000", "133433.156000", "133433.159000", "133433.162000", "133433.165000", "133433.168000", "133433.172000", "133433.175000", "133433.178000", "133433.181000", "133433.185000", "133513.147000", "133513.150000", "133513.156000", "133513.159000", "133513.162000", "133513.165000", "133513.167000", "133513.170000", "133513.173000", "133513.176000", "133513.179000", "133513.181000", "133513.184000", "133513.187000", "133513.190000", "133513.209000", "133513.212000", "133513.215000", "133513.218000", "133513.220000", "133513.223000", "133513.226000", "133513.229000", "133513.232000", "133513.234000", "133513.237000", "133513.240000", "133553.147000", "133553.150000", "133553.153000", "133553.155000", "133553.158000", "133553.161000", "133553.164000", "133553.167000", "133553.170000", "133553.173000", "133553.175000", "133553.178000", "133553.181000", "133553.184000", "133553.187000", "133553.190000", "133553.192000", "133553.195000", "133553.198000", "133553.201000", "133553.204000", "133553.207000", "133553.209000", "133553.212000", "133553.215000", "133553.218000", "133553.221000", "133633.147000", "133633.150000", "133633.153000", "133633.155000", "133633.158000", "133633.161000", "133633.164000", "133633.167000", "133633.170000", "133633.173000", "133633.175000", "133633.178000", "133633.181000", "133633.184000", "133633.187000", "133633.190000", "133633.193000", "133633.195000", "133633.198000", "133633.201000", "133633.204000", "133633.207000", "133633.210000", "133633.213000", "133633.215000", "133633.218000", "133633.221000", "133713.147000", "133713.150000", "133713.153000", "133713.156000", "133713.158000", "133713.161000", "133713.164000", "133713.167000", "133713.170000", "133713.173000", "133713.176000", "133713.178000", "133713.181000", "133713.184000", "133713.187000", "133713.190000", "133713.193000", "133713.196000", "133713.198000", "133713.201000", "133713.204000", "133713.207000", "133713.210000", "133713.213000", "133713.215000", "133713.218000", "133753.147000", "133753.150000", "133753.153000", "133753.156000", "133753.158000", "133753.161000", "133753.164000", "133753.167000", "133753.170000", "133753.173000", "133753.176000", "133753.178000", "133753.181000", "133753.184000", "133753.187000", "133753.190000", "133753.193000", "133753.195000", "133753.198000", "133753.201000", "133753.204000", "133753.207000", "133753.210000", "133753.212000", "133753.215000", "133753.218000", "133753.221000", "133833.147000", "133833.150000", "133833.153000", "133833.156000", "133833.158000", "133833.161000", "133833.164000", "133833.167000", "133833.170000", "133833.173000", "133833.175000", "133833.178000", "133833.181000", "133833.184000", "133833.202000", "133833.204000", "133833.207000", "133833.210000", "133833.213000", "133833.216000", "133833.219000", "133833.226000", "133833.229000", "133833.232000", "133833.235000", "133833.237000", "133833.240000", "133913.147000", "133913.150000", "133913.153000", "133913.156000", "133913.158000", "133913.161000", "133913.164000", "133913.167000", "133913.170000", "133913.173000", "133913.176000", "133913.178000", "133913.181000", "133913.184000", "133913.187000", "133913.190000", "133913.193000", "133913.195000", "133913.198000", "133913.201000", "133913.204000", "133913.207000", "133913.210000", "133913.212000", "133913.215000", "133913.218000", "133913.221000", "133923.037000", "133923.041000", "133923.044000", "133923.046000", "133923.049000", "133923.052000", "133923.055000"],
