{
  "AcquisitionMatrixPE": 104,
  "AcquisitionNumber": 1,
  "AcquisitionTime": "14:09:50.710000",
  "BandwidthPerPixelPhaseEncode": 17.17,
  "BaseResolution": 104,
  "BodyPartExamined": "BRAIN",
  "CoilString": "HC1-7;NC1_2",
  "ConsistencyInfo": "N4_VE11C_LATEST_20160120",
  "ConversionSoftware": "dcm2niix",
  "ConversionSoftwareVersion": "v1.0.20190902",
  "DerivedVendorReportedEchoSpacing": 0.000560011,
  "DeviceSerialNumber": "167006",
  "DwellTime": 2.1e-06,
  "EchoTime": 0.037,
  "EchoTrainLength": 104,
  "EffectiveEchoSpacing": 0.000560011,
  "FlipAngle": 52,
  "ImageComments": "Unaliased_MB4_PE3_LB",
  "ImageOrientationPatientDICOM": [0.997979, 0.0103518, -0.062694, -0.0214275, 0.983676, -0.178667],
  "ImageType": [
    "ORIGINAL",
    "PRIMARY",
    "M",
    "MB",
    "ND",
    "MOSAIC"
],
  "ImagingFrequency": 123.259,
  "InPlanePhaseEncodingDirectionDICOM": "COL",
  "InstitutionAddress": "Chemin_Queen-Mary_4565_Montreal_District_CA_H3W_1W5",
  "InstitutionName": "IUGM",
  "InstitutionalDepartmentName": "Department",
  "MRAcquisitionType": "2D",
  "MagneticFieldStrength": 3,
  "Manufacturer": "Siemens",
  "ManufacturersModelName": "Prisma_fit",
  "Modality": "MR",
  "MultibandAccelerationFactor": 4,
  "PartialFourier": 1,
  "PatientPosition": "HFS",
  "PercentPhaseFOV": 100,
  "PhaseEncodingDirection": "j",
  "PhaseEncodingSteps": 104,
  "PhaseResolution": 1,
  "PixelBandwidth": 2290,
  "ProcedureStepDescription": "video_friends",
  "ProtocolName": "func_task-friends-s05e02b",
  "PulseSequenceDetails": "%CustomerSeq%_cmrr_mbep2d_bold",
  "ReceiveCoilActiveElements": "HC1-7;NC1,2",
  "ReceiveCoilName": "HeadNeck_64",
  "ReconMatrixPE": 104,
  "RepetitionTime": 1.49,
  "SAR": 0.0289539,
  "ScanOptions": "FS",
  "ScanningSequence": "EP",
  "SequenceName": "epfid2d1_104",
  "SequenceVariant": "SK_SS",
  "SeriesDescription": "func_task-friends-s05e02b",
  "SeriesNumber": 22,
  "ShimSetting": [595, -7247, -8827, 606, -88, -249, 20, 61],
  "SliceThickness": 2,
  "SliceTiming": [0, 0.785, 0.1, 0.8825, 0.1975, 0.98, 0.295, 1.08, 0.3925, 1.1775, 0.49, 1.275, 0.59, 1.3725, 0.6875, 0, 0.785, 0.1, 0.8825, 0.1975, 0.98, 0.295, 1.08, 0.3925, 1.1775, 0.49, 1.275, 0.59, 1.3725, 0.6875, 0, 0.785, 0.1, 0.8825, 0.1975, 0.98, 0.295, 1.08, 0.3925, 1.1775, 0.49, 1.275, 0.59, 1.3725, 0.6875, 0, 0.785, 0.1, 0.8825, 0.1975, 0.98, 0.295, 1.08, 0.3925, 1.1775, 0.49, 1.275, 0.59, 1.3725, 0.6875],
  "SoftwareVersions": "syngo_MR_E11",
  "SpacingBetweenSlices": 2,
  "StationName": "MRC35049",
  "TaskName": "s05e02b",
  "TotalReadoutTime": 0.0576811,
  "TxRefAmp": 216.35,
  "WipMemBlock": "d4c5511e-9285-4d68-9620-339116ee1612||Sequence: R016 ve11c/master r/e634e98; Dec 19 2017 11:00:25 by eja",
  "dcmmeta_affine": [
    [-1.9959582090377808, -0.04285497963428497, -0.1196422278881073, 104.33280181884766],
    [-0.02070367895066738, 1.9673526287078857, -0.3592976927757263, -84.92100524902344],
    [-0.12538807094097137, 0.35733306407928467, 1.963820457458496, -40.16920471191406],
    [0.0, 0.0, 0.0, 1.0]
],
  "dcmmeta_reorient_transform": [
    [0.0, -1.0, 0.0, 103.0],
    [1.0, 0.0, 0.0, 0.0],
    [0.0, 0.0, 1.0, 0.0],
    [0.0, 0.0, 0.0, 1.0]
],
  "dcmmeta_shape": [104, 104, 60, 531],
  "dcmmeta_slice_dim": 2,
  "dcmmeta_version": 0.6,
  "global": {
    "const": {
      "AcquisitionMatrix": [104, 0, 0, 104],
      "AngioFlag": "N",
      "BitsAllocated": 16,
      "BitsStored": 16,
      "BodyPartExamined": "BRAIN",
      "Columns": 832,
      "EchoNumbers": 1,
      "EchoTime": 37.0,
      "EchoTrainLength": 104,
      "FlipAngle": 52.0,
      "HighBit": 15,
      "ImageOrientationPatient": [0.99797910654034, 0.0103518395509, -0.0626940374107, -0.0214274889375, 0.98367633423896, -0.1786665390498],
      "ImagePositionPatient": [-810.84831884472, -841.36883149282, 172.34660273404],
      "ImageType": [
        "ORIGINAL",
        "PRIMARY",
        "M",
        "MB",
        "ND",
        "MOSAIC"
],
      "ImagedNucleus": "1H",
      "ImagingFrequency": 123.258988,
      "InPlanePhaseEncodingDirection": "COL",
      "MRAcquisitionType": "2D",
      "MagneticFieldStrength": 3.0,
      "Manufacturer": "SIEMENS",
      "ManufacturerModelName": "Prisma_fit",
      "Modality": "MR",
      "NumberOfAverages": 1.0,
      "NumberOfPhaseEncodingSteps": 104,
      "PercentPhaseFieldOfView": 100.0,
      "PercentSampling": 100.0,
      "PerformedProcedureStepStartTime": "130942.482000",
      "PhotometricInterpretation": "MONOCHROME2",
      "PixelBandwidth": 2290.0,
      "PixelRepresentation": 0,
      "PixelSpacing": [2.0, 2.0],
      "ProtocolName": "func_task-friends-s05e02b",
      "RepetitionTime": 1490.0,
      "Rows": 832,
      "SAR": 0.02895389730869,
      "SamplesPerPixel": 1,
      "ScanOptions": "FS",
      "ScanningSequence": "EP",
      "SequenceName": "epfid2d1_104",
      "SequenceVariant": [
        "SK",
        "SS"
],
      "SeriesDescription": "func_task-friends-s05e02b",
      "SeriesNumber": 22,
      "SeriesTime": "141108.676000",
      "SliceLocation": -30.427896764968,
      "SliceThickness": 2.0,
      "SmallestImagePixelValue": 0,
      "SoftwareVersions": "syngo MR E11",
      "SpacingBetweenSlices": 1.9999999547602,
      "SpecificCharacterSet": "ISO_IR 100",
      "StudyID": "1",
      "StudyTime": "130942.428000",
      "TransmitCoilName": "Body",
      "VariableFlipAngleFlag": "N",
      "WindowCenterWidthExplanation": "Algo1",
      "dBdt": 0.0},
    "slices": {}
  },
  "time": {
    "samples": {
      "AcquisitionNumber": [1, 2, 3, 4, 5, 6, 7, 8, 9, 10, 11, 12, 13, 14, 15, 16, 17, 18, 19, 20, 21, 22, 23, 24, 25, 26, 27, 28, 29, 30, 31, 32, 33, 34, 35, 36, 37, 38, 39, 40, 41, 42, 43, 44, 45, 46, 47, 48, 49, 50, 51, 52, 53, 54, 55, 56, 57, 58, 59, 60, 61, 62, 63, 64, 65, 66, 67, 68, 69, 70, 71, 72, 73, 74, 75, 76, 77, 78, 79, 80, 81, 82, 83, 84, 85, 86, 87, 88, 89, 90, 91, 92, 93, 94, 95, 96, 97, 98, 99, 100, 101, 102, 103, 104, 105, 106, 107, 108, 109, 110, 111, 112, 113, 114, 115, 116, 117, 118, 119, 120, 121, 122, 123, 124, 125, 126, 127, 128, 129, 130, 131, 132, 133, 134, 135, 136, 137, 138, 139, 140, 141, 142, 143, 144, 145, 146, 147, 148, 149, 150, 151, 152, 153, 154, 155, 156, 157, 158, 159, 160, 161, 162, 163, 164, 165, 166, 167, 168, 169, 170, 171, 172, 173, 174, 175, 176, 177, 178, 179, 180, 181, 182, 183, 184, 185, 186, 187, 188, 189, 190, 191, 192, 193, 194, 195, 196, 197, 198, 199, 200, 201, 202, 203, 204, 205, 206, 207, 208, 209, 210, 211, 212, 213, 214, 215, 216, 217, 218, 219, 220, 221, 222, 223, 224, 225, 226, 227, 228, 229, 230, 231, 232, 233, 234, 235, 236, 237, 238, 239, 240, 241, 242, 243, 244, 245, 246, 247, 248, 249, 250, 251, 252, 253, 254, 255, 256, 257, 258, 259, 260, 261, 262, 263, 264, 265, 266, 267, 268, 269, 270, 271, 272, 273, 274, 275, 276, 277, 278, 279, 280, 281, 282, 283, 284, 285, 286, 287, 288, 289, 290, 291, 292, 293, 294, 295, 296, 297, 298, 299, 300, 301, 302, 303, 304, 305, 306, 307, 308, 309, 310, 311, 312, 313, 314, 315, 316, 317, 318, 319, 320, 321, 322, 323, 324, 325, 326, 327, 328, 329, 330, 331, 332, 333, 334, 335, 336, 337, 338, 339, 340, 341, 342, 343, 344, 345, 346, 347, 348, 349, 350, 351, 352, 353, 354, 355, 356, 357, 358, 359, 360, 361, 362, 363, 364, 365, 366, 367, 368, 369, 370, 371, 372, 373, 374, 375, 376, 377, 378, 379, 380, 381, 382, 383, 384, 385, 386, 387, 388, 389, 390, 391, 392, 393, 394, 395, 396, 397, 398, 399, 400, 401, 402, 403, 404, 405, 406, 407, 408, 409, 410, 411, 412, 413, 414, 415, 416, 417, 418, 419, 420, 421, 422, 423, 424, 425, 426, 427, 428, 429, 430, 431, 432, 433, 434, 435, 436, 437, 438, 439, 440, 441, 442, 443, 444, 445, 446, 447, 448, 449, 450, 451, 452, 453, 454, 455, 456, 457, 458, 459, 460, 461, 462, 463, 464, 465, 466, 467, 468, 469, 470, 471, 472, 473, 474, 475, 476, 477, 478, 479, 480, 481, 482, 483, 484, 485, 486, 487, 488, 489, 490, 491, 492, 493, 494, 495, 496, 497, 498, 499, 500, 501, 502, 503, 504, 505, 506, 507, 508, 509, 510, 511, 512, 513, 514, 515, 516, 517, 518, 519, 520, 521, 522, 523, 524, 525, 526, 527, 528, 529, 530, 531],
      "AcquisitionTime": ["140950.710000", "140952.200000", "140953.690000", "140955.180000", "140956.670000", "140958.160000", "140959.650000", "141001.140000", "141002.630000", "141004.120000", "141005.610000", "141007.100000", "141008.590000", "141010.080000", "141011.570000", "141013.060000", "141014.550000", "141016.040000", "141017.530000", "141019.020000", "141020.510000", "141022.000000", "141023.490000", "141024.980000", "141026.470000", "141027.960000", "141029.450000", "141030.940000", "141032.430000", "141033.920000", "141035.410000", "141036.900000", "141038.390000", "141039.880000", "141041.370000", "141042.860000", "141044.350000", "141045.840000", "141047.330000", "141048.820000", "141050.310000", "141051.800000", "141053.290000", "141054.780000", "141056.270000", "141057.760000", "141059.250000", "141100.740000", "141102.230000", "141103.720000", "141105.210000", "141106.700000", "141108.190000", "141109.680000", "141111.170000", "141112.660000", "141114.150000", "141115.640000", "141117.130000", "141118.620000", "141120.110000", "141121.600000", "141123.090000", "141124.580000", "141126.070000", "141127.560000", "141129.050000", "141130.540000", "141132.030000", "141133.520000", "141135.010000", "141136.500000", "141137.990000", "141139.480000", "141140.970000", "141142.460000", "141143.950000", "141145.440000", "141146.930000", "141148.420000", "141149.910000", "141151.400000", "141152.890000", "141154.380000", "141155.870000", "141157.360000", "141158.850000", "141200.340000", "141201.830000", "141203.320000", "141204.810000", "141206.300000", "141207.790000", "141209.280000", "141210.770000", "141212.260000", "141213.750000", "141215.240000", "141216.730000", "141218.220000", "141219.710000", "141221.200000", "141222.690000", "141224.180000", "141225.670000", "141227.160000", "141228.650000", "141230.140000", "141231.630000", "141233.120000", "141234.610000", "141236.100000", "141237.590000", "141239.080000", "141240.570000", "141242.060000", "141243.550000", "141245.040000", "141246.530000", "141248.020000", "141249.510000", "141251.000000", "141252.490000", "141253.980000", "141255.470000", "141256.960000", "141258.450000", "141259.940000", "141301.430000", "141302.920000", "141304.410000", "141305.900000", "141307.390000", "141308.880000", "141310.370000", "141311.860000", "141313.350000", "141314.840000", "141316.330000", "141317.820000", "141319.310000", "141320.800000", "141322.290000", "141323.780000", "141325.270000", "141326.760000", "141328.250000", "141329.740000", "141331.230000", "141332.720000", "141334.210000", "141335.700000", "141337.190000", "141338.680000", "141340.170000", "141341.660000", "141343.150000", "141344.640000", "141346.130000", "141347.620000", "141349.110000", "141350.600000", "141352.090000", "141353.580000", "141355.070000", "141356.560000", "141358.050000", "141359.540000", "141401.030000", "141402.520000", "141404.010000", "141405.500000", "141406.990000", "141408.480000", "141409.970000", "141411.460000", "141412.950000", "141414.440000", "141415.930000", "141417.420000", "141418.910000", "141420.400000", "141421.890000", "141423.380000", "141424.870000", "141426.360000", "141427.850000", "141429.340000", "141430.830000", "141432.320000", "141433.810000", "141435.300000", "141436.790000", "141438.280000", "141439.770000", "141441.260000", "141442.750000", "141444.240000", "141445.730000", "141447.220000", "141448.710000", "141450.200000", "141451.690000", "141453.180000", "141454.670000", "141456.160000", "141457.650000", "141459.140000", "141500.630000", "141502.120000", "141503.610000", "141505.100000", "141506.590000", "141508.080000", "141509.570000", "141511.060000", "141512.550000", "141514.040000", "141515.530000", "141517.020000", "141518.510000", "141520.000000", "141521.490000", "141522.980000", "141524.470000", "141525.960000", "141527.450000", "141528.940000", "141530.430000", "141531.920000", "141533.410000", "141534.900000", "141536.390000", "141537.880000", "141539.370000", "141540.860000", "141542.350000", "141543.840000", "141545.330000", "141546.820000", "141548.310000", "141549.800000", "141551.290000", "141552.780000", "141554.270000", "141555.760000", "141557.250000", "141558.740000", "141600.230000", "141601.720000", "141603.210000", "141604.700000", "141606.190000", "141607.680000", "141609.170000", "141610.660000", "141612.150000", "141613.640000", "141615.130000", "141616.620000", "141618.110000", "141619.600000", "141621.090000", "141622.580000", "141624.070000", "141625.560000", "141627.050000", "141628.540000", "141630.030000", "141631.520000", "141633.010000", "141634.500000", "141635.990000", "141637.480000", "141638.970000", "141640.460000", "141641.950000", "141643.440000", "141644.930000", "141646.420000", "141647.910000", "141649.400000", "141650.890000", "141652.380000", "141653.870000", "141655.360000", "141656.850000", "141658.340000", "141659.830000", "141701.320000", "141702.810000", "141704.300000", "141705.790000", "141707.280000", "141708.770000", "141710.260000", "141711.750000", "141713.240000", "141714.730000", "141716.220000", "141717.710000", "141719.200000", "141720.690000", "141722.180000", "141723.670000", "141725.160000", "141726.650000", "141728.140000", "141729.630000", "141731.120000", "141732.610000", "141734.100000", "141735.590000", "141737.080000", "141738.570000", "141740.060000", "141741.550000", "141743.040000", "141744.530000", "141746.020000", "141747.510000", "141749.000000", "141750.490000", "141751.980000", "141753.470000", "141754.960000", "141756.450000", "141757.940000", "141759.430000", "141800.920000", "141802.410000", "141803.900000", "141805.390000", "141806.880000", "141808.370000", "141809.860000", "141811.350000", "141812.840000", "141814.330000", "141815.820000", "141817.310000", "141818.800000", "141820.290000", "141821.780000", "141823.270000", "141824.760000", "141826.250000", "141827.740000", "141829.230000", "141830.720000", "141832.210000", "141833.700000", "141835.190000", "141836.680000", "141838.170000", "141839.660000", "141841.150000", "141842.640000", "141844.130000", "141845.620000", "141847.110000", "141848.600000", "141850.090000", "141851.580000", "141853.070000", "141854.560000", "141856.050000", "141857.540000", "141859.030000", "141900.520000", "141902.010000", "141903.500000", "141904.990000", "141906.480000", "141907.970000", "141909.460000", "141910.950000", "141912.440000", "141913.930000", "141915.420000", "141916.910000", "141918.400000", "141919.890000", "141921.380000", "141922.870000", "141924.360000", "141925.850000", "141927.340000", "141928.830000", "141930.320000", "141931.810000", "141933.300000", "141934.790000", "141936.280000", "141937.770000", "141939.260000", "141940.750000", "141942.240000", "141943.730000", "141945.220000", "141946.710000", "141948.200000", "141949.690000", "141951.180000", "141952.670000", "141954.160000", "141955.650000", "141957.140000", "141958.630000", "142000.120000", "142001.610000", "142003.100000", "142004.590000", "142006.080000", "142007.570000", "142009.060000", "142010.550000", "142012.040000", "142013.530000", "142015.020000", "142016.510000", "142018.000000", "142019.490000", "142020.980000", "142022.470000", "142023.960000", "142025.450000", "142026.940000", "142028.430000", "142029.920000", "142031.410000", "142032.900000", "142034.390000", "142035.880000", "142037.370000", "142038.860000", "142040.350000", "142041.840000", "142043.330000", "142044.820000", "142046.310000", "142047.800000", "142049.290000", "142050.780000", "142052.270000", "142053.760000", "142055.250000", "142056.740000", "142058.230000", "142059.720000", "142101.210000", "142102.700000", "142104.190000", "142105.680000", "142107.170000", "142108.660000", "142110.150000", "142111.640000", "142113.130000", "142114.620000", "142116.110000", "142117.600000", "142119.090000", "142120.580000", "142122.070000", "142123.560000", "142125.050000", "142126.540000", "142128.030000", "142129.520000", "142131.010000", "142132.500000", "142133.990000", "142135.480000", "142136.970000", "142138.460000", "142139.950000", "142141.440000", "142142.930000", "142144.420000", "142145.910000", "142147.400000", "142148.890000", "142150.380000", "142151.870000", "142153.360000", "142154.850000", "142156.340000", "142157.830000", "142159.320000", "142200.810000", "142202.300000", "142203.790000", "142205.280000", "142206.770000", "142208.260000", "142209.750000", "142211.240000", "142212.730000", "142214.220000", "142215.710000", "142217.200000", "142218.690000", "142220.180000", "142221.670000", "142223.160000", "142224.650000", "142226.140000", "142227.630000", "142229.120000", "142230.610000", "142232.100000", "142233.590000", "142235.080000", "142236.570000", "142238.060000", "142239.550000", "142241.040000", "142242.530000", "142244.020000", "142245.510000", "142247.000000", "142248.490000", "142249.980000", "142251.470000", "142252.960000", "142254.450000", "142255.940000", "142257.430000", "142258.920000", "142300.410000"],
      "ContentTime": ["141108.678000", "141108.682000", "141108.685000", "141108.688000", "141108.691000", "141108.694000", "141108.696000", "141108.699000", "141108.702000", "141108.705000", "141108.708000", "141108.710000", "141108.713000", "141108.716000", "141108.727000", "141108.730000", "141108.733000", "141108.736000", "141108.743000", "141108.745000", "141108.748000", "141108.751000", "141128.638000", "141128.641000", "141128.644000", "141128.646000", "141128.649000", "141128.652000", "141128.655000", "141128.658000", "141128.660000", "141128.663000", "141128.666000", "141128.669000", "141128.672000", "141128.674000", "141128.677000", "141128.680000", "141128.683000", "141128.691000", "141128.694000", "141128.697000", "141148.638000", "141148.641000", "141148.644000", "141148.646000", "141148.649000", "141148.652000", "141148.655000", "141148.657000", "141148.660000", "141148.663000", "141148.666000", "141148.669000", "141148.672000", "141148.674000", "141148.677000", "141148.680000", "141148.683000", "141148.689000", "141148.691000", "141148.701000", "141208.639000", "141208.642000", "141208.645000", "141208.648000", "141208.650000", "141208.654000", "141208.657000", "141208.660000", "141208.663000", "141208.666000", "141208.669000", "141208.671000", "141208.674000", "141208.677000", "141208.680000", "141208.683000", "141208.685000", "141208.688000", "141208.691000", "141208.694000", "141228.639000", "141228.642000", "141228.645000", "141228.647000", "141228.650000", "141228.653000", "141228.656000", "141228.659000", "141228.661000", "141228.664000", "141228.667000", "141228.670000", "141228.673000", "141228.676000", "141228.678000", "141228.681000", "141228.684000", "141228.687000", "141228.690000", "141228.692000", "141228.695000", "141308.638000", "141308.641000", "141308.644000", "141308.646000", "141308.649000", "141308.652000", "141308.655000", "141308.658000", "141308.661000", "141308.663000", "141308.666000", "141308.669000", "141308.672000", "141308.675000", "141308.678000", "141308.681000", "141308.683000", "141308.686000", "141308.689000", "141308.692000", "141308.695000", "141308.697000", "141308.700000", "141308.703000", "141308.706000", "141308.709000", "141308.712000", "141308.714000", "141308.717000", "141348.638000", "141348.641000", "141348.644000", "141348.647000", "141348.649000", "141348.652000", "141348.655000", "141348.658000", "141348.660000", "141348.663000", "141348.666000", "141348.669000", "141348.672000", "141348.675000", "141348.677000", "141348.680000", "141348.683000", "141348.686000", "141348.688000", "141348.691000", "141348.694000", "141348.697000", "141348.700000", "141348.703000", "141348.706000", "141348.708000", "141348.711000", "141428.639000", "141428.642000", "141428.645000", "141428.648000", "141428.650000", "141428.653000", "141428.656000", "141428.659000", "141428.662000", "141428.665000", "141428.667000", "141428.670000", "141428.673000", "141428.676000", "141428.679000", "141428.682000", "141428.684000", "141428.687000", "141428.690000", "141428.693000", "141428.696000", "141428.699000", "141428.701000", "141428.704000", "141428.707000", "141428.710000", "141428.713000", "141508.638000", "141508.641000", "141508.644000", "141508.646000", "141508.649000", "141508.652000", "141508.663000", "141508.666000", "141508.669000", "141508.680000", "141508.683000", "141508.685000", "141508.688000", "141508.691000", "141508.694000", "141508.697000", "141508.699000", "141508.702000", "141508.705000", "141508.708000", "141508.711000", "141508.714000", "141508.717000", "141508.719000", "141508.722000", "141508.725000", "141548.638000", "141548.641000", "141548.644000", "141548.647000", "141548.649000", "141548.652000", "141548.655000", "141548.658000", "141548.661000", "141548.664000", "141548.666000", "141548.669000", "141548.672000", "141548.675000", "141548.678000", "141548.681000", "141548.683000", "141548.686000", "141548.689000", "141548.692000", "141548.695000", "141548.697000", "141548.700000", "141548.703000", "141548.706000", "141548.709000", "141548.712000", "141628.638000", "141628.641000", "141628.644000", "141628.647000", "141628.649000", "141628.652000", "141628.655000", "141628.658000", "141628.661000", "141628.669000", "141628.672000", "141628.675000", "141628.678000", "141628.681000", "141628.683000", "141628.686000", "141628.689000", "141628.692000", "141628.695000", "141628.698000", "141628.700000", "141628.703000", "141628.706000", "141628.709000", "141628.712000", "141628.715000", "141628.717000", "141708.639000", "141708.642000", "141708.645000", "141708.648000", "141708.650000", "141708.653000", "141708.656000", "141708.659000", "141708.662000", "141708.665000", "141708.668000", "141708.670000", "141708.673000", "141708.676000", "141708.679000", "141708.682000", "141708.685000", "141708.688000", "141708.700000", "141708.703000", "141708.706000", "141708.709000", "141708.712000", "141708.715000", "141708.718000", "141708.720000", "141708.723000", "141748.638000", "141748.641000", "141748.644000", "141748.647000", "141748.650000", "141748.652000", "141748.655000", "141748.658000", "141748.661000", "141748.664000", "141748.667000", "141748.669000", "141748.672000", "141748.675000", "141748.678000", "141748.681000", "141748.684000", "141748.686000", "141748.689000", "141748.692000", "141748.695000", "141748.698000", "141748.701000", "141748.703000", "141748.706000", "141748.709000", "141748.712000", "141828.638000", "141828.641000", "141828.644000", "141828.647000", "141828.649000", "141828.652000", "141828.655000", "141828.658000", "141828.661000", "141828.663000", "141828.666000", "141828.669000", "141828.672000", "141828.675000", "141828.678000", "141828.681000", "141828.683000", "141828.686000", "141828.689000", "141828.692000", "141828.695000", "141828.698000", "141828.701000", "141828.703000", "141828.706000", "141828.709000", "141828.712000", "141908.639000", "141908.642000", "141908.645000", "141908.648000", "141908.650000", "141908.653000", "141908.656000", "141908.659000", "141908.662000", "141908.665000", "141908.668000", "141908.670000", "141908.673000", "141908.676000", "141908.679000", "141908.682000", "141908.685000", "141908.687000", "141908.690000", "141908.693000", "141908.696000", "141908.699000", "141908.702000", "141908.704000", "141908.707000", "141908.710000", "141948.638000", "141948.641000", "141948.644000", "141948.647000", "141948.650000", "141948.653000", "141948.655000", "141948.658000", "141948.661000", "141948.664000", "141948.667000", "141948.670000", "141948.672000", "141948.675000", "141948.678000", "141948.681000", "141948.684000", "141948.687000", "141948.690000", "141948.692000", "141948.695000", "141948.698000", "141948.701000", "141948.704000", "141948.707000", "141948.709000", "141948.712000", "142028.638000", "142028.641000", "142028.644000", "142028.647000", "142028.649000", "142028.652000", "142028.655000", "142028.658000", "142028.661000", "142028.664000", "142028.667000", "142028.669000", "142028.672000", "142028.675000", "142028.678000", "142028.681000", "142028.684000", "142028.686000", "142028.689000", "142028.692000", "142028.695000", "142028.698000", "142028.701000", "142028.704000", "142028.706000", "142028.709000", "142028.712000", "142108.638000", "142108.641000", "142108.644000", "142108.647000", "142108.650000", "142108.652000", "142108.655000", "142108.658000", "142108.661000", "142108.664000", "142108.667000", "142108.669000", "142108.672000", "142108.680000", "142108.683000", "142108.691000", "142108.693000", "142108.696000", "142108.699000", "142108.702000", "142108.705000", "142108.708000", "142108.710000", "142108.713000", "142108.723000", "142108.726000", "142108.729000", "142148.638000", "142148.641000", "142148.644000", "142148.647000", "142148.650000", "142148.652000", "142148.655000", "142148.658000", "142148.661000", "142148.664000", "142148.667000", "142148.669000", "142148.672000", "142148.675000", "142148.678000", "142148.681000", "142148.684000", "142148.687000", "142148.689000", "142148.692000", "142148.695000", "142148.698000", "142148.701000", "142148.704000", "142148.707000", "142148.709000", "142148.712000", "142228.638000", "142228.641000", "142228.644000", "142228.647000", "142228.649000", "142228.652000", "142228.655000", "142228.658000", "142228.661000", "142228.664000", "142228.666000", "142228.669000", "142228.672000", "142228.675000", "142228.678000", "142228.681000", "142228.683000", "142228.686000", "142228.689000", "142228.692000", "142228.695000", "142228.698000", "142228.700000", "142228.703000", "142228.706000", "142228.709000", "142228.712000", "142302.616000", "142302.619000", "142302.622000", "142302.625000", "142302.628000", "142302.631000", "142302.634000", "142302.637000", "142302.640000", "142302.643000", "142302.646000", "142302.649000", "142302.651000", "142302.654000", "142302.657000", "142302.660000", "142302.663000", "142302.666000", "142302.669000", "142302.672000", "142302.674000", "142302.677000", "142302.680000"],
