{
  "AcquisitionMatrixPE": 104,
  "AcquisitionNumber": 1,
  "AcquisitionTime": "13:39:58.662500",
  "BandwidthPerPixelPhaseEncode": 17.17,
  "BaseResolution": 104,
  "BodyPartExamined": "BRAIN",
  "CoilString": "HC1-7;NC1_2",
  "ConsistencyInfo": "N4_VE11C_LATEST_20160120",
  "ConversionSoftware": "dcm2niix",
  "ConversionSoftwareVersion": "v1.0.20190902",
  "DerivedVendorReportedEchoSpacing": 0.000560011,
  "DeviceSerialNumber": "167006",
  "DwellTime": 2.1e-06,
  "EchoTime": 0.037,
  "EchoTrainLength": 104,
  "EffectiveEchoSpacing": 0.000560011,
  "FlipAngle": 52,
  "ImageComments": "Unaliased_MB4_PE3_LB",
  "ImageOrientationPatientDICOM": [0.997929, 0.00239481, -0.0642802, -0.0170704, 0.973335, -0.228751],
  "ImageType": [
    "ORIGINAL",
    "PRIMARY",
    "M",
    "MB",
    "ND",
    "MOSAIC"
],
  "ImagingFrequency": 123.259,
  "InPlanePhaseEncodingDirectionDICOM": "COL",
  "InstitutionAddress": "Chemin_Queen-Mary_4565_Montreal_District_CA_H3W_1W5",
  "InstitutionName": "IUGM",
  "InstitutionalDepartmentName": "Department",
  "MRAcquisitionType": "2D",
  "MagneticFieldStrength": 3,
  "Manufacturer": "Siemens",
  "ManufacturersModelName": "Prisma_fit",
  "Modality": "MR",
  "MultibandAccelerationFactor": 4,
  "PartialFourier": 1,
  "PatientPosition": "HFS",
  "PercentPhaseFOV": 100,
  "PhaseEncodingDirection": "j",
  "PhaseEncodingSteps": 104,
  "PhaseResolution": 1,
  "PixelBandwidth": 2290,
  "ProcedureStepDescription": "video_friends",
  "ProtocolName": "func_task-friends-s05e01b",
  "PulseSequenceDetails": "%CustomerSeq%_cmrr_mbep2d_bold",
  "ReceiveCoilActiveElements": "HC1-7;NC1,2",
  "ReceiveCoilName": "HeadNeck_64",
  "ReconMatrixPE": 104,
  "RepetitionTime": 1.49,
  "SAR": 0.0289409,
  "ScanOptions": "FS",
  "ScanningSequence": "EP",
  "SequenceName": "epfid2d1_104",
  "SequenceVariant": "SK_SS",
  "SeriesDescription": "func_task-friends-s05e01b",
  "SeriesNumber": 11,
  "ShimSetting": [596, -7250, -8829, 605, -80, -265, 17, 58],
  "SliceThickness": 2,
  "SliceTiming": [0, 0.785, 0.0975, 0.8825, 0.1975, 0.98, 0.295, 1.0775, 0.3925, 1.1775, 0.49, 1.275, 0.5875, 1.3725, 0.6875, 0, 0.785, 0.0975, 0.8825, 0.1975, 0.98, 0.295, 1.0775, 0.3925, 1.1775, 0.49, 1.275, 0.5875, 1.3725, 0.6875, 0, 0.785, 0.0975, 0.8825, 0.1975, 0.98, 0.295, 1.0775, 0.3925, 1.1775, 0.49, 1.275, 0.5875, 1.3725, 0.6875, 0, 0.785, 0.0975, 0.8825, 0.1975, 0.98, 0.295, 1.0775, 0.3925, 1.1775, 0.49, 1.275, 0.5875, 1.3725, 0.6875],
  "SoftwareVersions": "syngo_MR_E11",
  "SpacingBetweenSlices": 2,
  "StationName": "MRC35049",
  "TaskName": "s05e01b",
  "TotalReadoutTime": 0.0576811,
  "TxRefAmp": 216.35,
  "WipMemBlock": "559e2e95-2363-446b-8b8a-e2162be03b50||Sequence: R016 ve11c/master r/e634e98; Dec 19 2017 11:00:25 by eja",
  "dcmmeta_affine": [
    [-1.995858073234558, -0.03414088487625122, -0.12403667718172073, 103.81013488769531],
    [-0.004789622500538826, 1.946670651435852, -0.45874857902526855, -82.68175506591797],
    [-0.12856033444404602, 0.45750147104263306, 1.942720890045166, -47.32528305053711],
    [0.0, 0.0, 0.0, 1.0]
],
  "dcmmeta_reorient_transform": [
    [0.0, -1.0, 0.0, 103.0],
    [1.0, 0.0, 0.0, 0.0],
    [0.0, 0.0, 1.0, 0.0],
    [0.0, 0.0, 0.0, 1.0]
],
  "dcmmeta_shape": [104, 104, 60, 474],
  "dcmmeta_slice_dim": 2,
  "dcmmeta_version": 0.6,
  "global": {
    "const": {
      "AcquisitionMatrix": [104, 0, 0, 104],
      "AngioFlag": "N",
      "BitsAllocated": 16,
      "BitsStored": 16,
      "BodyPartExamined": "BRAIN",
      "Columns": 832,
      "EchoNumbers": 1,
      "EchoTime": 37.0,
      "EchoTrainLength": 104,
      "FlipAngle": 52.0,
      "HighBit": 15,
      "ImageOrientationPatient": [0.99792901817077, 0.00239481134904, -0.0642801646803, -0.017070442082, 0.97333534862493, -0.2287507357897],
      "ImagePositionPatient": [-814.35866770048, -828.15688312825, 213.12386418977],
      "ImageType": [
        "ORIGINAL",
        "PRIMARY",
        "M",
        "MB",
        "ND",
        "MOSAIC"
],
      "ImagedNucleus": "1H",
      "ImagingFrequency": 123.258984,
      "InPlanePhaseEncodingDirection": "COL",
      "MRAcquisitionType": "2D",
      "MagneticFieldStrength": 3.0,
      "Manufacturer": "SIEMENS",
      "ManufacturerModelName": "Prisma_fit",
      "Modality": "MR",
      "NumberOfAverages": 1.0,
      "NumberOfPhaseEncodingSteps": 104,
      "PercentPhaseFieldOfView": 100.0,
      "PercentSampling": 100.0,
      "PerformedProcedureStepStartTime": "130942.482000",
      "PhotometricInterpretation": "MONOCHROME2",
      "PixelBandwidth": 2290.0,
      "PixelRepresentation": 0,
      "PixelSpacing": [2.0, 2.0],
      "ProtocolName": "func_task-friends-s05e01b",
      "RepetitionTime": 1490.0,
      "Rows": 832,
      "SAR": 0.0289409268249,
      "SamplesPerPixel": 1,
      "ScanOptions": "FS",
      "ScanningSequence": "EP",
      "SequenceName": "epfid2d1_104",
      "SequenceVariant": [
        "SK",
        "SS"
],
      "SeriesDescription": "func_task-friends-s05e01b",
      "SeriesNumber": 11,
      "SeriesTime": "134128.667000",
      "SliceLocation": -33.442972754933,
      "SliceThickness": 2.0,
      "SmallestImagePixelValue": 0,
      "SoftwareVersions": "syngo MR E11",
      "SpacingBetweenSlices": 1.9999999601282,
      "SpecificCharacterSet": "ISO_IR 100",
      "StudyID": "1",
      "StudyTime": "130942.428000",
      "TransmitCoilName": "Body",
      "VariableFlipAngleFlag": "N",
      "WindowCenterWidthExplanation": "Algo1",
      "dBdt": 0.0},
    "slices": {}
  },
  "time": {
    "samples": {
      "AcquisitionNumber": [1, 2, 3, 4, 5, 6, 7, 8, 9, 10, 11, 12, 13, 14, 15, 16, 17, 18, 19, 20, 21, 22, 23, 24, 25, 26, 27, 28, 29, 30, 31, 32, 33, 34, 35, 36, 37, 38, 39, 40, 41, 42, 43, 44, 45, 46, 47, 48, 49, 50, 51, 52, 53, 54, 55, 56, 57, 58, 59, 60, 61, 62, 63, 64, 65, 66, 67, 68, 69, 70, 71, 72, 73, 74, 75, 76, 77, 78, 79, 80, 81, 82, 83, 84, 85, 86, 87, 88, 89, 90, 91, 92, 93, 94, 95, 96, 97, 98, 99, 100, 101, 102, 103, 104, 105, 106, 107, 108, 109, 110, 111, 112, 113, 114, 115, 116, 117, 118, 119, 120, 121, 122, 123, 124, 125, 126, 127, 128, 129, 130, 131, 132, 133, 134, 135, 136, 137, 138, 139, 140, 141, 142, 143, 144, 145, 146, 147, 148, 149, 150, 151, 152, 153, 154, 155, 156, 157, 158, 159, 160, 161, 162, 163, 164, 165, 166, 167, 168, 169, 170, 171, 172, 173, 174, 175, 176, 177, 178, 179, 180, 181, 182, 183, 184, 185, 186, 187, 188, 189, 190, 191, 192, 193, 194, 195, 196, 197, 198, 199, 200, 201, 202, 203, 204, 205, 206, 207, 208, 209, 210, 211, 212, 213, 214, 215, 216, 217, 218, 219, 220, 221, 222, 223, 224, 225, 226, 227, 228, 229, 230, 231, 232, 233, 234, 235, 236, 237, 238, 239, 240, 241, 242, 243, 244, 245, 246, 247, 248, 249, 250, 251, 252, 253, 254, 255, 256, 257, 258, 259, 260, 261, 262, 263, 264, 265, 266, 267, 268, 269, 270, 271, 272, 273, 274, 275, 276, 277, 278, 279, 280, 281, 282, 283, 284, 285, 286, 287, 288, 289, 290, 291, 292, 293, 294, 295, 296, 297, 298, 299, 300, 301, 302, 303, 304, 305, 306, 307, 308, 309, 310, 311, 312, 313, 314, 315, 316, 317, 318, 319, 320, 321, 322, 323, 324, 325, 326, 327, 328, 329, 330, 331, 332, 333, 334, 335, 336, 337, 338, 339, 340, 341, 342, 343, 344, 345, 346, 347, 348, 349, 350, 351, 352, 353, 354, 355, 356, 357, 358, 359, 360, 361, 362, 363, 364, 365, 366, 367, 368, 369, 370, 371, 372, 373, 374, 375, 376, 377, 378, 379, 380, 381, 382, 383, 384, 385, 386, 387, 388, 389, 390, 391, 392, 393, 394, 395, 396, 397, 398, 399, 400, 401, 402, 403, 404, 405, 406, 407, 408, 409, 410, 411, 412, 413, 414, 415, 416, 417, 418, 419, 420, 421, 422, 423, 424, 425, 426, 427, 428, 429, 430, 431, 432, 433, 434, 435, 436, 437, 438, 439, 440, 441, 442, 443, 444, 445, 446, 447, 448, 449, 450, 451, 452, 453, 454, 455, 456, 457, 458, 459, 460, 461, 462, 463, 464, 465, 466, 467, 468, 469, 470, 471, 472, 473, 474],
      "AcquisitionTime": ["133958.662500", "134000.152500", "134001.642500", "134003.132500", "134004.622500", "134006.112500", "134007.602500", "134009.092500", "134010.582500", "134012.072500", "134013.562500", "134015.052500", "134016.542500", "134018.032500", "134019.522500", "134021.012500", "134022.502500", "134023.992500", "134025.482500", "134026.972500", "134028.462500", "134029.952500", "134031.442500", "134032.932500", "134034.422500", "134035.912500", "134037.402500", "134038.892500", "134040.382500", "134041.872500", "134043.362500", "134044.852500", "134046.342500", "134047.832500", "134049.322500", "134050.812500", "134052.302500", "134053.792500", "134055.282500", "134056.772500", "134058.262500", "134059.752500", "134101.242500", "134102.732500", "134104.222500", "134105.712500", "134107.202500", "134108.692500", "134110.182500", "134111.672500", "134113.162500", "134114.652500", "134116.142500", "134117.632500", "134119.122500", "134120.612500", "134122.102500", "134123.592500", "134125.082500", "134126.572500", "134128.062500", "134129.552500", "134131.042500", "134132.532500", "134134.022500", "134135.512500", "134137.002500", "134138.492500", "134139.982500", "134141.472500", "134142.962500", "134144.452500", "134145.942500", "134147.432500", "134148.922500", "134150.412500", "134151.902500", "134153.392500", "134154.882500", "134156.372500", "134157.862500", "134159.352500", "134200.842500", "134202.332500", "134203.822500", "134205.312500", "134206.802500", "134208.292500", "134209.782500", "134211.272500", "134212.762500", "134214.252500", "134215.742500", "134217.232500", "134218.722500", "134220.212500", "134221.702500", "134223.192500", "134224.682500", "134226.172500", "134227.662500", "134229.152500", "134230.642500", "134232.132500", "134233.622500", "134235.112500", "134236.602500", "134238.092500", "134239.582500", "134241.072500", "134242.562500", "134244.052500", "134245.542500", "134247.032500", "134248.522500", "134250.012500", "134251.502500", "134252.992500", "134254.482500", "134255.972500", "134257.462500", "134258.952500", "134300.442500", "134301.932500", "134303.422500", "134304.912500", "134306.402500", "134307.892500", "134309.382500", "134310.872500", "134312.362500", "134313.852500", "134315.342500", "134316.832500", "134318.322500", "134319.812500", "134321.302500", "134322.792500", "134324.282500", "134325.772500", "134327.262500", "134328.752500", "134330.242500", "134331.732500", "134333.222500", "134334.712500", "134336.202500", "134337.692500", "134339.182500", "134340.672500", "134342.162500", "134343.652500", "134345.142500", "134346.632500", "134348.122500", "134349.612500", "134351.102500", "134352.592500", "134354.082500", "134355.572500", "134357.062500", "134358.552500", "134400.042500", "134401.532500", "134403.022500", "134404.512500", "134406.002500", "134407.492500", "134408.982500", "134410.472500", "134411.962500", "134413.452500", "134414.942500", "134416.432500", "134417.922500", "134419.412500", "134420.902500", "134422.392500", "134423.882500", "134425.372500", "134426.862500", "134428.352500", "134429.842500", "134431.332500", "134432.822500", "134434.312500", "134435.802500", "134437.292500", "134438.782500", "134440.272500", "134441.762500", "134443.252500", "134444.742500", "134446.232500", "134447.722500", "134449.212500", "134450.702500", "134452.192500", "134453.682500", "134455.172500", "134456.662500", "134458.152500", "134459.642500", "134501.132500", "134502.622500", "134504.112500", "134505.602500", "134507.092500", "134508.582500", "134510.072500", "134511.562500", "134513.052500", "134514.542500", "134516.032500", "134517.522500", "134519.012500", "134520.502500", "134521.992500", "134523.482500", "134524.972500", "134526.462500", "134527.952500", "134529.442500", "134530.932500", "134532.422500", "134533.912500", "134535.402500", "134536.892500", "134538.382500", "134539.872500", "134541.362500", "134542.852500", "134544.342500", "134545.832500", "134547.322500", "134548.812500", "134550.302500", "134551.792500", "134553.282500", "134554.772500", "134556.262500", "134557.752500", "134559.242500", "134600.732500", "134602.222500", "134603.712500", "134605.202500", "134606.692500", "134608.182500", "134609.672500", "134611.162500", "134612.652500", "134614.142500", "134615.632500", "134617.122500", "134618.612500", "134620.102500", "134621.592500", "134623.082500", "134624.572500", "134626.062500", "134627.552500", "134629.042500", "134630.532500", "134632.022500", "134633.512500", "134635.002500", "134636.492500", "134637.982500", "134639.472500", "134640.962500", "134642.452500", "134643.942500", "134645.432500", "134646.922500", "134648.412500", "134649.902500", "134651.392500", "134652.882500", "134654.372500", "134655.862500", "134657.352500", "134658.842500", "134700.332500", "134701.822500", "134703.312500", "134704.802500", "134706.292500", "134707.782500", "134709.272500", "134710.762500", "134712.252500", "134713.742500", "134715.232500", "134716.722500", "134718.212500", "134719.702500", "134721.192500", "134722.682500", "134724.172500", "134725.662500", "134727.152500", "134728.642500", "134730.132500", "134731.622500", "134733.112500", "134734.602500", "134736.092500", "134737.582500", "134739.072500", "134740.562500", "134742.052500", "134743.542500", "134745.032500", "134746.522500", "134748.012500", "134749.502500", "134750.992500", "134752.482500", "134753.972500", "134755.462500", "134756.952500", "134758.442500", "134759.932500", "134801.422500", "134802.912500", "134804.402500", "134805.892500", "134807.382500", "134808.872500", "134810.362500", "134811.852500", "134813.342500", "134814.832500", "134816.322500", "134817.812500", "134819.302500", "134820.792500", "134822.282500", "134823.772500", "134825.262500", "134826.752500", "134828.242500", "134829.732500", "134831.222500", "134832.712500", "134834.202500", "134835.692500", "134837.182500", "134838.672500", "134840.162500", "134841.652500", "134843.142500", "134844.632500", "134846.122500", "134847.612500", "134849.102500", "134850.592500", "134852.082500", "134853.572500", "134855.062500", "134856.552500", "134858.042500", "134859.532500", "134901.022500", "134902.512500", "134904.002500", "134905.492500", "134906.982500", "134908.472500", "134909.962500", "134911.452500", "134912.942500", "134914.432500", "134915.922500", "134917.412500", "134918.902500", "134920.392500", "134921.882500", "134923.372500", "134924.862500", "134926.352500", "134927.842500", "134929.332500", "134930.822500", "134932.312500", "134933.802500", "134935.292500", "134936.782500", "134938.272500", "134939.762500", "134941.252500", "134942.742500", "134944.232500", "134945.722500", "134947.212500", "134948.702500", "134950.192500", "134951.682500", "134953.172500", "134954.662500", "134956.152500", "134957.642500", "134959.132500", "135000.622500", "135002.112500", "135003.602500", "135005.092500", "135006.582500", "135008.072500", "135009.562500", "135011.052500", "135012.542500", "135014.032500", "135015.522500", "135017.012500", "135018.502500", "135019.992500", "135021.482500", "135022.972500", "135024.462500", "135025.952500", "135027.442500", "135028.932500", "135030.422500", "135031.912500", "135033.402500", "135034.892500", "135036.382500", "135037.872500", "135039.362500", "135040.852500", "135042.342500", "135043.832500", "135045.322500", "135046.812500", "135048.302500", "135049.792500", "135051.282500", "135052.772500", "135054.262500", "135055.752500", "135057.242500", "135058.732500", "135100.222500", "135101.712500", "135103.202500", "135104.692500", "135106.182500", "135107.672500", "135109.162500", "135110.652500", "135112.142500", "135113.632500", "135115.122500", "135116.612500", "135118.102500", "135119.592500", "135121.082500", "135122.572500", "135124.062500", "135125.552500", "135127.042500", "135128.532500", "135130.022500", "135131.512500", "135133.002500", "135134.492500", "135135.982500", "135137.472500", "135138.962500", "135140.452500", "135141.942500", "135143.432500"],
      "ContentTime": ["134128.669000", "134128.673000", "134128.681000", "134128.684000", "134128.687000", "134128.690000", "134128.693000", "134128.695000", "134128.702000", "134128.705000", "134128.707000", "134128.710000", "134128.713000", "134128.716000", "134128.719000", "134128.722000", "134128.724000", "134128.727000", "134128.730000", "134128.733000", "134128.736000", "134128.738000", "134128.741000", "134128.744000", "134128.757000", "134128.760000", "134128.763000", "134128.766000", "134128.768000", "134128.771000", "134128.774000", "134128.777000", "134128.780000", "134128.783000", "134128.786000", "134128.788000", "134148.638000", "134148.641000", "134148.644000", "134148.647000", "134148.649000", "134148.652000", "134148.655000", "134148.658000", "134148.661000", "134148.669000", "134148.672000", "134148.675000", "134148.678000", "134148.681000", "134148.683000", "134148.686000", "134148.689000", "134148.692000", "134148.695000", "134148.697000", "134208.639000", "134208.642000", "134208.645000", "134208.647000", "134208.650000", "134208.653000", "134208.656000", "134208.659000", "134208.662000", "134208.664000", "134208.667000", "134208.670000", "134208.673000", "134208.676000", "134208.679000", "134208.682000", "134208.684000", "134208.687000", "134208.690000", "134208.693000", "134228.638000", "134228.641000", "134228.644000", "134228.646000", "134228.649000", "134228.652000", "134228.655000", "134228.658000", "134228.660000", "134228.663000", "134228.666000", "134228.669000", "134228.672000", "134228.674000", "134228.677000", "134228.680000", "134228.683000", "134228.686000", "134228.689000", "134228.691000", "134308.638000", "134308.641000", "134308.644000", "134308.646000", "134308.649000", "134308.652000", "134308.655000", "134308.658000", "134308.661000", "134308.664000", "134308.666000", "134308.669000", "134308.672000", "134308.675000", "134308.678000", "134308.680000", "134308.683000", "134308.686000", "134308.689000", "134308.692000", "134308.695000", "134308.697000", "134308.700000", "134308.703000", "134308.707000", "134308.710000", "134308.713000", "134308.715000", "134308.724000", "134308.727000", "134348.638000", "134348.641000", "134348.644000", "134348.662000", "134348.665000", "134348.668000", "134348.671000", "134348.673000", "134348.676000", "134348.679000", "134348.682000", "134348.685000", "134348.687000", "134348.690000", "134348.693000", "134348.696000", "134348.699000", "134348.702000", "134348.711000", "134348.714000", "134348.717000", "134348.720000", "134348.722000", "134348.725000", "134348.728000", "134348.731000", "134348.734000", "134428.639000", "134428.642000", "134428.645000", "134428.648000", "134428.651000", "134428.653000", "134428.656000", "134428.659000", "134428.662000", "134428.665000", "134428.668000", "134428.670000", "134428.673000", "134428.685000", "134428.688000", "134428.691000", "134428.693000", "134428.696000", "134428.699000", "134428.702000", "134428.705000", "134428.708000", "134428.710000", "134428.713000", "134428.716000", "134428.719000", "134428.722000", "134508.638000", "134508.641000", "134508.644000", "134508.647000", "134508.649000", "134508.652000", "134508.655000", "134508.658000", "134508.661000", "134508.664000", "134508.666000", "134508.669000", "134508.672000", "134508.675000", "134508.678000", "134508.681000", "134508.683000", "134508.686000", "134508.689000", "134508.692000", "134508.695000", "134508.698000", "134508.700000", "134508.703000", "134508.706000", "134508.709000", "134508.712000", "134548.638000", "134548.641000", "134548.644000", "134548.647000", "134548.650000", "134548.652000", "134548.655000", "134548.658000", "134548.661000", "134548.664000", "134548.666000", "134548.669000", "134548.672000", "134548.675000", "134548.678000", "134548.681000", "134548.684000", "134548.686000", "134548.689000", "134548.692000", "134548.695000", "134548.698000", "134548.701000", "134548.703000", "134548.711000", "134548.713000", "134548.716000", "134628.639000", "134628.642000", "134628.651000", "134628.654000", "134628.657000", "134628.660000", "134628.662000", "134628.665000", "134628.668000", "134628.671000", "134628.674000", "134628.677000", "134628.679000", "134628.682000", "134628.685000", "134628.688000", "134628.691000", "134628.694000", "134628.697000", "134628.699000", "134628.702000", "134628.705000", "134628.708000", "134628.711000", "134628.714000", "134628.716000", "134628.719000", "134708.638000", "134708.641000", "134708.644000", "134708.647000", "134708.650000", "134708.652000", "134708.655000", "134708.658000", "134708.661000", "134708.664000", "134708.667000", "134708.669000", "134708.672000", "134708.675000", "134708.678000", "134708.681000", "134708.695000", "134708.698000", "134708.701000", "134708.704000", "134708.707000", "134708.710000", "134708.713000", "134708.716000", "134708.718000", "134708.721000", "134748.638000", "134748.641000", "134748.644000", "134748.647000", "134748.660000", "134748.662000", "134748.665000", "134748.668000", "134748.671000", "134748.674000", "134748.677000", "134748.679000", "134748.682000", "134748.685000", "134748.688000", "134748.691000", "134748.694000", "134748.696000", "134748.699000", "134748.702000", "134748.705000", "134748.708000", "134748.710000", "134748.713000", "134748.716000", "134748.719000", "134748.722000", "134828.638000", "134828.641000", "134828.644000", "134828.647000", "134828.650000", "134828.652000", "134828.655000", "134828.658000", "134828.661000", "134828.664000", "134828.667000", "134828.669000", "134828.690000", "134828.693000", "134828.696000", "134828.699000", "134828.702000", "134828.704000", "134828.707000", "134828.710000", "134828.713000", "134828.716000", "134828.719000", "134828.721000", "134828.724000", "134828.727000", "134828.730000", "134908.639000", "134908.642000", "134908.645000", "134908.648000", "134908.650000", "134908.653000", "134908.656000", "134908.659000", "134908.662000", "134908.665000", "134908.667000", "134908.670000", "134908.673000", "134908.676000", "134908.679000", "134908.682000", "134908.685000", "134908.687000", "134908.690000", "134908.693000", "134908.696000", "134908.699000", "134908.702000", "134908.704000", "134908.707000", "134908.710000", "134908.713000", "134948.638000", "134948.641000", "134948.644000", "134948.647000", "134948.650000", "134948.653000", "134948.655000", "134948.658000", "134948.661000", "134948.664000", "134948.667000", "134948.674000", "134948.677000", "134948.680000", "134948.683000", "134948.685000", "134948.688000", "134948.691000", "134948.694000", "134948.697000", "134948.700000", "134948.702000", "134948.705000", "134948.708000", "134948.711000", "134948.714000", "134948.717000", "135028.638000", "135028.641000", "135028.644000", "135028.647000", "135028.649000", "135028.652000", "135028.655000", "135028.658000", "135028.661000", "135028.664000", "135028.667000", "135028.669000", "135028.672000", "135028.675000", "135028.678000", "135028.681000", "135028.684000", "135028.686000", "135028.694000", "135028.697000", "135028.700000", "135028.703000", "135028.706000", "135028.708000", "135028.711000", "135028.714000", "135028.717000", "135108.639000", "135108.642000", "135108.645000", "135108.648000", "135108.650000", "135108.653000", "135108.656000", "135108.659000", "135108.662000", "135108.665000", "135108.667000", "135108.670000", "135108.673000", "135108.676000", "135108.679000", "135108.682000", "135108.685000", "135108.687000", "135108.690000", "135108.693000", "135108.696000", "135108.699000", "135108.702000", "135108.705000", "135108.707000", "135108.710000", "135108.713000", "135145.912000", "135145.915000", "135145.918000", "135145.921000", "135145.924000", "135145.927000", "135145.930000", "135145.932000", "135145.935000", "135145.938000", "135145.941000", "135145.944000", "135145.947000", "135145.950000", "135145.953000", "135145.956000", "135145.959000", "135145.962000", "135145.965000", "135145.968000", "135145.979000", "135145.982000", "135145.985000", "135145.988000", "135145.991000"],
