{
  "AcquisitionMatrixPE": 104,
  "AcquisitionNumber": 1,
  "AcquisitionTime": "13:53:15.607500",
  "BandwidthPerPixelPhaseEncode": 17.17,
  "BaseResolution": 104,
  "BodyPartExamined": "BRAIN",
  "CoilString": "HC1-7;NC1_2",
  "ConsistencyInfo": "N4_VE11C_LATEST_20160120",
  "ConversionSoftware": "dcm2niix",
  "ConversionSoftwareVersion": "v1.0.20190902",
  "DerivedVendorReportedEchoSpacing": 0.000560011,
  "DeviceSerialNumber": "167006",
  "DwellTime": 2.1e-06,
  "EchoTime": 0.037,
  "EchoTrainLength": 104,
  "EffectiveEchoSpacing": 0.000560011,
  "FlipAngle": 52,
  "ImageComments": "Unaliased_MB4_PE3_LB",
  "ImageOrientationPatientDICOM": [0.997929, 0.00239481, -0.0642802, -0.0170704, 0.973335, -0.228751],
  "ImageType": [
    "ORIGINAL",
    "PRIMARY",
    "M",
    "MB",
    "ND",
    "MOSAIC"
],
  "ImagingFrequency": 123.259,
  "InPlanePhaseEncodingDirectionDICOM": "COL",
  "InstitutionAddress": "Chemin_Queen-Mary_4565_Montreal_District_CA_H3W_1W5",
  "InstitutionName": "IUGM",
  "InstitutionalDepartmentName": "Department",
  "MRAcquisitionType": "2D",
  "MagneticFieldStrength": 3,
  "Manufacturer": "Siemens",
  "ManufacturersModelName": "Prisma_fit",
  "Modality": "MR",
  "MultibandAccelerationFactor": 4,
  "PartialFourier": 1,
  "PatientPosition": "HFS",
  "PercentPhaseFOV": 100,
  "PhaseEncodingDirection": "j",
  "PhaseEncodingSteps": 104,
  "PhaseResolution": 1,
  "PixelBandwidth": 2290,
  "ProcedureStepDescription": "video_friends",
  "ProtocolName": "func_task-friends-s05e02a",
  "PulseSequenceDetails": "%CustomerSeq%_cmrr_mbep2d_bold",
  "ReceiveCoilActiveElements": "HC1-7;NC1,2",
  "ReceiveCoilName": "HeadNeck_64",
  "ReconMatrixPE": 104,
  "RepetitionTime": 1.49,
  "SAR": 0.028946,
  "ScanOptions": "FS",
  "ScanningSequence": "EP",
  "SequenceName": "epfid2d1_104",
  "SequenceVariant": "SK_SS",
  "SeriesDescription": "func_task-friends-s05e02a",
  "SeriesNumber": 13,
  "ShimSetting": [596, -7250, -8829, 605, -80, -265, 17, 58],
  "SliceThickness": 2,
  "SliceTiming": [0, 0.7825, 0.0975, 0.8825, 0.195, 0.98, 0.2925, 1.0775, 0.3925, 1.175, 0.49, 1.2725, 0.5875, 1.3725, 0.685, 0, 0.7825, 0.0975, 0.8825, 0.195, 0.98, 0.2925, 1.0775, 0.3925, 1.175, 0.49, 1.2725, 0.5875, 1.3725, 0.685, 0, 0.7825, 0.0975, 0.8825, 0.195, 0.98, 0.2925, 1.0775, 0.3925, 1.175, 0.49, 1.2725, 0.5875, 1.3725, 0.685, 0, 0.7825, 0.0975, 0.8825, 0.195, 0.98, 0.2925, 1.0775, 0.3925, 1.175, 0.49, 1.2725, 0.5875, 1.3725, 0.685],
  "SoftwareVersions": "syngo_MR_E11",
  "SpacingBetweenSlices": 2,
  "StationName": "MRC35049",
  "TaskName": "s05e02a",
  "TotalReadoutTime": 0.0576811,
  "TxRefAmp": 216.35,
  "WipMemBlock": "18824cf2-edd3-4a7e-9f18-b38113f432bf||Sequence: R016 ve11c/master r/e634e98; Dec 19 2017 11:00:25 by eja",
  "dcmmeta_affine": [
    [-1.995858073234558, -0.03414088487625122, -0.12403667718172073, 103.81013488769531],
    [-0.004789622500538826, 1.946670651435852, -0.45874857902526855, -82.68175506591797],
    [-0.12856033444404602, 0.45750147104263306, 1.942720890045166, -47.32528305053711],
    [0.0, 0.0, 0.0, 1.0]
],
  "dcmmeta_reorient_transform": [
    [0.0, -1.0, 0.0, 103.0],
    [1.0, 0.0, 0.0, 0.0],
    [0.0, 0.0, 1.0, 0.0],
    [0.0, 0.0, 0.0, 1.0]
],
  "dcmmeta_shape": [104, 104, 60, 495],
  "dcmmeta_slice_dim": 2,
  "dcmmeta_version": 0.6,
  "global": {
    "const": {
      "AcquisitionMatrix": [104, 0, 0, 104],
      "AngioFlag": "N",
      "BitsAllocated": 16,
      "BitsStored": 16,
      "BodyPartExamined": "BRAIN",
      "Columns": 832,
      "EchoNumbers": 1,
      "EchoTime": 37.0,
      "EchoTrainLength": 104,
      "FlipAngle": 52.0,
      "HighBit": 15,
      "ImageOrientationPatient": [0.99792901817077, 0.00239481134904, -0.0642801646803, -0.017070442082, 0.97333534862493, -0.2287507357897],
      "ImagePositionPatient": [-814.35866770048, -828.15688312825, 213.12386418977],
      "ImageType": [
        "ORIGINAL",
        "PRIMARY",
        "M",
        "MB",
        "ND",
        "MOSAIC"
],
      "ImagedNucleus": "1H",
      "ImagingFrequency": 123.258988,
      "InPlanePhaseEncodingDirection": "COL",
      "MRAcquisitionType": "2D",
      "MagneticFieldStrength": 3.0,
      "Manufacturer": "SIEMENS",
      "ManufacturerModelName": "Prisma_fit",
      "Modality": "MR",
      "NumberOfAverages": 1.0,
      "NumberOfPhaseEncodingSteps": 104,
      "PercentPhaseFieldOfView": 100.0,
      "PercentSampling": 100.0,
      "PerformedProcedureStepStartTime": "130942.482000",
      "PhotometricInterpretation": "MONOCHROME2",
      "PixelBandwidth": 2290.0,
      "PixelRepresentation": 0,
      "PixelSpacing": [2.0, 2.0],
      "ProtocolName": "func_task-friends-s05e02a",
      "RepetitionTime": 1490.0,
      "Rows": 832,
      "SAR": 0.02894604885386,
      "SamplesPerPixel": 1,
      "ScanOptions": "FS",
      "ScanningSequence": "EP",
      "SequenceName": "epfid2d1_104",
      "SequenceVariant": [
        "SK",
        "SS"
],
      "SeriesDescription": "func_task-friends-s05e02a",
      "SeriesNumber": 13,
      "SeriesTime": "135442.753000",
      "SliceLocation": -33.442972754933,
      "SliceThickness": 2.0,
      "SmallestImagePixelValue": 0,
      "SoftwareVersions": "syngo MR E11",
      "SpacingBetweenSlices": 1.9999999601282,
      "SpecificCharacterSet": "ISO_IR 100",
      "StudyID": "1",
      "StudyTime": "130942.428000",
      "TransmitCoilName": "Body",
      "VariableFlipAngleFlag": "N",
      "WindowCenterWidthExplanation": "Algo1",
      "dBdt": 0.0},
    "slices": {}
  },
  "time": {
    "samples": {
      "AcquisitionNumber": [1, 2, 3, 4, 5, 6, 7, 8, 9, 10, 11, 12, 13, 14, 15, 16, 17, 18, 19, 20, 21, 22, 23, 24, 25, 26, 27, 28, 29, 30, 31, 32, 33, 34, 35, 36, 37, 38, 39, 40, 41, 42, 43, 44, 45, 46, 47, 48, 49, 50, 51, 52, 53, 54, 55, 56, 57, 58, 59, 60, 61, 62, 63, 64, 65, 66, 67, 68, 69, 70, 71, 72, 73, 74, 75, 76, 77, 78, 79, 80, 81, 82, 83, 84, 85, 86, 87, 88, 89, 90, 91, 92, 93, 94, 95, 96, 97, 98, 99, 100, 101, 102, 103, 104, 105, 106, 107, 108, 109, 110, 111, 112, 113, 114, 115, 116, 117, 118, 119, 120, 121, 122, 123, 124, 125, 126, 127, 128, 129, 130, 131, 132, 133, 134, 135, 136, 137, 138, 139, 140, 141, 142, 143, 144, 145, 146, 147, 148, 149, 150, 151, 152, 153, 154, 155, 156, 157, 158, 159, 160, 161, 162, 163, 164, 165, 166, 167, 168, 169, 170, 171, 172, 173, 174, 175, 176, 177, 178, 179, 180, 181, 182, 183, 184, 185, 186, 187, 188, 189, 190, 191, 192, 193, 194, 195, 196, 197, 198, 199, 200, 201, 202, 203, 204, 205, 206, 207, 208, 209, 210, 211, 212, 213, 214, 215, 216, 217, 218, 219, 220, 221, 222, 223, 224, 225, 226, 227, 228, 229, 230, 231, 232, 233, 234, 235, 236, 237, 238, 239, 240, 241, 242, 243, 244, 245, 246, 247, 248, 249, 250, 251, 252, 253, 254, 255, 256, 257, 258, 259, 260, 261, 262, 263, 264, 265, 266, 267, 268, 269, 270, 271, 272, 273, 274, 275, 276, 277, 278, 279, 280, 281, 282, 283, 284, 285, 286, 287, 288, 289, 290, 291, 292, 293, 294, 295, 296, 297, 298, 299, 300, 301, 302, 303, 304, 305, 306, 307, 308, 309, 310, 311, 312, 313, 314, 315, 316, 317, 318, 319, 320, 321, 322, 323, 324, 325, 326, 327, 328, 329, 330, 331, 332, 333, 334, 335, 336, 337, 338, 339, 340, 341, 342, 343, 344, 345, 346, 347, 348, 349, 350, 351, 352, 353, 354, 355, 356, 357, 358, 359, 360, 361, 362, 363, 364, 365, 366, 367, 368, 369, 370, 371, 372, 373, 374, 375, 376, 377, 378, 379, 380, 381, 382, 383, 384, 385, 386, 387, 388, 389, 390, 391, 392, 393, 394, 395, 396, 397, 398, 399, 400, 401, 402, 403, 404, 405, 406, 407, 408, 409, 410, 411, 412, 413, 414, 415, 416, 417, 418, 419, 420, 421, 422, 423, 424, 425, 426, 427, 428, 429, 430, 431, 432, 433, 434, 435, 436, 437, 438, 439, 440, 441, 442, 443, 444, 445, 446, 447, 448, 449, 450, 451, 452, 453, 454, 455, 456, 457, 458, 459, 460, 461, 462, 463, 464, 465, 466, 467, 468, 469, 470, 471, 472, 473, 474, 475, 476, 477, 478, 479, 480, 481, 482, 483, 484, 485, 486, 487, 488, 489, 490, 491, 492, 493, 494, 495],
      "AcquisitionTime": ["135315.607500", "135317.097500", "135318.587500", "135320.077500", "135321.567500", "135323.057500", "135324.547500", "135326.037500", "135327.527500", "135329.017500", "135330.507500", "135331.997500", "135333.487500", "135334.977500", "135336.467500", "135337.957500", "135339.447500", "135340.937500", "135342.427500", "135343.917500", "135345.407500", "135346.897500", "135348.387500", "135349.877500", "135351.367500", "135352.857500", "135354.347500", "135355.837500", "135357.327500", "135358.817500", "135400.307500", "135401.797500", "135403.287500", "135404.777500", "135406.267500", "135407.757500", "135409.247500", "135410.737500", "135412.227500", "135413.717500", "135415.207500", "135416.697500", "135418.187500", "135419.677500", "135421.167500", "135422.657500", "135424.147500", "135425.637500", "135427.127500", "135428.617500", "135430.107500", "135431.597500", "135433.087500", "135434.577500", "135436.067500", "135437.557500", "135439.047500", "135440.537500", "135442.027500", "135443.517500", "135445.007500", "135446.497500", "135447.987500", "135449.477500", "135450.967500", "135452.457500", "135453.947500", "135455.437500", "135456.927500", "135458.417500", "135459.907500", "135501.397500", "135502.887500", "135504.377500", "135505.867500", "135507.357500", "135508.847500", "135510.337500", "135511.827500", "135513.317500", "135514.807500", "135516.297500", "135517.787500", "135519.277500", "135520.767500", "135522.257500", "135523.747500", "135525.237500", "135526.727500", "135528.217500", "135529.707500", "135531.197500", "135532.687500", "135534.177500", "135535.667500", "135537.157500", "135538.647500", "135540.137500", "135541.627500", "135543.117500", "135544.607500", "135546.097500", "135547.587500", "135549.077500", "135550.567500", "135552.057500", "135553.547500", "135555.037500", "135556.527500", "135558.017500", "135559.507500", "135600.997500", "135602.487500", "135603.977500", "135605.467500", "135606.957500", "135608.447500", "135609.937500", "135611.427500", "135612.917500", "135614.407500", "135615.897500", "135617.387500", "135618.877500", "135620.367500", "135621.857500", "135623.347500", "135624.837500", "135626.327500", "135627.817500", "135629.307500", "135630.797500", "135632.287500", "135633.777500", "135635.267500", "135636.757500", "135638.247500", "135639.737500", "135641.227500", "135642.717500", "135644.207500", "135645.697500", "135647.187500", "135648.677500", "135650.167500", "135651.657500", "135653.147500", "135654.637500", "135656.127500", "135657.617500", "135659.107500", "135700.597500", "135702.087500", "135703.577500", "135705.067500", "135706.557500", "135708.047500", "135709.537500", "135711.027500", "135712.517500", "135714.007500", "135715.497500", "135716.987500", "135718.477500", "135719.967500", "135721.457500", "135722.947500", "135724.437500", "135725.927500", "135727.417500", "135728.907500", "135730.397500", "135731.887500", "135733.377500", "135734.867500", "135736.357500", "135737.847500", "135739.337500", "135740.827500", "135742.317500", "135743.807500", "135745.297500", "135746.787500", "135748.277500", "135749.767500", "135751.257500", "135752.747500", "135754.237500", "135755.727500", "135757.217500", "135758.707500", "135800.197500", "135801.687500", "135803.177500", "135804.667500", "135806.157500", "135807.647500", "135809.137500", "135810.627500", "135812.117500", "135813.607500", "135815.097500", "135816.587500", "135818.077500", "135819.567500", "135821.057500", "135822.547500", "135824.037500", "135825.527500", "135827.017500", "135828.507500", "135829.997500", "135831.487500", "135832.977500", "135834.467500", "135835.957500", "135837.447500", "135838.937500", "135840.427500", "135841.917500", "135843.407500", "135844.897500", "135846.387500", "135847.877500", "135849.367500", "135850.857500", "135852.347500", "135853.837500", "135855.327500", "135856.817500", "135858.307500", "135859.797500", "135901.287500", "135902.777500", "135904.267500", "135905.757500", "135907.247500", "135908.737500", "135910.227500", "135911.717500", "135913.207500", "135914.697500", "135916.187500", "135917.677500", "135919.167500", "135920.657500", "135922.147500", "135923.637500", "135925.127500", "135926.617500", "135928.107500", "135929.597500", "135931.087500", "135932.577500", "135934.067500", "135935.557500", "135937.047500", "135938.537500", "135940.027500", "135941.517500", "135943.007500", "135944.497500", "135945.987500", "135947.477500", "135948.967500", "135950.457500", "135951.947500", "135953.437500", "135954.927500", "135956.417500", "135957.907500", "135959.397500", "140000.887500", "140002.377500", "140003.867500", "140005.357500", "140006.847500", "140008.337500", "140009.827500", "140011.317500", "140012.807500", "140014.297500", "140015.787500", "140017.277500", "140018.767500", "140020.257500", "140021.747500", "140023.237500", "140024.727500", "140026.217500", "140027.707500", "140029.197500", "140030.687500", "140032.177500", "140033.667500", "140035.157500", "140036.647500", "140038.137500", "140039.627500", "140041.117500", "140042.607500", "140044.097500", "140045.587500", "140047.077500", "140048.567500", "140050.057500", "140051.547500", "140053.037500", "140054.527500", "140056.017500", "140057.507500", "140058.997500", "140100.487500", "140101.977500", "140103.467500", "140104.957500", "140106.447500", "140107.937500", "140109.427500", "140110.917500", "140112.407500", "140113.897500", "140115.387500", "140116.877500", "140118.367500", "140119.857500", "140121.347500", "140122.837500", "140124.327500", "140125.817500", "140127.307500", "140128.797500", "140130.287500", "140131.777500", "140133.267500", "140134.757500", "140136.247500", "140137.737500", "140139.227500", "140140.717500", "140142.207500", "140143.697500", "140145.187500", "140146.677500", "140148.167500", "140149.657500", "140151.147500", "140152.637500", "140154.127500", "140155.617500", "140157.107500", "140158.597500", "140200.087500", "140201.577500", "140203.067500", "140204.557500", "140206.047500", "140207.537500", "140209.027500", "140210.517500", "140212.007500", "140213.497500", "140214.987500", "140216.477500", "140217.967500", "140219.457500", "140220.947500", "140222.437500", "140223.927500", "140225.417500", "140226.907500", "140228.397500", "140229.887500", "140231.377500", "140232.867500", "140234.357500", "140235.847500", "140237.337500", "140238.827500", "140240.317500", "140241.807500", "140243.297500", "140244.787500", "140246.277500", "140247.767500", "140249.257500", "140250.747500", "140252.237500", "140253.727500", "140255.217500", "140256.707500", "140258.197500", "140259.687500", "140301.177500", "140302.667500", "140304.157500", "140305.647500", "140307.137500", "140308.627500", "140310.117500", "140311.607500", "140313.097500", "140314.587500", "140316.077500", "140317.567500", "140319.057500", "140320.547500", "140322.037500", "140323.527500", "140325.017500", "140326.507500", "140327.997500", "140329.487500", "140330.977500", "140332.467500", "140333.957500", "140335.447500", "140336.937500", "140338.427500", "140339.917500", "140341.407500", "140342.897500", "140344.387500", "140345.877500", "140347.367500", "140348.857500", "140350.347500", "140351.837500", "140353.327500", "140354.817500", "140356.307500", "140357.797500", "140359.287500", "140400.777500", "140402.267500", "140403.757500", "140405.247500", "140406.737500", "140408.227500", "140409.717500", "140411.207500", "140412.697500", "140414.187500", "140415.677500", "140417.167500", "140418.657500", "140420.147500", "140421.637500", "140423.127500", "140424.617500", "140426.107500", "140427.597500", "140429.087500", "140430.577500", "140432.067500", "140433.557500", "140435.047500", "140436.537500", "140438.027500", "140439.517500", "140441.007500", "140442.497500", "140443.987500", "140445.477500", "140446.967500", "140448.457500", "140449.947500", "140451.437500", "140452.927500", "140454.417500", "140455.907500", "140457.397500", "140458.887500", "140500.377500", "140501.867500", "140503.357500", "140504.847500", "140506.337500", "140507.827500", "140509.317500", "140510.807500", "140512.297500", "140513.787500", "140515.277500", "140516.767500", "140518.257500", "140519.747500", "140521.237500", "140522.727500", "140524.217500", "140525.707500", "140527.197500", "140528.687500", "140530.177500", "140531.667500"],
      "ContentTime": ["135442.758000", "135442.761000", "135442.764000", "135442.767000", "135442.770000", "135442.773000", "135442.775000", "135442.778000", "135442.781000", "135442.784000", "135442.787000", "135442.812000", "135442.816000", "135442.818000", "135442.821000", "135442.824000", "135442.827000", "135442.830000", "135442.833000", "135442.835000", "135442.843000", "135442.846000", "135442.848000", "135442.851000", "135442.854000", "135442.857000", "135442.860000", "135442.863000", "135442.865000", "135442.868000", "135442.871000", "135442.874000", "135442.877000", "135502.717000", "135502.720000", "135502.723000", "135502.726000", "135502.728000", "135502.731000", "135502.734000", "135502.737000", "135502.740000", "135502.743000", "135502.745000", "135502.748000", "135502.751000", "135502.754000", "135502.757000", "135502.759000", "135502.762000", "135502.791000", "135502.794000", "135502.796000", "135522.716000", "135522.725000", "135522.727000", "135522.730000", "135522.733000", "135522.736000", "135522.739000", "135522.742000", "135522.744000", "135522.747000", "135522.750000", "135522.753000", "135522.756000", "135522.758000", "135522.761000", "135522.764000", "135522.767000", "135522.770000", "135522.773000", "135522.776000", "135542.716000", "135542.719000", "135542.722000", "135542.724000", "135542.727000", "135542.730000", "135542.733000", "135542.736000", "135542.739000", "135542.741000", "135542.744000", "135542.747000", "135542.750000", "135542.753000", "135542.761000", "135542.764000", "135542.767000", "135542.770000", "135542.773000", "135542.776000", "135622.716000", "135622.719000", "135622.722000", "135622.725000", "135622.728000", "135622.737000", "135622.740000", "135622.743000", "135622.746000", "135622.748000", "135622.751000", "135622.754000", "135622.757000", "135622.760000", "135622.763000", "135622.766000", "135622.769000", "135622.771000", "135622.774000", "135622.777000", "135622.780000", "135622.783000", "135622.785000", "135622.788000", "135622.791000", "135622.794000", "135622.797000", "135622.800000", "135622.802000", "135622.805000", "135622.808000", "135702.717000", "135702.720000", "135702.723000", "135702.725000", "135702.728000", "135702.731000", "135702.734000", "135702.741000", "135702.744000", "135702.747000", "135702.749000", "135702.752000", "135702.755000", "135702.758000", "135702.761000", "135702.764000", "135702.766000", "135702.769000", "135702.772000", "135702.775000", "135702.778000", "135702.781000", "135702.783000", "135702.786000", "135702.789000", "135702.792000", "135702.795000", "135742.716000", "135742.719000", "135742.722000", "135742.725000", "135742.727000", "135742.730000", "135742.733000", "135742.736000", "135742.739000", "135742.741000", "135742.744000", "135742.747000", "135742.750000", "135742.753000", "135742.756000", "135742.758000", "135742.761000", "135742.764000", "135742.767000", "135742.770000", "135742.773000", "135742.775000", "135742.778000", "135742.781000", "135742.784000", "135742.787000", "135742.790000", "135822.716000", "135822.719000", "135822.722000", "135822.725000", "135822.728000", "135822.730000", "135822.733000", "135822.736000", "135822.739000", "135822.742000", "135822.745000", "135822.747000", "135822.750000", "135822.753000", "135822.756000", "135822.759000", "135822.762000", "135822.764000", "135822.767000", "135822.795000", "135822.798000", "135822.801000", "135822.804000", "135822.806000", "135822.809000", "135822.812000", "135822.815000", "135902.717000", "135902.720000", "135902.723000", "135902.737000", "135902.740000", "135902.743000", "135902.745000", "135902.748000", "135902.751000", "135902.754000", "135902.757000", "135902.760000", "135902.762000", "135902.765000", "135902.768000", "135902.771000", "135902.774000", "135902.777000", "135902.782000", "135902.785000", "135902.788000", "135902.791000", "135902.793000", "135902.796000", "135902.799000", "135902.802000", "135902.805000", "135942.717000", "135942.720000", "135942.723000", "135942.726000", "135942.729000", "135942.731000", "135942.734000", "135942.737000", "135942.740000", "135942.743000", "135942.746000", "135942.748000", "135942.751000", "135942.754000", "135942.757000", "135942.760000", "135942.763000", "135942.765000", "135942.768000", "135942.771000", "135942.774000", "135942.777000", "135942.780000", "135942.782000", "135942.785000", "135942.788000", "135942.791000", "140022.716000", "140022.719000", "140022.722000", "140022.725000", "140022.727000", "140022.730000", "140022.733000", "140022.736000", "140022.739000", "140022.742000", "140022.744000", "140022.747000", "140022.750000", "140022.753000", "140022.756000", "140022.763000", "140022.765000", "140022.768000", "140022.771000", "140022.774000", "140022.777000", "140022.780000", "140022.782000", "140022.785000", "140022.788000", "140022.791000", "140022.794000", "140102.716000", "140102.719000", "140102.722000", "140102.725000", "140102.729000", "140102.731000", "140102.734000", "140102.737000", "140102.740000", "140102.743000", "140102.746000", "140102.748000", "140102.751000", "140102.754000", "140102.757000", "140102.760000", "140102.763000", "140102.765000", "140102.768000", "140102.784000", "140102.787000", "140102.790000", "140102.793000", "140102.796000", "140102.798000", "140102.801000", "140142.717000", "140142.720000", "140142.723000", "140142.725000", "140142.728000", "140142.731000", "140142.734000", "140142.737000", "140142.740000", "140142.742000", "140142.745000", "140142.748000", "140142.751000", "140142.754000", "140142.757000", "140142.760000", "140142.762000", "140142.765000", "140142.768000", "140142.771000", "140142.774000", "140142.777000", "140142.779000", "140142.782000", "140142.785000", "140142.788000", "140142.791000", "140222.716000", "140222.719000", "140222.722000", "140222.725000", "140222.728000", "140222.730000", "140222.733000", "140222.736000", "140222.739000", "140222.742000", "140222.745000", "140222.748000", "140222.750000", "140222.753000", "140222.756000", "140222.759000", "140222.762000", "140222.765000", "140222.768000", "140222.770000", "140222.773000", "140222.776000", "140222.779000", "140222.782000", "140222.784000", "140222.787000", "140222.790000", "140302.716000", "140302.719000", "140302.722000", "140302.725000", "140302.727000", "140302.730000", "140302.733000", "140302.736000", "140302.739000", "140302.742000", "140302.744000", "140302.747000", "140302.750000", "140302.753000", "140302.756000", "140302.759000", "140302.762000", "140302.764000", "140302.767000", "140302.770000", "140302.773000", "140302.776000", "140302.779000", "140302.782000", "140302.784000", "140302.787000", "140302.790000", "140342.717000", "140342.720000", "140342.723000", "140342.725000", "140342.728000", "140342.731000", "140342.734000", "140342.737000", "140342.740000", "140342.743000", "140342.745000", "140342.748000", "140342.751000", "140342.754000", "140342.757000", "140342.760000", "140342.762000", "140342.765000", "140342.768000", "140342.784000", "140342.786000", "140342.789000", "140342.792000", "140342.795000", "140342.798000", "140342.800000", "140342.803000", "140422.717000", "140422.720000", "140422.723000", "140422.726000", "140422.728000", "140422.731000", "140422.734000", "140422.737000", "140422.740000", "140422.743000", "140422.746000", "140422.748000", "140422.751000", "140422.754000", "140422.757000", "140422.760000", "140422.763000", "140422.766000", "140422.768000", "140422.771000", "140422.774000", "140422.777000", "140422.780000", "140422.783000", "140422.785000", "140422.788000", "140422.791000", "140442.716000", "140442.719000", "140442.722000", "140442.725000", "140442.728000", "140442.730000", "140442.733000", "140442.736000", "140442.739000", "140442.742000", "140442.745000", "140442.747000", "140442.750000", "140522.716000", "140522.719000", "140522.722000", "140522.725000", "140522.727000", "140522.730000", "140522.733000", "140522.736000", "140522.739000", "140522.742000", "140522.745000", "140522.747000", "140522.750000", "140522.753000", "140522.756000", "140522.759000", "140522.762000", "140522.764000", "140522.767000", "140522.779000", "140522.782000", "140522.784000", "140522.787000", "140522.790000", "140522.793000", "140522.796000", "140522.799000", "140534.066000", "140534.069000", "140534.072000", "140534.075000", "140534.078000", "140534.081000", "140534.084000", "140534.087000"],
