{
  "AcquisitionMatrixPE": 104,
  "AcquisitionNumber": 1,
  "AcquisitionTime": "16:43:51.167500",
  "BandwidthPerPixelPhaseEncode": 17.17,
  "BaseResolution": 104,
  "BodyPartExamined": "BRAIN",
  "CoilCombinationMethod": "Sum of Squares",
  "ConsistencyInfo": "N4_VE11C_LATEST_20160120",
  "ConversionSoftware": "dcm2niix",
  "ConversionSoftwareVersion": "v1.0.20230411",
  "DerivedVendorReportedEchoSpacing": 0.000560011,
  "DeviceSerialNumber": "167006",
  "DwellTime": 2.1e-06,
  "EchoTime": 0.037,
  "EchoTrainLength": 104,
  "EffectiveEchoSpacing": 0.000560011,
  "FlipAngle": 52,
  "HeudiconvVersion": "0.5.3.post861+ge7d3c7f",
  "ImageComments": "Unaliased MB4/PE3/LB",
  "ImageOrientationPatientDICOM": [0.999803, 0.0192069, -0.00506368, -0.018848, 0.836907, -0.54702],
  "ImageOrientationText": "Tra>Cor(-33.2)>Sag(0.4)",
  "ImageType": [
    "ORIGINAL",
    "PRIMARY",
    "M",
    "MB",
    "ND",
    "MOSAIC"
],
  "ImagingFrequency": 123.249585,
  "InPlanePhaseEncodingDirectionDICOM": "COL",
  "InstitutionAddress": "Chemin Queen-Mary 4565,Montreal,District,CA,H3W 1W5",
  "InstitutionName": "IUGM",
  "InstitutionalDepartmentName": "Department",
  "MRAcquisitionType": "2D",
  "MagneticFieldStrength": 3,
  "Manufacturer": "Siemens",
  "ManufacturersModelName": "Prisma_fit",
  "MatrixCoilMode": "SENSE",
  "Modality": "MR",
  "MultibandAccelerationFactor": 4,
  "NonlinearGradientCorrection": false,
  "PartialFourier": 1,
  "PatientPosition": "HFS",
  "PercentPhaseFOV": 100,
  "PercentSampling": 100,
  "PhaseEncodingDirection": "j",
  "PhaseEncodingSteps": 104,
  "PhaseResolution": 1,
  "PixelBandwidth": 2290,
  "ProcedureStepDescription": "video^friends",
  "ProtocolName": "func_task-friends-s07e13b",
  "PulseSequenceDetails": "%CustomerSeq%\\cmrr_mbep2d_bold",
  "ReceiveCoilActiveElements": "HC1-7;NC1,2",
  "ReceiveCoilName": "HeadNeck_64",
  "ReconMatrixPE": 104,
  "RepetitionTime": 1.49,
  "SAR": 0.0560733,
  "ScanOptions": "FS",
  "ScanningSequence": "EP",
  "SequenceName": "epfid2d1_104",
  "SequenceVariant": "SK\\SS",
  "SeriesDescription": "func_task-friends-s07e13b",
  "SeriesNumber": 18,
  "ShimSetting": [591, -7207, -8848, 245, 14, -157, -128, 77],
  "SliceThickness": 2,
  "SliceTiming": [0, 0.7825, 0.0975, 0.8825, 0.195, 0.98, 0.2925, 1.0775, 0.3925, 1.175, 0.49, 1.2725, 0.5875, 1.3725, 0.685, 0, 0.7825, 0.0975, 0.8825, 0.195, 0.98, 0.2925, 1.0775, 0.3925, 1.175, 0.49, 1.2725, 0.5875, 1.3725, 0.685, 0, 0.7825, 0.0975, 0.8825, 0.195, 0.98, 0.2925, 1.0775, 0.3925, 1.175, 0.49, 1.2725, 0.5875, 1.3725, 0.685, 0, 0.7825, 0.0975, 0.8825, 0.195, 0.98, 0.2925, 1.0775, 0.3925, 1.175, 0.49, 1.2725, 0.5875, 1.3725, 0.685],
  "SoftwareVersions": "syngo MR E11",
  "SpacingBetweenSlices": 2,
  "StationName": "MRC35049",
  "TaskName": "s07e13b",
  "TotalReadoutTime": 0.0576811,
  "TxRefAmp": 277.782,
  "WipMemBlock": "d7509872-2aa7-437d-8e4e-5e904bb5d135||Sequence: R017 ve11c/master r/75a17815+; Jun 28 2022 16:32:11 by eja",
  "dcmmeta_affine": [
    [-1.999605417251587, -0.037696078419685364, 0.012537465430796146, 105.15367889404297],
    [-0.03841378539800644, 1.673814058303833, -1.0940159559249878, -52.54945755004883],
    [-0.010127364657819271, 1.0940409898757935, 1.6742078065872192, -85.5425033569336],
    [0.0, 0.0, 0.0, 1.0]
],
  "dcmmeta_reorient_transform": [
    [0.0, -1.0, 0.0, 103.0],
    [1.0, 0.0, 0.0, 0.0],
    [0.0, 0.0, 1.0, 0.0],
    [0.0, 0.0, 0.0, 1.0]
],
  "dcmmeta_shape": [104, 104, 60, 574],
  "dcmmeta_slice_dim": 2,
  "dcmmeta_version": 0.6,
  "global": {
    "const": {
      "AcquisitionMatrix": [104, 0, 0, 104],
      "AngioFlag": "N",
      "BitsAllocated": 16,
      "BitsStored": 16,
      "BodyPartExamined": "BRAIN",
      "Columns": 832,
      "EchoNumbers": 1,
      "EchoTime": 37.0,
      "EchoTrainLength": 104,
      "FlipAngle": 52.0,
      "HighBit": 15,
      "ImageOrientationPatient": [0.99980270772948, 0.019206892943, -0.0050636824824, -0.0188480398636, 0.83690700242835, -0.5470204938388],
      "ImagePositionPatient": [-815.40598239676, -743.10430016405, 429.06100155719],
      "ImageType": [
        "ORIGINAL",
        "PRIMARY",
        "M",
        "MB",
        "ND",
        "MOSAIC"
],
      "ImagedNucleus": "1H",
      "ImagingFrequency": 123.249585,
      "InPlanePhaseEncodingDirection": "COL",
      "MRAcquisitionType": "2D",
      "MagneticFieldStrength": 3.0,
      "Manufacturer": "SIEMENS",
      "ManufacturerModelName": "Prisma_fit",
      "Modality": "MR",
      "NumberOfAverages": 1.0,
      "NumberOfPhaseEncodingSteps": 104,
      "PercentPhaseFieldOfView": 100.0,
      "PercentSampling": 100.0,
      "PerformedProcedureStepStartTime": "161941.033000",
      "PhotometricInterpretation": "MONOCHROME2",
      "PixelBandwidth": 2290.0,
      "PixelRepresentation": 0,
      "PixelSpacing": [2.0, 2.0],
      "ProtocolName": "func_task-friends-s07e13b",
      "RepetitionTime": 1490.0,
      "Rows": 832,
      "SAR": 0.05607333428582,
      "SamplesPerPixel": 1,
      "ScanOptions": "FS",
      "ScanningSequence": "EP",
      "SequenceName": "epfid2d1_104",
      "SequenceVariant": [
        "SK",
        "SS"
],
      "SeriesDescription": "func_task-friends-s07e13b",
      "SeriesNumber": 18,
      "SeriesTime": "164516.586000",
      "SliceLocation": -42.203805834137,
      "SliceThickness": 2.0,
      "SmallestImagePixelValue": 0,
      "SoftwareVersions": "syngo MR E11",
      "SpacingBetweenSlices": 1.9999999723384,
      "SpecificCharacterSet": "ISO_IR 100",
      "StudyID": "1",
      "StudyTime": "161940.897000",
      "TransmitCoilName": "Body",
      "VariableFlipAngleFlag": "N",
      "WindowCenterWidthExplanation": "Algo1",
      "dBdt": 0.0},
    "slices": {}
  },
  "time": {
    "samples": {
      "AcquisitionNumber": [1, 2, 3, 4, 5, 6, 7, 8, 9, 10, 11, 12, 13, 14, 15, 16, 17, 18, 19, 20, 21, 22, 23, 24, 25, 26, 27, 28, 29, 30, 31, 32, 33, 34, 35, 36, 37, 38, 39, 40, 41, 42, 43, 44, 45, 46, 47, 48, 49, 50, 51, 52, 53, 54, 55, 56, 57, 58, 59, 60, 61, 62, 63, 64, 65, 66, 67, 68, 69, 70, 71, 72, 73, 74, 75, 76, 77, 78, 79, 80, 81, 82, 83, 84, 85, 86, 87, 88, 89, 90, 91, 92, 93, 94, 95, 96, 97, 98, 99, 100, 101, 102, 103, 104, 105, 106, 107, 108, 109, 110, 111, 112, 113, 114, 115, 116, 117, 118, 119, 120, 121, 122, 123, 124, 125, 126, 127, 128, 129, 130, 131, 132, 133, 134, 135, 136, 137, 138, 139, 140, 141, 142, 143, 144, 145, 146, 147, 148, 149, 150, 151, 152, 153, 154, 155, 156, 157, 158, 159, 160, 161, 162, 163, 164, 165, 166, 167, 168, 169, 170, 171, 172, 173, 174, 175, 176, 177, 178, 179, 180, 181, 182, 183, 184, 185, 186, 187, 188, 189, 190, 191, 192, 193, 194, 195, 196, 197, 198, 199, 200, 201, 202, 203, 204, 205, 206, 207, 208, 209, 210, 211, 212, 213, 214, 215, 216, 217, 218, 219, 220, 221, 222, 223, 224, 225, 226, 227, 228, 229, 230, 231, 232, 233, 234, 235, 236, 237, 238, 239, 240, 241, 242, 243, 244, 245, 246, 247, 248, 249, 250, 251, 252, 253, 254, 255, 256, 257, 258, 259, 260, 261, 262, 263, 264, 265, 266, 267, 268, 269, 270, 271, 272, 273, 274, 275, 276, 277, 278, 279, 280, 281, 282, 283, 284, 285, 286, 287, 288, 289, 290, 291, 292, 293, 294, 295, 296, 297, 298, 299, 300, 301, 302, 303, 304, 305, 306, 307, 308, 309, 310, 311, 312, 313, 314, 315, 316, 317, 318, 319, 320, 321, 322, 323, 324, 325, 326, 327, 328, 329, 330, 331, 332, 333, 334, 335, 336, 337, 338, 339, 340, 341, 342, 343, 344, 345, 346, 347, 348, 349, 350, 351, 352, 353, 354, 355, 356, 357, 358, 359, 360, 361, 362, 363, 364, 365, 366, 367, 368, 369, 370, 371, 372, 373, 374, 375, 376, 377, 378, 379, 380, 381, 382, 383, 384, 385, 386, 387, 388, 389, 390, 391, 392, 393, 394, 395, 396, 397, 398, 399, 400, 401, 402, 403, 404, 405, 406, 407, 408, 409, 410, 411, 412, 413, 414, 415, 416, 417, 418, 419, 420, 421, 422, 423, 424, 425, 426, 427, 428, 429, 430, 431, 432, 433, 434, 435, 436, 437, 438, 439, 440, 441, 442, 443, 444, 445, 446, 447, 448, 449, 450, 451, 452, 453, 454, 455, 456, 457, 458, 459, 460, 461, 462, 463, 464, 465, 466, 467, 468, 469, 470, 471, 472, 473, 474, 475, 476, 477, 478, 479, 480, 481, 482, 483, 484, 485, 486, 487, 488, 489, 490, 491, 492, 493, 494, 495, 496, 497, 498, 499, 500, 501, 502, 503, 504, 505, 506, 507, 508, 509, 510, 511, 512, 513, 514, 515, 516, 517, 518, 519, 520, 521, 522, 523, 524, 525, 526, 527, 528, 529, 530, 531, 532, 533, 534, 535, 536, 537, 538, 539, 540, 541, 542, 543, 544, 545, 546, 547, 548, 549, 550, 551, 552, 553, 554, 555, 556, 557, 558, 559, 560, 561, 562, 563, 564, 565, 566, 567, 568, 569, 570, 571, 572, 573, 574],
      "AcquisitionTime": ["164351.167500", "164352.657500", "164354.147500", "164355.637500", "164357.127500", "164358.617500", "164400.107500", "164401.597500", "164403.087500", "164404.577500", "164406.067500", "164407.557500", "164409.047500", "164410.537500", "164412.027500", "164413.517500", "164415.007500", "164416.497500", "164417.987500", "164419.477500", "164420.967500", "164422.457500", "164423.947500", "164425.437500", "164426.927500", "164428.417500", "164429.907500", "164431.397500", "164432.887500", "164434.377500", "164435.867500", "164437.357500", "164438.847500", "164440.337500", "164441.827500", "164443.317500", "164444.807500", "164446.297500", "164447.787500", "164449.277500", "164450.767500", "164452.257500", "164453.747500", "164455.237500", "164456.727500", "164458.217500", "164459.707500", "164501.197500", "164502.687500", "164504.177500", "164505.667500", "164507.157500", "164508.647500", "164510.137500", "164511.627500", "164513.117500", "164514.607500", "164516.097500", "164517.587500", "164519.077500", "164520.567500", "164522.057500", "164523.547500", "164525.037500", "164526.527500", "164528.017500", "164529.507500", "164530.997500", "164532.487500", "164533.977500", "164535.467500", "164536.957500", "164538.447500", "164539.937500", "164541.427500", "164542.917500", "164544.407500", "164545.897500", "164547.387500", "164548.877500", "164550.367500", "164551.857500", "164553.347500", "164554.837500", "164556.327500", "164557.817500", "164559.307500", "164600.797500", "164602.287500", "164603.777500", "164605.267500", "164606.757500", "164608.247500", "164609.737500", "164611.227500", "164612.717500", "164614.207500", "164615.697500", "164617.187500", "164618.677500", "164620.167500", "164621.657500", "164623.147500", "164624.637500", "164626.127500", "164627.617500", "164629.107500", "164630.597500", "164632.087500", "164633.577500", "164635.067500", "164636.557500", "164638.047500", "164639.537500", "164641.027500", "164642.517500", "164644.007500", "164645.497500", "164646.987500", "164648.477500", "164649.967500", "164651.457500", "164652.947500", "164654.437500", "164655.927500", "164657.417500", "164658.907500", "164700.397500", "164701.887500", "164703.377500", "164704.867500", "164706.357500", "164707.847500", "164709.337500", "164710.827500", "164712.317500", "164713.807500", "164715.297500", "164716.787500", "164718.277500", "164719.767500", "164721.257500", "164722.747500", "164724.237500", "164725.727500", "164727.217500", "164728.707500", "164730.197500", "164731.687500", "164733.177500", "164734.667500", "164736.157500", "164737.647500", "164739.137500", "164740.627500", "164742.117500", "164743.607500", "164745.097500", "164746.587500", "164748.077500", "164749.567500", "164751.057500", "164752.547500", "164754.037500", "164755.527500", "164757.017500", "164758.507500", "164759.997500", "164801.487500", "164802.977500", "164804.467500", "164805.957500", "164807.447500", "164808.937500", "164810.427500", "164811.917500", "164813.407500", "164814.897500", "164816.387500", "164817.877500", "164819.367500", "164820.857500", "164822.347500", "164823.837500", "164825.327500", "164826.817500", "164828.307500", "164829.797500", "164831.287500", "164832.777500", "164834.267500", "164835.757500", "164837.247500", "164838.737500", "164840.227500", "164841.717500", "164843.207500", "164844.697500", "164846.187500", "164847.677500", "164849.167500", "164850.657500", "164852.147500", "164853.637500", "164855.127500", "164856.617500", "164858.107500", "164859.597500", "164901.087500", "164902.577500", "164904.067500", "164905.557500", "164907.047500", "164908.537500", "164910.027500", "164911.517500", "164913.007500", "164914.497500", "164915.987500", "164917.477500", "164918.967500", "164920.457500", "164921.947500", "164923.437500", "164924.927500", "164926.417500", "164927.907500", "164929.397500", "164930.887500", "164932.377500", "164933.867500", "164935.357500", "164936.847500", "164938.337500", "164939.827500", "164941.317500", "164942.807500", "164944.297500", "164945.787500", "164947.277500", "164948.767500", "164950.257500", "164951.747500", "164953.237500", "164954.727500", "164956.217500", "164957.707500", "164959.197500", "165000.687500", "165002.177500", "165003.667500", "165005.157500", "165006.647500", "165008.137500", "165009.627500", "165011.117500", "165012.607500", "165014.097500", "165015.587500", "165017.077500", "165018.567500", "165020.057500", "165021.547500", "165023.037500", "165024.527500", "165026.017500", "165027.507500", "165028.997500", "165030.487500", "165031.977500", "165033.467500", "165034.957500", "165036.447500", "165037.937500", "165039.427500", "165040.917500", "165042.407500", "165043.897500", "165045.387500", "165046.877500", "165048.367500", "165049.857500", "165051.347500", "165052.837500", "165054.327500", "165055.817500", "165057.307500", "165058.797500", "165100.287500", "165101.777500", "165103.267500", "165104.757500", "165106.247500", "165107.737500", "165109.227500", "165110.717500", "165112.207500", "165113.697500", "165115.187500", "165116.677500", "165118.167500", "165119.657500", "165121.147500", "165122.637500", "165124.127500", "165125.617500", "165127.107500", "165128.597500", "165130.087500", "165131.577500", "165133.067500", "165134.557500", "165136.047500", "165137.537500", "165139.027500", "165140.517500", "165142.007500", "165143.497500", "165144.987500", "165146.477500", "165147.967500", "165149.457500", "165150.947500", "165152.437500", "165153.927500", "165155.417500", "165156.907500", "165158.397500", "165159.887500", "165201.377500", "165202.867500", "165204.357500", "165205.847500", "165207.337500", "165208.827500", "165210.317500", "165211.807500", "165213.297500", "165214.787500", "165216.277500", "165217.767500", "165219.257500", "165220.747500", "165222.237500", "165223.727500", "165225.217500", "165226.707500", "165228.197500", "165229.687500", "165231.177500", "165232.667500", "165234.157500", "165235.647500", "165237.137500", "165238.627500", "165240.117500", "165241.607500", "165243.097500", "165244.587500", "165246.077500", "165247.567500", "165249.057500", "165250.547500", "165252.037500", "165253.527500", "165255.017500", "165256.507500", "165257.997500", "165259.487500", "165300.977500", "165302.467500", "165303.957500", "165305.447500", "165306.937500", "165308.427500", "165309.917500", "165311.407500", "165312.897500", "165314.387500", "165315.877500", "165317.367500", "165318.857500", "165320.347500", "165321.837500", "165323.327500", "165324.817500", "165326.307500", "165327.797500", "165329.287500", "165330.777500", "165332.267500", "165333.757500", "165335.247500", "165336.737500", "165338.227500", "165339.717500", "165341.207500", "165342.697500", "165344.187500", "165345.677500", "165347.167500", "165348.657500", "165350.147500", "165351.637500", "165353.127500", "165354.617500", "165356.107500", "165357.597500", "165359.087500", "165400.577500", "165402.067500", "165403.557500", "165405.047500", "165406.537500", "165408.027500", "165409.517500", "165411.007500", "165412.497500", "165413.987500", "165415.477500", "165416.967500", "165418.457500", "165419.947500", "165421.437500", "165422.927500", "165424.417500", "165425.907500", "165427.397500", "165428.887500", "165430.377500", "165431.867500", "165433.357500", "165434.847500", "165436.337500", "165437.827500", "165439.317500", "165440.807500", "165442.297500", "165443.787500", "165445.277500", "165446.767500", "165448.257500", "165449.747500", "165451.237500", "165452.727500", "165454.217500", "165455.707500", "165457.197500", "165458.687500", "165500.177500", "165501.667500", "165503.157500", "165504.647500", "165506.137500", "165507.627500", "165509.117500", "165510.607500", "165512.097500", "165513.587500", "165515.077500", "165516.567500", "165518.057500", "165519.547500", "165521.037500", "165522.527500", "165524.017500", "165525.507500", "165526.997500", "165528.487500", "165529.977500", "165531.467500", "165532.957500", "165534.447500", "165535.937500", "165537.427500", "165538.917500", "165540.407500", "165541.897500", "165543.387500", "165544.877500", "165546.367500", "165547.857500", "165549.347500", "165550.837500", "165552.327500", "165553.817500", "165555.307500", "165556.797500", "165558.287500", "165559.777500", "165601.267500", "165602.757500", "165604.247500", "165605.737500", "165607.227500", "165608.717500", "165610.207500", "165611.697500", "165613.187500", "165614.677500", "165616.167500", "165617.657500", "165619.147500", "165620.637500", "165622.127500", "165623.617500", "165625.107500", "165626.597500", "165628.087500", "165629.577500", "165631.067500", "165632.557500", "165634.047500", "165635.537500", "165637.027500", "165638.517500", "165640.007500", "165641.497500", "165642.987500", "165644.477500", "165645.967500", "165647.457500", "165648.947500", "165650.437500", "165651.927500", "165653.417500", "165654.907500", "165656.397500", "165657.887500", "165659.377500", "165700.867500", "165702.357500", "165703.847500", "165705.337500", "165706.827500", "165708.317500", "165709.807500", "165711.297500", "165712.787500", "165714.277500", "165715.767500", "165717.257500", "165718.747500", "165720.237500", "165721.727500", "165723.217500", "165724.707500", "165726.197500", "165727.687500", "165729.177500", "165730.667500", "165732.157500", "165733.647500", "165735.137500", "165736.627500", "165738.117500", "165739.607500", "165741.097500", "165742.587500", "165744.077500", "165745.567500", "165747.057500", "165748.547500", "165750.037500", "165751.527500", "165753.017500", "165754.507500", "165755.997500", "165757.487500", "165758.977500", "165800.467500", "165801.957500", "165803.447500", "165804.937500"],
      "ContentTime": ["164516.588000", "164516.592000", "164516.595000", "164516.598000", "164516.600000", "164516.603000", "164516.606000", "164516.616000", "164516.619000", "164516.622000", "164516.625000", "164516.628000", "164516.631000", "164516.634000", "164516.637000", "164516.639000", "164516.642000", "164516.645000", "164516.648000", "164516.651000", "164516.654000", "164516.657000", "164516.660000", "164516.663000", "164516.665000", "164516.668000", "164516.677000", "164516.680000", "164516.683000", "164516.686000", "164516.689000", "164516.691000", "164516.694000", "164516.697000", "164516.700000", "164516.703000", "164536.547000", "164536.550000", "164536.553000", "164536.556000", "164536.559000", "164536.562000", "164536.564000", "164536.567000", "164536.570000", "164536.573000", "164536.576000", "164536.579000", "164536.581000", "164536.584000", "164536.588000", "164536.592000", "164536.595000", "164536.610000", "164536.614000", "164536.616000", "164556.547000", "164556.550000", "164556.553000", "164556.556000", "164556.559000", "164556.561000", "164556.564000", "164556.567000", "164556.570000", "164556.573000", "164556.576000", "164556.586000", "164556.588000", "164556.591000", "164556.594000", "164556.597000", "164556.600000", "164556.603000", "164556.606000", "164556.609000", "164556.611000", "164616.547000", "164616.550000", "164616.553000", "164616.556000", "164616.558000", "164616.561000", "164616.564000", "164616.567000", "164616.570000", "164616.573000", "164616.576000", "164616.579000", "164616.581000", "164616.584000", "164616.587000", "164616.590000", "164616.593000", "164616.596000", "164616.599000", "164616.602000", "164656.547000", "164656.550000", "164656.553000", "164656.556000", "164656.559000", "164656.562000", "164656.565000", "164656.568000", "164656.571000", "164656.574000", "164656.578000", "164656.580000", "164656.583000", "164656.586000", "164656.589000", "164656.592000", "164656.595000", "164656.598000", "164656.601000", "164656.603000", "164656.606000", "164656.609000", "164656.612000", "164656.615000", "164656.618000", "164656.621000", "164736.547000", "164736.550000", "164736.553000", "164736.556000", "164736.559000", "164736.561000", "164736.564000", "164736.567000", "164736.570000", "164736.573000", "164736.576000", "164736.579000", "164736.582000", "164736.585000", "164736.588000", "164736.591000", "164736.593000", "164736.596000", "164736.599000", "164736.602000", "164736.605000", "164736.608000", "164736.611000", "164736.614000", "164736.616000", "164736.619000", "164736.622000", "164816.547000", "164816.550000", "164816.553000", "164816.556000", "164816.558000", "164816.561000", "164816.564000", "164816.567000", "164816.570000", "164816.573000", "164816.576000", "164816.579000", "164816.581000", "164816.584000", "164816.588000", "164816.591000", "164816.594000", "164816.597000", "164816.599000", "164816.602000", "164816.605000", "164816.608000", "164816.611000", "164816.614000", "164816.617000", "164816.619000", "164816.622000", "164856.547000", "164856.550000", "164856.553000", "164856.556000", "164856.564000", "164856.567000", "164856.570000", "164856.573000", "164856.576000", "164856.579000", "164856.582000", "164856.584000", "164856.587000", "164856.590000", "164856.593000", "164856.596000", "164856.599000", "164856.602000", "164856.605000", "164856.607000", "164856.610000", "164856.613000", "164856.616000", "164856.619000", "164856.622000", "164856.625000", "164856.628000", "164936.547000", "164936.550000", "164936.553000", "164936.556000", "164936.559000", "164936.562000", "164936.565000", "164936.568000", "164936.571000", "164936.574000", "164936.577000", "164936.580000", "164936.583000", "164936.586000", "164936.588000", "164936.591000", "164936.594000", "164936.597000", "164936.600000", "164936.611000", "164936.614000", "164936.617000", "164936.620000", "164936.623000", "164936.626000", "164936.628000", "164936.631000", "165016.547000", "165016.550000", "165016.553000", "165016.556000", "165016.559000", "165016.562000", "165016.565000", "165016.567000", "165016.570000", "165016.573000", "165016.576000", "165016.579000", "165016.582000", "165016.585000", "165016.588000", "165016.591000", "165016.593000", "165016.596000", "165016.599000", "165016.602000", "165016.605000", "165016.608000", "165016.611000", "165016.614000", "165016.617000", "165016.620000", "165016.632000", "165056.547000", "165056.550000", "165056.553000", "165056.557000", "165056.561000", "165056.565000", "165056.569000", "165056.571000", "165056.574000", "165056.577000", "165056.580000", "165056.583000", "165056.586000", "165056.589000", "165056.592000", "165056.595000", "165056.598000", "165056.601000", "165056.604000", "165056.606000", "165056.609000", "165056.612000", "165056.615000", "165056.628000", "165056.631000", "165056.634000", "165136.547000", "165136.550000", "165136.553000", "165136.556000", "165136.559000", "165136.561000", "165136.564000", "165136.567000", "165136.570000", "165136.573000", "165136.576000", "165136.579000", "165136.582000", "165136.584000", "165136.587000", "165136.590000", "165136.593000", "165136.596000", "165136.599000", "165136.601000", "165136.604000", "165136.607000", "165136.610000", "165136.613000", "165136.616000", "165136.618000", "165136.621000", "165216.547000", "165216.550000", "165216.553000", "165216.556000", "165216.559000", "165216.562000", "165216.565000", "165216.567000", "165216.570000", "165216.573000", "165216.576000", "165216.579000", "165216.582000", "165216.585000", "165216.588000", "165216.591000", "165216.593000", "165216.596000", "165216.599000", "165216.602000", "165216.605000", "165216.608000", "165216.611000", "165216.614000", "165216.617000", "165216.620000", "165216.623000", "165256.547000", "165256.550000", "165256.553000", "165256.556000", "165256.559000", "165256.562000", "165256.564000", "165256.567000", "165256.570000", "165256.573000", "165256.576000", "165256.579000", "165256.582000", "165256.585000", "165256.588000", "165256.591000", "165256.594000", "165256.597000", "165256.599000", "165256.602000", "165256.605000", "165256.608000", "165256.611000", "165256.614000", "165256.617000", "165256.620000", "165256.623000", "165336.547000", "165336.550000", "165336.553000", "165336.556000", "165336.559000", "165336.562000", "165336.564000", "165336.567000", "165336.570000", "165336.573000", "165336.576000", "165336.579000", "165336.582000", "165336.584000", "165336.587000", "165336.590000", "165336.593000", "165336.596000", "165336.598000", "165336.601000", "165336.607000", "165336.610000", "165336.613000", "165336.616000", "165336.619000", "165336.622000", "165336.625000", "165416.547000", "165416.550000", "165416.553000", "165416.556000", "165416.559000", "165416.562000", "165416.565000", "165416.567000", "165416.570000", "165416.573000", "165416.576000", "165416.579000", "165416.582000", "165416.585000", "165416.588000", "165416.590000", "165416.593000", "165416.596000", "165416.599000", "165416.602000", "165416.605000", "165416.608000", "165416.610000", "165416.613000", "165416.616000", "165416.619000", "165416.622000", "165456.547000", "165456.550000", "165456.553000", "165456.556000", "165456.559000", "165456.561000", "165456.564000", "165456.568000", "165456.571000", "165456.573000", "165456.576000", "165456.579000", "165456.582000", "165456.585000", "165456.588000", "165456.591000", "165456.594000", "165456.597000", "165456.599000", "165456.602000", "165456.605000", "165456.608000", "165456.611000", "165456.614000", "165456.617000", "165456.620000", "165456.623000", "165536.547000", "165536.550000", "165536.553000", "165536.556000", "165536.559000", "165536.562000", "165536.565000", "165536.567000", "165536.570000", "165536.573000", "165536.576000", "165536.579000", "165536.582000", "165536.585000", "165536.588000", "165536.591000", "165536.594000", "165536.597000", "165536.600000", "165536.603000", "165536.606000", "165536.608000", "165536.611000", "165536.614000", "165536.617000", "165536.620000", "165556.547000", "165556.550000", "165556.553000", "165556.556000", "165556.558000", "165556.561000", "165556.564000", "165556.567000", "165556.570000", "165556.573000", "165556.576000", "165556.579000", "165556.581000", "165556.584000", "165636.547000", "165636.550000", "165636.553000", "165636.556000", "165636.559000", "165636.562000", "165636.564000", "165636.567000", "165636.570000", "165636.573000", "165636.576000", "165636.579000", "165636.582000", "165636.585000", "165636.588000", "165636.590000", "165636.593000", "165636.596000", "165636.599000", "165636.602000", "165636.605000", "165636.608000", "165636.611000", "165636.614000", "165636.617000", "165636.620000", "165636.622000", "165716.547000", "165716.550000", "165716.553000", "165716.561000", "165716.564000", "165716.567000", "165716.570000", "165716.573000", "165716.576000", "165716.579000", "165716.582000", "165716.585000", "165716.587000", "165716.590000", "165716.593000", "165716.596000", "165716.599000", "165716.602000", "165716.605000", "165716.608000", "165716.611000", "165716.613000", "165716.616000", "165716.619000", "165716.622000", "165716.625000", "165716.628000", "165756.547000", "165756.550000", "165756.553000", "165756.556000", "165756.564000", "165756.567000", "165756.570000", "165756.572000", "165756.576000", "165756.578000", "165756.581000", "165756.584000", "165756.587000", "165756.591000", "165756.594000", "165756.597000", "165756.600000", "165756.603000", "165756.606000", "165756.609000", "165756.612000", "165756.614000", "165756.617000", "165756.620000", "165756.623000", "165756.626000", "165807.191000", "165807.194000", "165807.197000", "165807.200000", "165807.203000", "165807.205000", "165807.208000", "165807.211000"],
