{
  "AcquisitionMatrixPE": 104,
  "AcquisitionNumber": 1,
  "AcquisitionTime": "16:27:54.962500",
  "BandwidthPerPixelPhaseEncode": 17.17,
  "BaseResolution": 104,
  "BodyPartExamined": "BRAIN",
  "CoilCombinationMethod": "Sum of Squares",
  "ConsistencyInfo": "N4_VE11C_LATEST_20160120",
  "ConversionSoftware": "dcm2niix",
  "ConversionSoftwareVersion": "v1.0.20230411",
  "DerivedVendorReportedEchoSpacing": 0.000560011,
  "DeviceSerialNumber": "167006",
  "DwellTime": 2.1e-06,
  "EchoTime": 0.037,
  "EchoTrainLength": 104,
  "EffectiveEchoSpacing": 0.000560011,
  "FlipAngle": 52,
  "HeudiconvVersion": "0.5.3.post861+ge7d3c7f",
  "ImageComments": "Unaliased MB4/PE3/LB",
  "ImageOrientationPatientDICOM": [0.999803, 0.0192069, -0.00506368, -0.018848, 0.836907, -0.54702],
  "ImageOrientationText": "Tra>Cor(-33.2)>Sag(0.4)",
  "ImageType": [
    "ORIGINAL",
    "PRIMARY",
    "M",
    "MB",
    "ND",
    "MOSAIC"
],
  "ImagingFrequency": 123.249578,
  "InPlanePhaseEncodingDirectionDICOM": "COL",
  "InstitutionAddress": "Chemin Queen-Mary 4565,Montreal,District,CA,H3W 1W5",
  "InstitutionName": "IUGM",
  "InstitutionalDepartmentName": "Department",
  "MRAcquisitionType": "2D",
  "MagneticFieldStrength": 3,
  "Manufacturer": "Siemens",
  "ManufacturersModelName": "Prisma_fit",
  "MatrixCoilMode": "SENSE",
  "Modality": "MR",
  "MultibandAccelerationFactor": 4,
  "NonlinearGradientCorrection": false,
  "PartialFourier": 1,
  "PatientPosition": "HFS",
  "PercentPhaseFOV": 100,
  "PercentSampling": 100,
  "PhaseEncodingDirection": "j",
  "PhaseEncodingSteps": 104,
  "PhaseResolution": 1,
  "PixelBandwidth": 2290,
  "ProcedureStepDescription": "video^friends",
  "ProtocolName": "func_task-friends-s07e13a",
  "PulseSequenceDetails": "%CustomerSeq%\\cmrr_mbep2d_bold",
  "ReceiveCoilActiveElements": "HC1-7;NC1,2",
  "ReceiveCoilName": "HeadNeck_64",
  "ReconMatrixPE": 104,
  "RepetitionTime": 1.49,
  "SAR": 0.0560733,
  "ScanOptions": "FS",
  "ScanningSequence": "EP",
  "SequenceName": "epfid2d1_104",
  "SequenceVariant": "SK\\SS",
  "SeriesDescription": "func_task-friends-s07e13a",
  "SeriesNumber": 16,
  "ShimSetting": [591, -7207, -8848, 245, 14, -157, -128, 77],
  "SliceThickness": 2,
  "SliceTiming": [0, 0.7825, 0.0975, 0.8825, 0.195, 0.98, 0.2925, 1.0775, 0.3925, 1.175, 0.49, 1.2725, 0.5875, 1.3725, 0.685, 0, 0.7825, 0.0975, 0.8825, 0.195, 0.98, 0.2925, 1.0775, 0.3925, 1.175, 0.49, 1.2725, 0.5875, 1.3725, 0.685, 0, 0.7825, 0.0975, 0.8825, 0.195, 0.98, 0.2925, 1.0775, 0.3925, 1.175, 0.49, 1.2725, 0.5875, 1.3725, 0.685, 0, 0.7825, 0.0975, 0.8825, 0.195, 0.98, 0.2925, 1.0775, 0.3925, 1.175, 0.49, 1.2725, 0.5875, 1.3725, 0.685],
  "SoftwareVersions": "syngo MR E11",
  "SpacingBetweenSlices": 2,
  "StationName": "MRC35049",
  "TaskName": "s07e13a",
  "TotalReadoutTime": 0.0576811,
  "TxRefAmp": 277.782,
  "WipMemBlock": "32dd93dd-cf2d-4fbb-9105-93d09bafb8bb||Sequence: R017 ve11c/master r/75a17815+; Jun 28 2022 16:32:11 by eja",
  "dcmmeta_affine": [
    [-1.999605417251587, -0.037696078419685364, 0.012537465430796146, 105.15367889404297],
    [-0.03841378539800644, 1.673814058303833, -1.0940159559249878, -52.54945755004883],
    [-0.010127364657819271, 1.0940409898757935, 1.6742078065872192, -85.5425033569336],
    [0.0, 0.0, 0.0, 1.0]
],
  "dcmmeta_reorient_transform": [
    [0.0, -1.0, 0.0, 103.0],
    [1.0, 0.0, 0.0, 0.0],
    [0.0, 0.0, 1.0, 0.0],
    [0.0, 0.0, 0.0, 1.0]
],
  "dcmmeta_shape": [104, 104, 60, 539],
  "dcmmeta_slice_dim": 2,
  "dcmmeta_version": 0.6,
  "global": {
    "const": {
      "AcquisitionMatrix": [104, 0, 0, 104],
      "AngioFlag": "N",
      "BitsAllocated": 16,
      "BitsStored": 16,
      "BodyPartExamined": "BRAIN",
      "Columns": 832,
      "EchoNumbers": 1,
      "EchoTime": 37.0,
      "EchoTrainLength": 104,
      "FlipAngle": 52.0,
      "HighBit": 15,
      "ImageOrientationPatient": [0.99980270772948, 0.019206892943, -0.0050636824824, -0.0188480398636, 0.83690700242835, -0.5470204938388],
      "ImagePositionPatient": [-815.40598239676, -743.10430016405, 429.06100155719],
      "ImageType": [
        "ORIGINAL",
        "PRIMARY",
        "M",
        "MB",
        "ND",
        "MOSAIC"
],
      "ImagedNucleus": "1H",
      "ImagingFrequency": 123.249578,
      "InPlanePhaseEncodingDirection": "COL",
      "MRAcquisitionType": "2D",
      "MagneticFieldStrength": 3.0,
      "Manufacturer": "SIEMENS",
      "ManufacturerModelName": "Prisma_fit",
      "Modality": "MR",
      "NumberOfAverages": 1.0,
      "NumberOfPhaseEncodingSteps": 104,
      "PercentPhaseFieldOfView": 100.0,
      "PercentSampling": 100.0,
      "PerformedProcedureStepStartTime": "161941.033000",
      "PhotometricInterpretation": "MONOCHROME2",
      "PixelBandwidth": 2290.0,
      "PixelRepresentation": 0,
      "PixelSpacing": [2.0, 2.0],
      "ProtocolName": "func_task-friends-s07e13a",
      "RepetitionTime": 1490.0,
      "Rows": 832,
      "SAR": 0.0560733303918,
      "SamplesPerPixel": 1,
      "ScanOptions": "FS",
      "ScanningSequence": "EP",
      "SequenceName": "epfid2d1_104",
      "SequenceVariant": [
        "SK",
        "SS"
],
      "SeriesDescription": "func_task-friends-s07e13a",
      "SeriesNumber": 16,
      "SeriesTime": "162915.844000",
      "SliceLocation": -42.203805834137,
      "SliceThickness": 2.0,
      "SmallestImagePixelValue": 0,
      "SoftwareVersions": "syngo MR E11",
      "SpacingBetweenSlices": 1.9999999723384,
      "SpecificCharacterSet": "ISO_IR 100",
      "StudyID": "1",
      "StudyTime": "161940.897000",
      "TransmitCoilName": "Body",
      "VariableFlipAngleFlag": "N",
      "WindowCenterWidthExplanation": "Algo1",
      "dBdt": 0.0},
    "slices": {}
  },
  "time": {
    "samples": {
      "AcquisitionNumber": [1, 2, 3, 4, 5, 6, 7, 8, 9, 10, 11, 12, 13, 14, 15, 16, 17, 18, 19, 20, 21, 22, 23, 24, 25, 26, 27, 28, 29, 30, 31, 32, 33, 34, 35, 36, 37, 38, 39, 40, 41, 42, 43, 44, 45, 46, 47, 48, 49, 50, 51, 52, 53, 54, 55, 56, 57, 58, 59, 60, 61, 62, 63, 64, 65, 66, 67, 68, 69, 70, 71, 72, 73, 74, 75, 76, 77, 78, 79, 80, 81, 82, 83, 84, 85, 86, 87, 88, 89, 90, 91, 92, 93, 94, 95, 96, 97, 98, 99, 100, 101, 102, 103, 104, 105, 106, 107, 108, 109, 110, 111, 112, 113, 114, 115, 116, 117, 118, 119, 120, 121, 122, 123, 124, 125, 126, 127, 128, 129, 130, 131, 132, 133, 134, 135, 136, 137, 138, 139, 140, 141, 142, 143, 144, 145, 146, 147, 148, 149, 150, 151, 152, 153, 154, 155, 156, 157, 158, 159, 160, 161, 162, 163, 164, 165, 166, 167, 168, 169, 170, 171, 172, 173, 174, 175, 176, 177, 178, 179, 180, 181, 182, 183, 184, 185, 186, 187, 188, 189, 190, 191, 192, 193, 194, 195, 196, 197, 198, 199, 200, 201, 202, 203, 204, 205, 206, 207, 208, 209, 210, 211, 212, 213, 214, 215, 216, 217, 218, 219, 220, 221, 222, 223, 224, 225, 226, 227, 228, 229, 230, 231, 232, 233, 234, 235, 236, 237, 238, 239, 240, 241, 242, 243, 244, 245, 246, 247, 248, 249, 250, 251, 252, 253, 254, 255, 256, 257, 258, 259, 260, 261, 262, 263, 264, 265, 266, 267, 268, 269, 270, 271, 272, 273, 274, 275, 276, 277, 278, 279, 280, 281, 282, 283, 284, 285, 286, 287, 288, 289, 290, 291, 292, 293, 294, 295, 296, 297, 298, 299, 300, 301, 302, 303, 304, 305, 306, 307, 308, 309, 310, 311, 312, 313, 314, 315, 316, 317, 318, 319, 320, 321, 322, 323, 324, 325, 326, 327, 328, 329, 330, 331, 332, 333, 334, 335, 336, 337, 338, 339, 340, 341, 342, 343, 344, 345, 346, 347, 348, 349, 350, 351, 352, 353, 354, 355, 356, 357, 358, 359, 360, 361, 362, 363, 364, 365, 366, 367, 368, 369, 370, 371, 372, 373, 374, 375, 376, 377, 378, 379, 380, 381, 382, 383, 384, 385, 386, 387, 388, 389, 390, 391, 392, 393, 394, 395, 396, 397, 398, 399, 400, 401, 402, 403, 404, 405, 406, 407, 408, 409, 410, 411, 412, 413, 414, 415, 416, 417, 418, 419, 420, 421, 422, 423, 424, 425, 426, 427, 428, 429, 430, 431, 432, 433, 434, 435, 436, 437, 438, 439, 440, 441, 442, 443, 444, 445, 446, 447, 448, 449, 450, 451, 452, 453, 454, 455, 456, 457, 458, 459, 460, 461, 462, 463, 464, 465, 466, 467, 468, 469, 470, 471, 472, 473, 474, 475, 476, 477, 478, 479, 480, 481, 482, 483, 484, 485, 486, 487, 488, 489, 490, 491, 492, 493, 494, 495, 496, 497, 498, 499, 500, 501, 502, 503, 504, 505, 506, 507, 508, 509, 510, 511, 512, 513, 514, 515, 516, 517, 518, 519, 520, 521, 522, 523, 524, 525, 526, 527, 528, 529, 530, 531, 532, 533, 534, 535, 536, 537, 538, 539],
      "AcquisitionTime": ["162754.962500", "162756.452500", "162757.942500", "162759.432500", "162800.922500", "162802.412500", "162803.902500", "162805.392500", "162806.882500", "162808.372500", "162809.862500", "162811.352500", "162812.842500", "162814.332500", "162815.822500", "162817.312500", "162818.802500", "162820.292500", "162821.782500", "162823.272500", "162824.762500", "162826.252500", "162827.742500", "162829.232500", "162830.722500", "162832.212500", "162833.702500", "162835.192500", "162836.682500", "162838.172500", "162839.662500", "162841.152500", "162842.642500", "162844.132500", "162845.622500", "162847.112500", "162848.602500", "162850.092500", "162851.582500", "162853.072500", "162854.562500", "162856.052500", "162857.542500", "162859.032500", "162900.522500", "162902.012500", "162903.502500", "162904.992500", "162906.482500", "162907.972500", "162909.462500", "162910.952500", "162912.442500", "162913.932500", "162915.422500", "162916.912500", "162918.402500", "162919.892500", "162921.382500", "162922.872500", "162924.362500", "162925.852500", "162927.342500", "162928.832500", "162930.322500", "162931.812500", "162933.302500", "162934.792500", "162936.282500", "162937.772500", "162939.262500", "162940.752500", "162942.242500", "162943.732500", "162945.222500", "162946.712500", "162948.202500", "162949.692500", "162951.182500", "162952.672500", "162954.162500", "162955.652500", "162957.142500", "162958.632500", "163000.122500", "163001.612500", "163003.102500", "163004.592500", "163006.082500", "163007.572500", "163009.062500", "163010.552500", "163012.042500", "163013.532500", "163015.022500", "163016.512500", "163018.002500", "163019.492500", "163020.982500", "163022.472500", "163023.962500", "163025.452500", "163026.942500", "163028.432500", "163029.922500", "163031.412500", "163032.902500", "163034.392500", "163035.882500", "163037.372500", "163038.862500", "163040.352500", "163041.842500", "163043.332500", "163044.822500", "163046.312500", "163047.802500", "163049.292500", "163050.782500", "163052.272500", "163053.762500", "163055.252500", "163056.742500", "163058.232500", "163059.722500", "163101.212500", "163102.702500", "163104.192500", "163105.682500", "163107.172500", "163108.662500", "163110.152500", "163111.642500", "163113.132500", "163114.622500", "163116.112500", "163117.602500", "163119.092500", "163120.582500", "163122.072500", "163123.562500", "163125.052500", "163126.542500", "163128.032500", "163129.522500", "163131.012500", "163132.502500", "163133.992500", "163135.482500", "163136.972500", "163138.462500", "163139.952500", "163141.442500", "163142.932500", "163144.422500", "163145.912500", "163147.402500", "163148.892500", "163150.382500", "163151.872500", "163153.362500", "163154.852500", "163156.342500", "163157.832500", "163159.322500", "163200.812500", "163202.302500", "163203.792500", "163205.282500", "163206.772500", "163208.262500", "163209.752500", "163211.242500", "163212.732500", "163214.222500", "163215.712500", "163217.202500", "163218.692500", "163220.182500", "163221.672500", "163223.162500", "163224.652500", "163226.142500", "163227.632500", "163229.122500", "163230.612500", "163232.102500", "163233.592500", "163235.082500", "163236.572500", "163238.062500", "163239.552500", "163241.042500", "163242.532500", "163244.022500", "163245.512500", "163247.002500", "163248.492500", "163249.982500", "163251.472500", "163252.962500", "163254.452500", "163255.942500", "163257.432500", "163258.922500", "163300.412500", "163301.902500", "163303.392500", "163304.882500", "163306.372500", "163307.862500", "163309.352500", "163310.842500", "163312.332500", "163313.822500", "163315.312500", "163316.802500", "163318.292500", "163319.782500", "163321.272500", "163322.762500", "163324.252500", "163325.742500", "163327.232500", "163328.722500", "163330.212500", "163331.702500", "163333.192500", "163334.682500", "163336.172500", "163337.662500", "163339.152500", "163340.642500", "163342.132500", "163343.622500", "163345.112500", "163346.602500", "163348.092500", "163349.582500", "163351.072500", "163352.562500", "163354.052500", "163355.542500", "163357.032500", "163358.522500", "163400.012500", "163401.502500", "163402.992500", "163404.482500", "163405.972500", "163407.462500", "163408.952500", "163410.442500", "163411.932500", "163413.422500", "163414.912500", "163416.402500", "163417.892500", "163419.382500", "163420.872500", "163422.362500", "163423.852500", "163425.342500", "163426.832500", "163428.322500", "163429.812500", "163431.302500", "163432.792500", "163434.282500", "163435.772500", "163437.262500", "163438.752500", "163440.242500", "163441.732500", "163443.222500", "163444.712500", "163446.202500", "163447.692500", "163449.182500", "163450.672500", "163452.162500", "163453.652500", "163455.142500", "163456.632500", "163458.122500", "163459.612500", "163501.102500", "163502.592500", "163504.082500", "163505.572500", "163507.062500", "163508.552500", "163510.042500", "163511.532500", "163513.022500", "163514.512500", "163516.002500", "163517.492500", "163518.982500", "163520.472500", "163521.962500", "163523.452500", "163524.942500", "163526.432500", "163527.922500", "163529.412500", "163530.902500", "163532.392500", "163533.882500", "163535.372500", "163536.862500", "163538.352500", "163539.842500", "163541.332500", "163542.822500", "163544.312500", "163545.802500", "163547.292500", "163548.782500", "163550.272500", "163551.762500", "163553.252500", "163554.742500", "163556.232500", "163557.722500", "163559.212500", "163600.702500", "163602.192500", "163603.682500", "163605.172500", "163606.662500", "163608.152500", "163609.642500", "163611.132500", "163612.622500", "163614.112500", "163615.602500", "163617.092500", "163618.582500", "163620.072500", "163621.562500", "163623.052500", "163624.542500", "163626.032500", "163627.522500", "163629.012500", "163630.502500", "163631.992500", "163633.482500", "163634.972500", "163636.462500", "163637.952500", "163639.442500", "163640.932500", "163642.422500", "163643.912500", "163645.402500", "163646.892500", "163648.382500", "163649.872500", "163651.362500", "163652.852500", "163654.342500", "163655.832500", "163657.322500", "163658.812500", "163700.302500", "163701.792500", "163703.282500", "163704.772500", "163706.262500", "163707.752500", "163709.242500", "163710.732500", "163712.222500", "163713.712500", "163715.202500", "163716.692500", "163718.182500", "163719.672500", "163721.162500", "163722.652500", "163724.142500", "163725.632500", "163727.122500", "163728.612500", "163730.102500", "163731.592500", "163733.082500", "163734.572500", "163736.062500", "163737.552500", "163739.042500", "163740.532500", "163742.022500", "163743.512500", "163745.002500", "163746.492500", "163747.982500", "163749.472500", "163750.962500", "163752.452500", "163753.942500", "163755.432500", "163756.922500", "163758.412500", "163759.902500", "163801.392500", "163802.882500", "163804.372500", "163805.862500", "163807.352500", "163808.842500", "163810.332500", "163811.822500", "163813.312500", "163814.802500", "163816.292500", "163817.782500", "163819.272500", "163820.762500", "163822.252500", "163823.742500", "163825.232500", "163826.722500", "163828.212500", "163829.702500", "163831.192500", "163832.682500", "163834.172500", "163835.662500", "163837.152500", "163838.642500", "163840.132500", "163841.622500", "163843.112500", "163844.602500", "163846.092500", "163847.582500", "163849.072500", "163850.562500", "163852.052500", "163853.542500", "163855.032500", "163856.522500", "163858.012500", "163859.502500", "163900.992500", "163902.482500", "163903.972500", "163905.462500", "163906.952500", "163908.442500", "163909.932500", "163911.422500", "163912.912500", "163914.402500", "163915.892500", "163917.382500", "163918.872500", "163920.362500", "163921.852500", "163923.342500", "163924.832500", "163926.322500", "163927.812500", "163929.302500", "163930.792500", "163932.282500", "163933.772500", "163935.262500", "163936.752500", "163938.242500", "163939.732500", "163941.222500", "163942.712500", "163944.202500", "163945.692500", "163947.182500", "163948.672500", "163950.162500", "163951.652500", "163953.142500", "163954.632500", "163956.122500", "163957.612500", "163959.102500", "164000.592500", "164002.082500", "164003.572500", "164005.062500", "164006.552500", "164008.042500", "164009.532500", "164011.022500", "164012.512500", "164014.002500", "164015.492500", "164016.982500", "164018.472500", "164019.962500", "164021.452500", "164022.942500", "164024.432500", "164025.922500", "164027.412500", "164028.902500", "164030.392500", "164031.882500", "164033.372500", "164034.862500", "164036.352500", "164037.842500", "164039.332500", "164040.822500", "164042.312500", "164043.802500", "164045.292500", "164046.782500", "164048.272500", "164049.762500", "164051.252500", "164052.742500", "164054.232500", "164055.722500", "164057.212500", "164058.702500", "164100.192500", "164101.682500", "164103.172500", "164104.662500", "164106.152500", "164107.642500", "164109.132500", "164110.622500", "164112.112500", "164113.602500", "164115.092500", "164116.582500"],
      "ContentTime": ["162915.846000", "162915.850000", "162915.853000", "162915.856000", "162915.858000", "162915.861000", "162915.867000", "162915.870000", "162915.873000", "162915.876000", "162915.879000", "162915.891000", "162915.893000", "162915.896000", "162915.899000", "162915.902000", "162915.905000", "162915.908000", "162915.911000", "162915.913000", "162915.916000", "162915.919000", "162915.922000", "162915.925000", "162915.928000", "162915.930000", "162915.934000", "162915.936000", "162915.939000", "162915.945000", "162915.948000", "162915.951000", "162915.954000", "162935.810000", "162935.813000", "162935.816000", "162935.818000", "162935.822000", "162935.824000", "162935.827000", "162935.830000", "162935.833000", "162935.836000", "162935.839000", "162935.841000", "162935.844000", "162935.847000", "162935.850000", "162935.853000", "162935.856000", "162935.859000", "162935.866000", "162935.869000", "162955.810000", "162955.813000", "162955.816000", "162955.819000", "162955.822000", "162955.824000", "162955.827000", "162955.830000", "162955.833000", "162955.836000", "162955.839000", "162955.842000", "162955.845000", "162955.847000", "162955.850000", "162955.853000", "162955.856000", "162955.859000", "162955.862000", "162955.865000", "163015.810000", "163015.813000", "163015.816000", "163015.818000", "163015.822000", "163015.824000", "163015.827000", "163015.830000", "163015.833000", "163015.836000", "163015.839000", "163015.842000", "163015.845000", "163015.847000", "163015.850000", "163015.862000", "163015.865000", "163015.868000", "163015.871000", "163015.874000", "163055.810000", "163055.813000", "163055.816000", "163055.819000", "163055.822000", "163055.825000", "163055.828000", "163055.830000", "163055.833000", "163055.836000", "163055.839000", "163055.842000", "163055.845000", "163055.847000", "163055.850000", "163055.853000", "163055.856000", "163055.858000", "163055.861000", "163055.864000", "163055.867000", "163055.870000", "163055.873000", "163055.875000", "163055.878000", "163055.881000", "163055.884000", "163135.810000", "163135.813000", "163135.816000", "163135.819000", "163135.821000", "163135.825000", "163135.827000", "163135.830000", "163135.833000", "163135.836000", "163135.839000", "163135.842000", "163135.845000", "163135.848000", "163135.851000", "163135.853000", "163135.856000", "163135.859000", "163135.862000", "163135.865000", "163135.868000", "163135.871000", "163135.874000", "163135.876000", "163135.879000", "163135.882000", "163135.885000", "163215.810000", "163215.813000", "163215.816000", "163215.819000", "163215.822000", "163215.825000", "163215.827000", "163215.830000", "163215.833000", "163215.836000", "163215.839000", "163215.842000", "163215.845000", "163215.848000", "163215.851000", "163215.853000", "163215.856000", "163215.859000", "163215.862000", "163215.865000", "163215.868000", "163215.871000", "163215.874000", "163215.877000", "163215.880000", "163215.882000", "163215.885000", "163255.810000", "163255.813000", "163255.816000", "163255.819000", "163255.821000", "163255.824000", "163255.827000", "163255.830000", "163255.849000", "163255.852000", "163255.855000", "163255.858000", "163255.861000", "163255.864000", "163255.866000", "163255.869000", "163255.872000", "163255.875000", "163255.878000", "163255.881000", "163255.884000", "163255.887000", "163255.889000", "163255.892000", "163255.895000", "163255.898000", "163335.810000", "163335.813000", "163335.816000", "163335.819000", "163335.821000", "163335.824000", "163335.827000", "163335.830000", "163335.833000", "163335.836000", "163335.839000", "163335.847000", "163335.850000", "163335.853000", "163335.856000", "163335.859000", "163335.861000", "163335.864000", "163335.867000", "163335.870000", "163335.873000", "163335.876000", "163335.879000", "163335.882000", "163335.884000", "163335.887000", "163335.890000", "163415.810000", "163415.813000", "163415.816000", "163415.819000", "163415.822000", "163415.825000", "163415.828000", "163415.831000", "163415.834000", "163415.836000", "163415.839000", "163415.842000", "163415.845000", "163415.848000", "163415.851000", "163415.853000", "163415.856000", "163415.859000", "163415.862000", "163415.865000", "163415.868000", "163415.871000", "163415.874000", "163415.877000", "163415.880000", "163415.882000", "163415.885000", "163455.810000", "163455.813000", "163455.816000", "163455.819000", "163455.822000", "163455.825000", "163455.828000", "163455.831000", "163455.833000", "163455.836000", "163455.839000", "163455.842000", "163455.845000", "163455.848000", "163455.851000", "163455.853000", "163455.856000", "163455.859000", "163455.862000", "163455.865000", "163455.868000", "163455.870000", "163455.873000", "163455.876000", "163455.879000", "163455.882000", "163455.885000", "163535.810000", "163535.813000", "163535.816000", "163535.819000", "163535.822000", "163535.825000", "163535.828000", "163535.830000", "163535.833000", "163535.836000", "163535.839000", "163535.842000", "163535.845000", "163535.848000", "163535.851000", "163535.854000", "163535.856000", "163535.859000", "163535.862000", "163535.865000", "163535.868000", "163535.871000", "163535.873000", "163535.876000", "163535.879000", "163535.882000", "163535.885000", "163555.810000", "163555.813000", "163555.816000", "163555.819000", "163555.822000", "163555.825000", "163555.827000", "163555.831000", "163555.833000", "163555.836000", "163555.839000", "163555.842000", "163555.845000", "163635.810000", "163635.813000", "163635.816000", "163635.819000", "163635.822000", "163635.825000", "163635.827000", "163635.830000", "163635.833000", "163635.836000", "163635.839000", "163635.842000", "163635.845000", "163635.848000", "163635.850000", "163635.853000", "163635.856000", "163635.859000", "163635.862000", "163635.865000", "163635.868000", "163635.871000", "163635.874000", "163635.877000", "163635.880000", "163635.883000", "163635.885000", "163715.810000", "163715.813000", "163715.816000", "163715.819000", "163715.822000", "163715.825000", "163715.828000", "163715.831000", "163715.833000", "163715.836000", "163715.839000", "163715.842000", "163715.845000", "163715.848000", "163715.851000", "163715.854000", "163715.856000", "163715.859000", "163715.862000", "163715.865000", "163715.868000", "163715.871000", "163715.874000", "163715.877000", "163715.879000", "163715.882000", "163715.885000", "163755.810000", "163755.813000", "163755.816000", "163755.819000", "163755.822000", "163755.825000", "163755.828000", "163755.831000", "163755.833000", "163755.837000", "163755.839000", "163755.842000", "163755.845000", "163755.848000", "163755.851000", "163755.854000", "163755.857000", "163755.860000", "163755.862000", "163755.865000", "163755.868000", "163755.871000", "163755.874000", "163755.877000", "163755.880000", "163755.908000", "163755.911000", "163835.810000", "163835.813000", "163835.816000", "163835.819000", "163835.822000", "163835.825000", "163835.828000", "163835.830000", "163835.834000", "163835.836000", "163835.839000", "163835.842000", "163835.845000", "163835.848000", "163835.851000", "163835.854000", "163835.857000", "163835.860000", "163835.862000", "163835.865000", "163835.868000", "163835.871000", "163835.874000", "163835.877000", "163835.880000", "163835.883000", "163835.886000", "163915.810000", "163915.813000", "163915.816000", "163915.819000", "163915.822000", "163915.825000", "163915.828000", "163915.831000", "163915.833000", "163915.837000", "163915.840000", "163915.843000", "163915.846000", "163915.849000", "163915.852000", "163915.855000", "163915.858000", "163915.861000", "163915.864000", "163915.867000", "163915.869000", "163915.872000", "163915.875000", "163915.878000", "163915.881000", "163915.884000", "163955.810000", "163955.818000", "163955.821000", "163955.824000", "163955.827000", "163955.830000", "163955.833000", "163955.836000", "163955.839000", "163955.842000", "163955.845000", "163955.848000", "163955.850000", "163955.853000", "163955.856000", "163955.859000", "163955.862000", "163955.865000", "163955.868000", "163955.871000", "163955.874000", "163955.877000", "163955.880000", "163955.882000", "163955.885000", "163955.888000", "163955.891000", "164035.810000", "164035.813000", "164035.816000", "164035.819000", "164035.822000", "164035.825000", "164035.828000", "164035.831000", "164035.834000", "164035.837000", "164035.840000", "164035.843000", "164035.846000", "164035.849000", "164035.851000", "164035.854000", "164035.857000", "164035.860000", "164035.863000", "164035.866000", "164035.869000", "164035.872000", "164035.875000", "164035.878000", "164035.881000", "164035.885000", "164035.888000", "164115.810000", "164115.813000", "164115.816000", "164115.819000", "164115.822000", "164115.825000", "164115.828000", "164115.831000", "164115.833000", "164115.836000", "164115.839000", "164115.842000", "164115.845000", "164115.848000", "164115.851000", "164115.854000", "164115.857000", "164115.859000", "164115.862000", "164115.865000", "164115.868000", "164115.871000", "164115.874000", "164115.877000", "164115.880000", "164115.882000", "164115.885000", "164119.559000", "164119.563000", "164119.566000"],
