{
  "AcquisitionMatrixPE": 104,
  "AcquisitionNumber": 1,
  "AcquisitionTime": "17:15:1.770000",
  "BandwidthPerPixelPhaseEncode": 17.17,
  "BaseResolution": 104,
  "BodyPartExamined": "BRAIN",
  "CoilString": "HC1-7;NC1_2",
  "ConsistencyInfo": "N4_VE11C_LATEST_20160120",
  "ConversionSoftware": "dcm2niix",
  "ConversionSoftwareVersion": "v1.0.20200427",
  "DerivedVendorReportedEchoSpacing": 0.000560011,
  "DeviceSerialNumber": "167006",
  "DwellTime": 2.1e-06,
  "EchoTime": 0.037,
  "EchoTrainLength": 104,
  "EffectiveEchoSpacing": 0.000560011,
  "FlipAngle": 52,
  "ImageComments": "Unaliased_MB4_PE3_LB",
  "ImageOrientationPatientDICOM": [0.999486, -0.0320126, -0.00162125, 0.0291403, 0.92855, -0.370061],
  "ImageType": [
    "ORIGINAL",
    "PRIMARY",
    "M",
    "MB",
    "ND",
    "MOSAIC"
],
  "ImagingFrequency": 123.259,
  "InPlanePhaseEncodingDirectionDICOM": "COL",
  "InstitutionAddress": "Chemin_Queen-Mary_4565_Montreal_District_CA_H3W_1W5",
  "InstitutionName": "IUGM",
  "InstitutionalDepartmentName": "Department",
  "MRAcquisitionType": "2D",
  "MagneticFieldStrength": 3,
  "Manufacturer": "Siemens",
  "ManufacturersModelName": "Prisma_fit",
  "Modality": "MR",
  "MultibandAccelerationFactor": 4,
  "PartialFourier": 1,
  "PatientPosition": "HFS",
  "PercentPhaseFOV": 100,
  "PercentSampling": 100,
  "PhaseEncodingDirection": "j",
  "PhaseEncodingSteps": 104,
  "PhaseResolution": 1,
  "PixelBandwidth": 2290,
  "ProcedureStepDescription": "video_friends",
  "ProtocolName": "func_task-friends-s03e04a",
  "PulseSequenceDetails": "%CustomerSeq%_cmrr_mbep2d_bold",
  "ReceiveCoilActiveElements": "HC1-7;NC1,2",
  "ReceiveCoilName": "HeadNeck_64",
  "ReconMatrixPE": 104,
  "RepetitionTime": 1.49,
  "SAR": 0.0302357,
  "ScanOptions": "FS",
  "ScanningSequence": "EP",
  "SequenceName": "epfid2d1_104",
  "SequenceVariant": "SK_SS",
  "SeriesDescription": "func_task-friends-s03e04a",
  "SeriesNumber": 21,
  "ShimSetting": [633, -7264, -8835, 562, 26, -231, -91, -8],
  "SliceThickness": 2,
  "SliceTiming": [0, 0.785, 0.0975, 0.8825, 0.195, 0.98, 0.295, 1.0775, 0.3925, 1.175, 0.49, 1.275, 0.5875, 1.3725, 0.685, 0, 0.785, 0.0975, 0.8825, 0.195, 0.98, 0.295, 1.0775, 0.3925, 1.175, 0.49, 1.275, 0.5875, 1.3725, 0.685, 0, 0.785, 0.0975, 0.8825, 0.195, 0.98, 0.295, 1.0775, 0.3925, 1.175, 0.49, 1.275, 0.5875, 1.3725, 0.685, 0, 0.785, 0.0975, 0.8825, 0.195, 0.98, 0.295, 1.0775, 0.3925, 1.175, 0.49, 1.275, 0.5875, 1.3725, 0.685],
  "SoftwareVersions": "syngo_MR_E11",
  "SpacingBetweenSlices": 2,
  "StationName": "MRC35049",
  "TaskName": "s03e04a",
  "TotalReadoutTime": 0.0576811,
  "TxRefAmp": 217.947,
  "WipMemBlock": "8064354b-50e7-40e6-8e74-a033893bd132||Sequence: R016 ve11c/master r/e634e98; Dec 19 2017 11:00:25 by eja",
  "dcmmeta_affine": [
    [-1.9989722967147827, 0.058280594646930695, -0.026704035699367523, 99.87210845947266],
    [0.0640251487493515, 1.8571006059646606, -0.739647388458252, -74.14573669433594],
    [-0.003242493374273181, 0.7401221990585327, 1.8580119609832764, -67.55412292480469],
    [0.0, 0.0, 0.0, 1.0]
],
  "dcmmeta_reorient_transform": [
    [0.0, -1.0, 0.0, 103.0],
    [1.0, 0.0, 0.0, 0.0],
    [0.0, 0.0, 1.0, 0.0],
    [0.0, 0.0, 0.0, 1.0]
],
  "dcmmeta_shape": [104, 104, 60, 473],
  "dcmmeta_slice_dim": 2,
  "dcmmeta_version": 0.6,
  "global": {
    "const": {
      "AcquisitionMatrix": [104, 0, 0, 104],
      "AngioFlag": "N",
      "BitsAllocated": 16,
      "BitsStored": 16,
      "BodyPartExamined": "BRAIN",
      "Columns": 832,
      "EchoNumbers": 1,
      "EchoTime": 37.0,
      "EchoTrainLength": 104,
      "FlipAngle": 52.0,
      "HighBit": 15,
      "ImageOrientationPatient": [0.99948615131385, -0.0320125739536, -0.0016212466444, 0.02914029791254, 0.92855028064689, -0.370061102182],
      "ImagePositionPatient": [-854.71506568734, -769.8150724235, 279.26321466607],
      "ImageType": [
        "ORIGINAL",
        "PRIMARY",
        "M",
        "MB",
        "ND",
        "MOSAIC"
],
      "ImagedNucleus": "1H",
      "ImagingFrequency": 123.259052,
      "InPlanePhaseEncodingDirection": "COL",
      "MRAcquisitionType": "2D",
      "MagneticFieldStrength": 3.0,
      "Manufacturer": "SIEMENS",
      "ManufacturerModelName": "Prisma_fit",
      "Modality": "MR",
      "NumberOfAverages": 1.0,
      "NumberOfPhaseEncodingSteps": 104,
      "PercentPhaseFieldOfView": 100.0,
      "PercentSampling": 100.0,
      "PerformedProcedureStepStartTime": "155722.883000",
      "PhotometricInterpretation": "MONOCHROME2",
      "PixelBandwidth": 2290.0,
      "PixelRepresentation": 0,
      "PixelSpacing": [2.0, 2.0],
      "ProtocolName": "func_task-friends-s03e04a",
      "RepetitionTime": 1490.0,
      "Rows": 832,
      "SAR": 0.03023569866347,
      "SamplesPerPixel": 1,
      "ScanOptions": "FS",
      "ScanningSequence": "EP",
      "SequenceName": "epfid2d1_104",
      "SequenceVariant": [
        "SK",
        "SS"
],
      "SeriesDescription": "func_task-friends-s03e04a",
      "SeriesNumber": 21,
      "SeriesTime": "171629.433000",
      "SliceLocation": -36.670828653641,
      "SliceThickness": 2.0,
      "SmallestImagePixelValue": 0,
      "SoftwareVersions": "syngo MR E11",
      "SpacingBetweenSlices": 2.0000000119987,
      "SpecificCharacterSet": "ISO_IR 100",
      "StudyID": "1",
      "StudyTime": "155722.806000",
      "TransmitCoilName": "Body",
      "VariableFlipAngleFlag": "N",
      "WindowCenterWidthExplanation": "Algo1",
      "dBdt": 0.0},
    "slices": {}
  },
  "time": {
    "samples": {
      "AcquisitionNumber": [1, 2, 3, 4, 5, 6, 7, 8, 9, 10, 11, 12, 13, 14, 15, 16, 17, 18, 19, 20, 21, 22, 23, 24, 25, 26, 27, 28, 29, 30, 31, 32, 33, 34, 35, 36, 37, 38, 39, 40, 41, 42, 43, 44, 45, 46, 47, 48, 49, 50, 51, 52, 53, 54, 55, 56, 57, 58, 59, 60, 61, 62, 63, 64, 65, 66, 67, 68, 69, 70, 71, 72, 73, 74, 75, 76, 77, 78, 79, 80, 81, 82, 83, 84, 85, 86, 87, 88, 89, 90, 91, 92, 93, 94, 95, 96, 97, 98, 99, 100, 101, 102, 103, 104, 105, 106, 107, 108, 109, 110, 111, 112, 113, 114, 115, 116, 117, 118, 119, 120, 121, 122, 123, 124, 125, 126, 127, 128, 129, 130, 131, 132, 133, 134, 135, 136, 137, 138, 139, 140, 141, 142, 143, 144, 145, 146, 147, 148, 149, 150, 151, 152, 153, 154, 155, 156, 157, 158, 159, 160, 161, 162, 163, 164, 165, 166, 167, 168, 169, 170, 171, 172, 173, 174, 175, 176, 177, 178, 179, 180, 181, 182, 183, 184, 185, 186, 187, 188, 189, 190, 191, 192, 193, 194, 195, 196, 197, 198, 199, 200, 201, 202, 203, 204, 205, 206, 207, 208, 209, 210, 211, 212, 213, 214, 215, 216, 217, 218, 219, 220, 221, 222, 223, 224, 225, 226, 227, 228, 229, 230, 231, 232, 233, 234, 235, 236, 237, 238, 239, 240, 241, 242, 243, 244, 245, 246, 247, 248, 249, 250, 251, 252, 253, 254, 255, 256, 257, 258, 259, 260, 261, 262, 263, 264, 265, 266, 267, 268, 269, 270, 271, 272, 273, 274, 275, 276, 277, 278, 279, 280, 281, 282, 283, 284, 285, 286, 287, 288, 289, 290, 291, 292, 293, 294, 295, 296, 297, 298, 299, 300, 301, 302, 303, 304, 305, 306, 307, 308, 309, 310, 311, 312, 313, 314, 315, 316, 317, 318, 319, 320, 321, 322, 323, 324, 325, 326, 327, 328, 329, 330, 331, 332, 333, 334, 335, 336, 337, 338, 339, 340, 341, 342, 343, 344, 345, 346, 347, 348, 349, 350, 351, 352, 353, 354, 355, 356, 357, 358, 359, 360, 361, 362, 363, 364, 365, 366, 367, 368, 369, 370, 371, 372, 373, 374, 375, 376, 377, 378, 379, 380, 381, 382, 383, 384, 385, 386, 387, 388, 389, 390, 391, 392, 393, 394, 395, 396, 397, 398, 399, 400, 401, 402, 403, 404, 405, 406, 407, 408, 409, 410, 411, 412, 413, 414, 415, 416, 417, 418, 419, 420, 421, 422, 423, 424, 425, 426, 427, 428, 429, 430, 431, 432, 433, 434, 435, 436, 437, 438, 439, 440, 441, 442, 443, 444, 445, 446, 447, 448, 449, 450, 451, 452, 453, 454, 455, 456, 457, 458, 459, 460, 461, 462, 463, 464, 465, 466, 467, 468, 469, 470, 471, 472, 473],
      "AcquisitionTime": ["171501.770000", "171503.260000", "171504.750000", "171506.240000", "171507.730000", "171509.220000", "171510.710000", "171512.200000", "171513.690000", "171515.180000", "171516.670000", "171518.160000", "171519.650000", "171521.140000", "171522.630000", "171524.120000", "171525.610000", "171527.100000", "171528.590000", "171530.080000", "171531.570000", "171533.060000", "171534.550000", "171536.040000", "171537.530000", "171539.020000", "171540.510000", "171542.000000", "171543.490000", "171544.980000", "171546.470000", "171547.960000", "171549.450000", "171550.940000", "171552.430000", "171553.920000", "171555.410000", "171556.900000", "171558.390000", "171559.880000", "171601.370000", "171602.860000", "171604.350000", "171605.840000", "171607.330000", "171608.820000", "171610.310000", "171611.800000", "171613.290000", "171614.780000", "171616.270000", "171617.760000", "171619.250000", "171620.740000", "171622.230000", "171623.720000", "171625.210000", "171626.700000", "171628.190000", "171629.680000", "171631.170000", "171632.660000", "171634.150000", "171635.640000", "171637.130000", "171638.620000", "171640.110000", "171641.600000", "171643.090000", "171644.580000", "171646.070000", "171647.560000", "171649.050000", "171650.540000", "171652.030000", "171653.520000", "171655.010000", "171656.500000", "171657.990000", "171659.480000", "171700.970000", "171702.460000", "171703.950000", "171705.440000", "171706.930000", "171708.420000", "171709.910000", "171711.400000", "171712.890000", "171714.380000", "171715.870000", "171717.360000", "171718.850000", "171720.340000", "171721.830000", "171723.320000", "171724.810000", "171726.300000", "171727.790000", "171729.280000", "171730.770000", "171732.260000", "171733.750000", "171735.240000", "171736.730000", "171738.220000", "171739.710000", "171741.200000", "171742.690000", "171744.180000", "171745.670000", "171747.160000", "171748.650000", "171750.140000", "171751.630000", "171753.120000", "171754.610000", "171756.100000", "171757.590000", "171759.080000", "171800.570000", "171802.060000", "171803.550000", "171805.040000", "171806.530000", "171808.020000", "171809.510000", "171811.000000", "171812.490000", "171813.980000", "171815.470000", "171816.960000", "171818.450000", "171819.940000", "171821.430000", "171822.920000", "171824.410000", "171825.900000", "171827.390000", "171828.880000", "171830.370000", "171831.860000", "171833.350000", "171834.840000", "171836.330000", "171837.820000", "171839.310000", "171840.800000", "171842.290000", "171843.780000", "171845.270000", "171846.760000", "171848.250000", "171849.740000", "171851.230000", "171852.720000", "171854.210000", "171855.700000", "171857.190000", "171858.680000", "171900.170000", "171901.660000", "171903.150000", "171904.640000", "171906.130000", "171907.620000", "171909.110000", "171910.600000", "171912.090000", "171913.580000", "171915.070000", "171916.560000", "171918.050000", "171919.540000", "171921.030000", "171922.520000", "171924.010000", "171925.500000", "171926.990000", "171928.480000", "171929.970000", "171931.460000", "171932.950000", "171934.440000", "171935.930000", "171937.420000", "171938.910000", "171940.400000", "171941.890000", "171943.380000", "171944.870000", "171946.360000", "171947.850000", "171949.340000", "171950.830000", "171952.320000", "171953.810000", "171955.300000", "171956.790000", "171958.280000", "171959.770000", "172001.260000", "172002.750000", "172004.240000", "172005.730000", "172007.220000", "172008.710000", "172010.200000", "172011.690000", "172013.180000", "172014.670000", "172016.160000", "172017.650000", "172019.140000", "172020.630000", "172022.120000", "172023.610000", "172025.100000", "172026.590000", "172028.080000", "172029.570000", "172031.060000", "172032.550000", "172034.040000", "172035.530000", "172037.020000", "172038.510000", "172040.000000", "172041.490000", "172042.980000", "172044.470000", "172045.960000", "172047.450000", "172048.940000", "172050.430000", "172051.920000", "172053.410000", "172054.900000", "172056.390000", "172057.880000", "172059.370000", "172100.860000", "172102.350000", "172103.840000", "172105.330000", "172106.820000", "172108.310000", "172109.800000", "172111.290000", "172112.780000", "172114.270000", "172115.760000", "172117.250000", "172118.740000", "172120.230000", "172121.720000", "172123.210000", "172124.700000", "172126.190000", "172127.680000", "172129.170000", "172130.660000", "172132.150000", "172133.640000", "172135.130000", "172136.620000", "172138.110000", "172139.600000", "172141.090000", "172142.580000", "172144.070000", "172145.560000", "172147.050000", "172148.540000", "172150.030000", "172151.520000", "172153.010000", "172154.500000", "172155.990000", "172157.480000", "172158.970000", "172200.460000", "172201.950000", "172203.440000", "172204.930000", "172206.420000", "172207.910000", "172209.400000", "172210.890000", "172212.380000", "172213.870000", "172215.360000", "172216.850000", "172218.340000", "172219.830000", "172221.320000", "172222.810000", "172224.300000", "172225.790000", "172227.280000", "172228.770000", "172230.260000", "172231.750000", "172233.240000", "172234.730000", "172236.220000", "172237.710000", "172239.200000", "172240.690000", "172242.180000", "172243.670000", "172245.160000", "172246.650000", "172248.140000", "172249.630000", "172251.120000", "172252.610000", "172254.100000", "172255.590000", "172257.080000", "172258.570000", "172300.060000", "172301.550000", "172303.040000", "172304.530000", "172306.020000", "172307.510000", "172309.000000", "172310.490000", "172311.980000", "172313.470000", "172314.960000", "172316.450000", "172317.940000", "172319.430000", "172320.920000", "172322.410000", "172323.900000", "172325.390000", "172326.880000", "172328.370000", "172329.860000", "172331.350000", "172332.840000", "172334.330000", "172335.820000", "172337.310000", "172338.800000", "172340.290000", "172341.780000", "172343.270000", "172344.760000", "172346.250000", "172347.740000", "172349.230000", "172350.720000", "172352.210000", "172353.700000", "172355.190000", "172356.680000", "172358.170000", "172359.660000", "172401.150000", "172402.640000", "172404.130000", "172405.620000", "172407.110000", "172408.600000", "172410.090000", "172411.580000", "172413.070000", "172414.560000", "172416.050000", "172417.540000", "172419.030000", "172420.520000", "172422.010000", "172423.500000", "172424.990000", "172426.480000", "172427.970000", "172429.460000", "172430.950000", "172432.440000", "172433.930000", "172435.420000", "172436.910000", "172438.400000", "172439.890000", "172441.380000", "172442.870000", "172444.360000", "172445.850000", "172447.340000", "172448.830000", "172450.320000", "172451.810000", "172453.300000", "172454.790000", "172456.280000", "172457.770000", "172459.260000", "172500.750000", "172502.240000", "172503.730000", "172505.220000", "172506.710000", "172508.200000", "172509.690000", "172511.180000", "172512.670000", "172514.160000", "172515.650000", "172517.140000", "172518.630000", "172520.120000", "172521.610000", "172523.100000", "172524.590000", "172526.080000", "172527.570000", "172529.060000", "172530.550000", "172532.040000", "172533.530000", "172535.020000", "172536.510000", "172538.000000", "172539.490000", "172540.980000", "172542.470000", "172543.960000", "172545.450000", "172546.940000", "172548.430000", "172549.920000", "172551.410000", "172552.900000", "172554.390000", "172555.880000", "172557.370000", "172558.860000", "172600.350000", "172601.840000", "172603.330000", "172604.820000", "172606.310000", "172607.800000", "172609.290000", "172610.780000", "172612.270000", "172613.760000", "172615.250000", "172616.740000", "172618.230000", "172619.720000", "172621.210000", "172622.700000", "172624.190000", "172625.680000", "172627.170000", "172628.660000", "172630.150000", "172631.640000", "172633.130000", "172634.620000", "172636.110000", "172637.600000", "172639.090000", "172640.580000", "172642.070000", "172643.560000", "172645.050000"],
      "ContentTime": ["171629.436000", "171629.439000", "171629.442000", "171629.445000", "171629.448000", "171629.451000", "171629.454000", "171629.457000", "171629.459000", "171629.462000", "171629.475000", "171629.478000", "171629.481000", "171629.484000", "171629.487000", "171629.490000", "171629.492000", "171629.495000", "171629.498000", "171629.501000", "171629.504000", "171629.507000", "171629.509000", "171629.512000", "171629.515000", "171629.518000", "171629.521000", "171629.524000", "171629.526000", "171629.529000", "171629.532000", "171629.535000", "171629.538000", "171629.540000", "171629.543000", "171649.408000", "171649.411000", "171649.414000", "171649.417000", "171649.430000", "171649.433000", "171649.436000", "171649.439000", "171649.441000", "171649.444000", "171649.454000", "171649.457000", "171649.460000", "171649.463000", "171649.466000", "171649.469000", "171649.471000", "171649.474000", "171649.477000", "171649.480000", "171709.408000", "171709.411000", "171709.414000", "171709.416000", "171709.419000", "171709.422000", "171709.425000", "171709.428000", "171709.431000", "171709.434000", "171709.436000", "171709.439000", "171709.442000", "171709.445000", "171709.448000", "171709.451000", "171709.454000", "171709.457000", "171709.459000", "171709.462000", "171709.465000", "171729.408000", "171729.411000", "171729.413000", "171729.416000", "171729.424000", "171729.427000", "171729.430000", "171729.433000", "171729.435000", "171729.439000", "171729.442000", "171729.445000", "171729.448000", "171729.451000", "171729.453000", "171729.456000", "171729.459000", "171729.462000", "171729.465000", "171729.467000", "171809.408000", "171809.411000", "171809.414000", "171809.417000", "171809.420000", "171809.422000", "171809.425000", "171809.428000", "171809.431000", "171809.434000", "171809.437000", "171809.439000", "171809.442000", "171809.445000", "171809.448000", "171809.451000", "171809.454000", "171809.456000", "171809.459000", "171809.462000", "171809.465000", "171809.468000", "171809.471000", "171809.474000", "171809.476000", "171809.479000", "171809.482000", "171809.485000", "171809.488000", "171849.408000", "171849.411000", "171849.414000", "171849.417000", "171849.419000", "171849.422000", "171849.425000", "171849.428000", "171849.431000", "171849.434000", "171849.436000", "171849.439000", "171849.442000", "171849.445000", "171849.448000", "171849.451000", "171849.454000", "171849.456000", "171849.459000", "171849.462000", "171849.465000", "171849.468000", "171849.471000", "171849.474000", "171849.477000", "171849.480000", "171849.482000", "171929.408000", "171929.411000", "171929.414000", "171929.417000", "171929.420000", "171929.422000", "171929.425000", "171929.428000", "171929.431000", "171929.434000", "171929.437000", "171929.440000", "171929.442000", "171929.445000", "171929.448000", "171929.451000", "171929.454000", "171929.456000", "171929.459000", "171929.469000", "171929.472000", "171929.475000", "171929.478000", "171929.480000", "171929.483000", "171929.486000", "171929.489000", "172009.408000", "172009.411000", "172009.414000", "172009.417000", "172009.420000", "172009.423000", "172009.425000", "172009.428000", "172009.431000", "172009.434000", "172009.437000", "172009.439000", "172009.442000", "172009.445000", "172009.448000", "172009.451000", "172009.454000", "172009.457000", "172009.459000", "172009.462000", "172009.465000", "172009.468000", "172009.471000", "172009.473000", "172009.476000", "172009.479000", "172009.482000", "172049.408000", "172049.411000", "172049.414000", "172049.416000", "172049.419000", "172049.422000", "172049.425000", "172049.428000", "172049.431000", "172049.434000", "172049.436000", "172049.439000", "172049.442000", "172049.445000", "172049.448000", "172049.451000", "172049.454000", "172049.456000", "172049.459000", "172049.462000", "172049.465000", "172049.468000", "172049.471000", "172049.474000", "172049.476000", "172049.479000", "172049.482000", "172129.408000", "172129.411000", "172129.414000", "172129.417000", "172129.420000", "172129.423000", "172129.425000", "172129.428000", "172129.431000", "172129.434000", "172129.437000", "172129.440000", "172129.443000", "172129.446000", "172129.449000", "172129.452000", "172129.454000", "172129.457000", "172129.460000", "172129.463000", "172129.466000", "172129.469000", "172129.472000", "172129.475000", "172129.477000", "172129.480000", "172209.408000", "172209.411000", "172209.414000", "172209.417000", "172209.420000", "172209.423000", "172209.425000", "172209.428000", "172209.431000", "172209.434000", "172209.437000", "172209.440000", "172209.443000", "172209.446000", "172209.448000", "172209.451000", "172209.454000", "172209.457000", "172209.460000", "172209.463000", "172209.465000", "172209.468000", "172209.471000", "172209.474000", "172209.477000", "172209.480000", "172209.483000", "172249.408000", "172249.411000", "172249.414000", "172249.417000", "172249.420000", "172249.422000", "172249.425000", "172249.428000", "172249.431000", "172249.434000", "172249.437000", "172249.440000", "172249.443000", "172249.445000", "172249.448000", "172249.451000", "172249.454000", "172249.457000", "172249.460000", "172249.462000", "172249.465000", "172249.468000", "172249.471000", "172249.474000", "172249.477000", "172249.480000", "172249.482000", "172329.408000", "172329.411000", "172329.414000", "172329.417000", "172329.420000", "172329.423000", "172329.426000", "172329.428000", "172329.431000", "172329.434000", "172329.437000", "172329.440000", "172329.443000", "172329.445000", "172329.448000", "172329.451000", "172329.454000", "172329.457000", "172329.460000", "172329.463000", "172329.466000", "172329.468000", "172329.471000", "172329.474000", "172329.477000", "172329.480000", "172329.483000", "172409.408000", "172409.411000", "172409.414000", "172409.417000", "172409.419000", "172409.422000", "172409.425000", "172409.428000", "172409.431000", "172409.434000", "172409.437000", "172409.439000", "172409.442000", "172409.445000", "172409.448000", "172409.451000", "172409.454000", "172409.456000", "172409.459000", "172409.462000", "172409.465000", "172409.468000", "172409.471000", "172409.473000", "172409.476000", "172409.479000", "172409.482000", "172449.408000", "172449.411000", "172449.414000", "172449.417000", "172449.419000", "172449.422000", "172449.425000", "172449.428000", "172449.431000", "172449.434000", "172449.437000", "172449.439000", "172449.442000", "172449.445000", "172449.448000", "172449.451000", "172449.454000", "172449.457000", "172449.460000", "172449.462000", "172449.465000", "172449.468000", "172449.471000", "172449.474000", "172449.477000", "172449.480000", "172449.482000", "172529.408000", "172529.411000", "172529.414000", "172529.416000", "172529.419000", "172529.422000", "172529.425000", "172529.428000", "172529.431000", "172529.434000", "172529.437000", "172529.439000", "172529.442000", "172529.445000", "172529.448000", "172529.451000", "172529.454000", "172529.457000", "172529.459000", "172529.462000", "172529.465000", "172529.479000", "172529.481000", "172529.484000", "172529.487000", "172529.490000", "172529.493000", "172609.408000", "172609.411000", "172609.414000", "172609.417000", "172609.420000", "172609.423000", "172609.426000", "172609.428000", "172609.431000", "172609.434000", "172609.437000", "172609.441000", "172609.444000", "172609.447000", "172609.450000", "172609.453000", "172609.456000", "172609.459000", "172609.462000", "172609.464000", "172609.467000", "172609.470000", "172609.473000", "172609.476000", "172609.479000", "172609.482000", "172646.876000", "172646.880000", "172646.882000", "172646.885000", "172646.888000", "172646.891000", "172646.894000", "172646.897000", "172646.900000", "172646.903000", "172646.906000", "172646.909000", "172646.911000", "172646.914000", "172646.917000", "172646.920000", "172646.923000", "172646.926000", "172646.928000", "172646.931000", "172646.934000", "172646.937000", "172646.940000", "172646.943000", "172646.946000", "172646.949000"],
