{
  "AcquisitionMatrixPE": 104,
  "AcquisitionNumber": 1,
  "AcquisitionTime": "16:26:30.290000",
  "BandwidthPerPixelPhaseEncode": 17.17,
  "BaseResolution": 104,
  "BodyPartExamined": "BRAIN",
  "CoilString": "HC1-7;NC1_2",
  "ConsistencyInfo": "N4_VE11C_LATEST_20160120",
  "ConversionSoftware": "dcm2niix",
  "ConversionSoftwareVersion": "v1.0.20200427",
  "DerivedVendorReportedEchoSpacing": 0.000560011,
  "DeviceSerialNumber": "167006",
  "DwellTime": 2.1e-06,
  "EchoTime": 0.037,
  "EchoTrainLength": 104,
  "EffectiveEchoSpacing": 0.000560011,
  "FlipAngle": 52,
  "ImageComments": "Unaliased_MB4_PE3_LB",
  "ImageOrientationPatientDICOM": [0.999486, -0.0320126, -0.00162125, 0.0291403, 0.92855, -0.370061],
  "ImageType": [
    "ORIGINAL",
    "PRIMARY",
    "M",
    "MB",
    "ND",
    "MOSAIC"
],
  "ImagingFrequency": 123.259,
  "InPlanePhaseEncodingDirectionDICOM": "COL",
  "InstitutionAddress": "Chemin_Queen-Mary_4565_Montreal_District_CA_H3W_1W5",
  "InstitutionName": "IUGM",
  "InstitutionalDepartmentName": "Department",
  "MRAcquisitionType": "2D",
  "MagneticFieldStrength": 3,
  "Manufacturer": "Siemens",
  "ManufacturersModelName": "Prisma_fit",
  "Modality": "MR",
  "MultibandAccelerationFactor": 4,
  "PartialFourier": 1,
  "PatientPosition": "HFS",
  "PercentPhaseFOV": 100,
  "PercentSampling": 100,
  "PhaseEncodingDirection": "j",
  "PhaseEncodingSteps": 104,
  "PhaseResolution": 1,
  "PixelBandwidth": 2290,
  "ProcedureStepDescription": "video_friends",
  "ProtocolName": "func_task-friends-s03e02a",
  "PulseSequenceDetails": "%CustomerSeq%_cmrr_mbep2d_bold",
  "ReceiveCoilActiveElements": "HC1-7;NC1,2",
  "ReceiveCoilName": "HeadNeck_64",
  "ReconMatrixPE": 104,
  "RepetitionTime": 1.49,
  "SAR": 0.0302362,
  "ScanOptions": "FS",
  "ScanningSequence": "EP",
  "SequenceName": "epfid2d1_104",
  "SequenceVariant": "SK_SS",
  "SeriesDescription": "func_task-friends-s03e02a",
  "SeriesNumber": 13,
  "ShimSetting": [633, -7264, -8835, 562, 26, -231, -91, -8],
  "SliceThickness": 2,
  "SliceTiming": [0, 0.785, 0.0975, 0.8825, 0.195, 0.98, 0.295, 1.0775, 0.3925, 1.175, 0.49, 1.275, 0.5875, 1.3725, 0.685, 0, 0.785, 0.0975, 0.8825, 0.195, 0.98, 0.295, 1.0775, 0.3925, 1.175, 0.49, 1.275, 0.5875, 1.3725, 0.685, 0, 0.785, 0.0975, 0.8825, 0.195, 0.98, 0.295, 1.0775, 0.3925, 1.175, 0.49, 1.275, 0.5875, 1.3725, 0.685, 0, 0.785, 0.0975, 0.8825, 0.195, 0.98, 0.295, 1.0775, 0.3925, 1.175, 0.49, 1.275, 0.5875, 1.3725, 0.685],
  "SoftwareVersions": "syngo_MR_E11",
  "SpacingBetweenSlices": 2,
  "StationName": "MRC35049",
  "TaskName": "s03e02a",
  "TotalReadoutTime": 0.0576811,
  "TxRefAmp": 217.947,
  "WipMemBlock": "f10dc128-4933-4205-b937-ee58c9edb224||Sequence: R016 ve11c/master r/e634e98; Dec 19 2017 11:00:25 by eja",
  "dcmmeta_affine": [
    [-1.9989722967147827, 0.058280594646930695, -0.026704035699367523, 99.87210845947266],
    [0.0640251487493515, 1.8571006059646606, -0.739647388458252, -74.14573669433594],
    [-0.003242493374273181, 0.7401221990585327, 1.8580119609832764, -67.55412292480469],
    [0.0, 0.0, 0.0, 1.0]
],
  "dcmmeta_reorient_transform": [
    [0.0, -1.0, 0.0, 103.0],
    [1.0, 0.0, 0.0, 0.0],
    [0.0, 0.0, 1.0, 0.0],
    [0.0, 0.0, 0.0, 1.0]
],
  "dcmmeta_shape": [104, 104, 60, 475],
  "dcmmeta_slice_dim": 2,
  "dcmmeta_version": 0.6,
  "global": {
    "const": {
      "AcquisitionMatrix": [104, 0, 0, 104],
      "AngioFlag": "N",
      "BitsAllocated": 16,
      "BitsStored": 16,
      "BodyPartExamined": "BRAIN",
      "Columns": 832,
      "EchoNumbers": 1,
      "EchoTime": 37.0,
      "EchoTrainLength": 104,
      "FlipAngle": 52.0,
      "HighBit": 15,
      "ImageOrientationPatient": [0.99948615131385, -0.0320125739536, -0.0016212466444, 0.02914029791254, 0.92855028064689, -0.370061102182],
      "ImagePositionPatient": [-854.71506568734, -769.8150724235, 279.26321466607],
      "ImageType": [
        "ORIGINAL",
        "PRIMARY",
        "M",
        "MB",
        "ND",
        "MOSAIC"
],
      "ImagedNucleus": "1H",
      "ImagingFrequency": 123.25904,
      "InPlanePhaseEncodingDirection": "COL",
      "MRAcquisitionType": "2D",
      "MagneticFieldStrength": 3.0,
      "Manufacturer": "SIEMENS",
      "ManufacturerModelName": "Prisma_fit",
      "Modality": "MR",
      "NumberOfAverages": 1.0,
      "NumberOfPhaseEncodingSteps": 104,
      "PercentPhaseFieldOfView": 100.0,
      "PercentSampling": 100.0,
      "PerformedProcedureStepStartTime": "155722.883000",
      "PhotometricInterpretation": "MONOCHROME2",
      "PixelBandwidth": 2290.0,
      "PixelRepresentation": 0,
      "PixelSpacing": [2.0, 2.0],
      "ProtocolName": "func_task-friends-s03e02a",
      "RepetitionTime": 1490.0,
      "Rows": 832,
      "SAR": 0.03023623087231,
      "SamplesPerPixel": 1,
      "ScanOptions": "FS",
      "ScanningSequence": "EP",
      "SequenceName": "epfid2d1_104",
      "SequenceVariant": [
        "SK",
        "SS"
],
      "SeriesDescription": "func_task-friends-s03e02a",
      "SeriesNumber": 13,
      "SeriesTime": "162801.962000",
      "SliceLocation": -36.670828653641,
      "SliceThickness": 2.0,
      "SmallestImagePixelValue": 0,
      "SoftwareVersions": "syngo MR E11",
      "SpacingBetweenSlices": 2.0000000119987,
      "SpecificCharacterSet": "ISO_IR 100",
      "StudyID": "1",
      "StudyTime": "155722.806000",
      "TransmitCoilName": "Body",
      "VariableFlipAngleFlag": "N",
      "WindowCenterWidthExplanation": "Algo1",
      "dBdt": 0.0},
    "slices": {}
  },
  "time": {
    "samples": {
      "AcquisitionNumber": [1, 2, 3, 4, 5, 6, 7, 8, 9, 10, 11, 12, 13, 14, 15, 16, 17, 18, 19, 20, 21, 22, 23, 24, 25, 26, 27, 28, 29, 30, 31, 32, 33, 34, 35, 36, 37, 38, 39, 40, 41, 42, 43, 44, 45, 46, 47, 48, 49, 50, 51, 52, 53, 54, 55, 56, 57, 58, 59, 60, 61, 62, 63, 64, 65, 66, 67, 68, 69, 70, 71, 72, 73, 74, 75, 76, 77, 78, 79, 80, 81, 82, 83, 84, 85, 86, 87, 88, 89, 90, 91, 92, 93, 94, 95, 96, 97, 98, 99, 100, 101, 102, 103, 104, 105, 106, 107, 108, 109, 110, 111, 112, 113, 114, 115, 116, 117, 118, 119, 120, 121, 122, 123, 124, 125, 126, 127, 128, 129, 130, 131, 132, 133, 134, 135, 136, 137, 138, 139, 140, 141, 142, 143, 144, 145, 146, 147, 148, 149, 150, 151, 152, 153, 154, 155, 156, 157, 158, 159, 160, 161, 162, 163, 164, 165, 166, 167, 168, 169, 170, 171, 172, 173, 174, 175, 176, 177, 178, 179, 180, 181, 182, 183, 184, 185, 186, 187, 188, 189, 190, 191, 192, 193, 194, 195, 196, 197, 198, 199, 200, 201, 202, 203, 204, 205, 206, 207, 208, 209, 210, 211, 212, 213, 214, 215, 216, 217, 218, 219, 220, 221, 222, 223, 224, 225, 226, 227, 228, 229, 230, 231, 232, 233, 234, 235, 236, 237, 238, 239, 240, 241, 242, 243, 244, 245, 246, 247, 248, 249, 250, 251, 252, 253, 254, 255, 256, 257, 258, 259, 260, 261, 262, 263, 264, 265, 266, 267, 268, 269, 270, 271, 272, 273, 274, 275, 276, 277, 278, 279, 280, 281, 282, 283, 284, 285, 286, 287, 288, 289, 290, 291, 292, 293, 294, 295, 296, 297, 298, 299, 300, 301, 302, 303, 304, 305, 306, 307, 308, 309, 310, 311, 312, 313, 314, 315, 316, 317, 318, 319, 320, 321, 322, 323, 324, 325, 326, 327, 328, 329, 330, 331, 332, 333, 334, 335, 336, 337, 338, 339, 340, 341, 342, 343, 344, 345, 346, 347, 348, 349, 350, 351, 352, 353, 354, 355, 356, 357, 358, 359, 360, 361, 362, 363, 364, 365, 366, 367, 368, 369, 370, 371, 372, 373, 374, 375, 376, 377, 378, 379, 380, 381, 382, 383, 384, 385, 386, 387, 388, 389, 390, 391, 392, 393, 394, 395, 396, 397, 398, 399, 400, 401, 402, 403, 404, 405, 406, 407, 408, 409, 410, 411, 412, 413, 414, 415, 416, 417, 418, 419, 420, 421, 422, 423, 424, 425, 426, 427, 428, 429, 430, 431, 432, 433, 434, 435, 436, 437, 438, 439, 440, 441, 442, 443, 444, 445, 446, 447, 448, 449, 450, 451, 452, 453, 454, 455, 456, 457, 458, 459, 460, 461, 462, 463, 464, 465, 466, 467, 468, 469, 470, 471, 472, 473, 474, 475],
      "AcquisitionTime": ["162630.290000", "162631.780000", "162633.270000", "162634.760000", "162636.250000", "162637.740000", "162639.230000", "162640.720000", "162642.210000", "162643.700000", "162645.190000", "162646.680000", "162648.170000", "162649.660000", "162651.150000", "162652.640000", "162654.130000", "162655.620000", "162657.110000", "162658.600000", "162700.090000", "162701.580000", "162703.070000", "162704.560000", "162706.050000", "162707.540000", "162709.030000", "162710.520000", "162712.010000", "162713.500000", "162714.990000", "162716.480000", "162717.970000", "162719.460000", "162720.950000", "162722.440000", "162723.930000", "162725.420000", "162726.910000", "162728.400000", "162729.890000", "162731.380000", "162732.870000", "162734.360000", "162735.850000", "162737.340000", "162738.830000", "162740.320000", "162741.810000", "162743.300000", "162744.790000", "162746.280000", "162747.770000", "162749.260000", "162750.750000", "162752.240000", "162753.730000", "162755.220000", "162756.710000", "162758.200000", "162759.690000", "162801.180000", "162802.670000", "162804.160000", "162805.650000", "162807.140000", "162808.630000", "162810.120000", "162811.610000", "162813.100000", "162814.590000", "162816.080000", "162817.570000", "162819.060000", "162820.550000", "162822.040000", "162823.530000", "162825.020000", "162826.510000", "162828.000000", "162829.490000", "162830.980000", "162832.470000", "162833.960000", "162835.450000", "162836.940000", "162838.430000", "162839.920000", "162841.410000", "162842.900000", "162844.390000", "162845.880000", "162847.370000", "162848.860000", "162850.350000", "162851.840000", "162853.330000", "162854.820000", "162856.310000", "162857.800000", "162859.290000", "162900.780000", "162902.270000", "162903.760000", "162905.250000", "162906.740000", "162908.230000", "162909.720000", "162911.210000", "162912.700000", "162914.190000", "162915.680000", "162917.170000", "162918.660000", "162920.150000", "162921.640000", "162923.130000", "162924.620000", "162926.110000", "162927.600000", "162929.090000", "162930.580000", "162932.070000", "162933.560000", "162935.050000", "162936.540000", "162938.030000", "162939.520000", "162941.010000", "162942.500000", "162943.990000", "162945.480000", "162946.970000", "162948.460000", "162949.950000", "162951.440000", "162952.930000", "162954.420000", "162955.910000", "162957.400000", "162958.890000", "163000.380000", "163001.870000", "163003.360000", "163004.850000", "163006.340000", "163007.830000", "163009.320000", "163010.810000", "163012.300000", "163013.790000", "163015.280000", "163016.770000", "163018.260000", "163019.750000", "163021.240000", "163022.730000", "163024.220000", "163025.710000", "163027.200000", "163028.690000", "163030.180000", "163031.670000", "163033.160000", "163034.650000", "163036.140000", "163037.630000", "163039.120000", "163040.610000", "163042.100000", "163043.590000", "163045.080000", "163046.570000", "163048.060000", "163049.550000", "163051.040000", "163052.530000", "163054.020000", "163055.510000", "163057.000000", "163058.490000", "163059.980000", "163101.470000", "163102.960000", "163104.450000", "163105.940000", "163107.430000", "163108.920000", "163110.410000", "163111.900000", "163113.390000", "163114.880000", "163116.370000", "163117.860000", "163119.350000", "163120.840000", "163122.330000", "163123.820000", "163125.310000", "163126.800000", "163128.290000", "163129.780000", "163131.270000", "163132.760000", "163134.250000", "163135.740000", "163137.230000", "163138.720000", "163140.210000", "163141.700000", "163143.190000", "163144.680000", "163146.170000", "163147.660000", "163149.150000", "163150.640000", "163152.130000", "163153.620000", "163155.110000", "163156.600000", "163158.090000", "163159.580000", "163201.070000", "163202.560000", "163204.050000", "163205.540000", "163207.030000", "163208.520000", "163210.010000", "163211.500000", "163212.990000", "163214.480000", "163215.970000", "163217.460000", "163218.950000", "163220.440000", "163221.930000", "163223.420000", "163224.910000", "163226.400000", "163227.890000", "163229.380000", "163230.870000", "163232.360000", "163233.850000", "163235.340000", "163236.830000", "163238.320000", "163239.810000", "163241.300000", "163242.790000", "163244.280000", "163245.770000", "163247.260000", "163248.750000", "163250.240000", "163251.730000", "163253.220000", "163254.710000", "163256.200000", "163257.690000", "163259.180000", "163300.670000", "163302.160000", "163303.650000", "163305.140000", "163306.630000", "163308.120000", "163309.610000", "163311.100000", "163312.590000", "163314.080000", "163315.570000", "163317.060000", "163318.550000", "163320.040000", "163321.530000", "163323.020000", "163324.510000", "163326.000000", "163327.490000", "163328.980000", "163330.470000", "163331.960000", "163333.450000", "163334.940000", "163336.430000", "163337.920000", "163339.410000", "163340.900000", "163342.390000", "163343.880000", "163345.370000", "163346.860000", "163348.350000", "163349.840000", "163351.330000", "163352.820000", "163354.310000", "163355.800000", "163357.290000", "163358.780000", "163400.270000", "163401.760000", "163403.250000", "163404.740000", "163406.230000", "163407.720000", "163409.210000", "163410.700000", "163412.190000", "163413.680000", "163415.170000", "163416.660000", "163418.150000", "163419.640000", "163421.130000", "163422.620000", "163424.110000", "163425.600000", "163427.090000", "163428.580000", "163430.070000", "163431.560000", "163433.050000", "163434.540000", "163436.030000", "163437.520000", "163439.010000", "163440.500000", "163441.990000", "163443.480000", "163444.970000", "163446.460000", "163447.950000", "163449.440000", "163450.930000", "163452.420000", "163453.910000", "163455.400000", "163456.890000", "163458.380000", "163459.870000", "163501.360000", "163502.850000", "163504.340000", "163505.830000", "163507.320000", "163508.810000", "163510.300000", "163511.790000", "163513.280000", "163514.770000", "163516.260000", "163517.750000", "163519.240000", "163520.730000", "163522.220000", "163523.710000", "163525.200000", "163526.690000", "163528.180000", "163529.670000", "163531.160000", "163532.650000", "163534.140000", "163535.630000", "163537.120000", "163538.610000", "163540.100000", "163541.590000", "163543.080000", "163544.570000", "163546.060000", "163547.550000", "163549.040000", "163550.530000", "163552.020000", "163553.510000", "163555.000000", "163556.490000", "163557.980000", "163559.470000", "163600.960000", "163602.450000", "163603.940000", "163605.430000", "163606.920000", "163608.410000", "163609.900000", "163611.390000", "163612.880000", "163614.370000", "163615.860000", "163617.350000", "163618.840000", "163620.330000", "163621.820000", "163623.310000", "163624.800000", "163626.290000", "163627.780000", "163629.270000", "163630.760000", "163632.250000", "163633.740000", "163635.230000", "163636.720000", "163638.210000", "163639.700000", "163641.190000", "163642.680000", "163644.170000", "163645.660000", "163647.150000", "163648.640000", "163650.130000", "163651.620000", "163653.110000", "163654.600000", "163656.090000", "163657.580000", "163659.070000", "163700.560000", "163702.050000", "163703.540000", "163705.030000", "163706.520000", "163708.010000", "163709.500000", "163710.990000", "163712.480000", "163713.970000", "163715.460000", "163716.950000", "163718.440000", "163719.930000", "163721.420000", "163722.910000", "163724.400000", "163725.890000", "163727.380000", "163728.870000", "163730.360000", "163731.850000", "163733.340000", "163734.830000", "163736.320000", "163737.810000", "163739.300000", "163740.790000", "163742.280000", "163743.770000", "163745.260000", "163746.750000", "163748.240000", "163749.730000", "163751.220000", "163752.710000", "163754.200000", "163755.690000", "163757.180000", "163758.670000", "163800.160000", "163801.650000", "163803.140000", "163804.630000", "163806.120000", "163807.610000", "163809.100000", "163810.590000", "163812.080000", "163813.570000", "163815.060000", "163816.550000"],
      "ContentTime": ["162801.965000", "162801.968000", "162801.971000", "162801.974000", "162801.977000", "162801.980000", "162801.983000", "162801.986000", "162801.988000", "162801.991000", "162801.994000", "162801.997000", "162802.001000", "162802.004000", "162802.006000", "162802.017000", "162802.020000", "162802.023000", "162802.026000", "162802.028000", "162802.031000", "162802.034000", "162802.037000", "162802.040000", "162802.043000", "162802.046000", "162802.048000", "162802.051000", "162802.054000", "162802.057000", "162802.064000", "162802.067000", "162802.070000", "162802.073000", "162802.076000", "162802.078000", "162802.081000", "162821.936000", "162821.939000", "162821.942000", "162821.945000", "162821.947000", "162821.950000", "162821.953000", "162821.956000", "162821.959000", "162821.962000", "162821.964000", "162821.967000", "162821.970000", "162821.973000", "162821.975000", "162821.978000", "162821.981000", "162821.984000", "162821.998000", "162822.002000", "162841.936000", "162841.939000", "162841.942000", "162841.944000", "162841.947000", "162841.950000", "162841.953000", "162841.956000", "162841.959000", "162841.962000", "162841.964000", "162841.967000", "162841.970000", "162841.973000", "162841.976000", "162841.979000", "162841.981000", "162841.984000", "162841.987000", "162841.990000", "162841.993000", "162901.937000", "162901.940000", "162901.943000", "162901.945000", "162901.948000", "162901.951000", "162901.954000", "162901.957000", "162901.960000", "162901.963000", "162901.965000", "162901.968000", "162901.971000", "162901.974000", "162901.993000", "162901.996000", "162902.000000", "162902.003000", "162902.005000", "162902.008000", "162941.937000", "162941.940000", "162941.943000", "162941.945000", "162941.948000", "162941.951000", "162941.954000", "162941.957000", "162941.960000", "162941.963000", "162941.966000", "162941.968000", "162941.971000", "162941.974000", "162941.977000", "162941.980000", "162941.983000", "162941.985000", "162941.988000", "162941.991000", "162941.994000", "162942.004000", "162942.007000", "162942.010000", "162942.013000", "162942.016000", "162942.018000", "162942.021000", "162942.024000", "162942.027000", "163021.936000", "163021.939000", "163021.942000", "163021.945000", "163021.948000", "163021.950000", "163021.953000", "163021.956000", "163021.959000", "163021.962000", "163021.965000", "163021.967000", "163021.970000", "163021.973000", "163021.976000", "163021.979000", "163021.982000", "163021.985000", "163021.988000", "163021.990000", "163021.993000", "163021.996000", "163022.000000", "163022.003000", "163022.006000", "163022.009000", "163022.011000", "163101.937000", "163101.940000", "163101.943000", "163101.946000", "163101.949000", "163101.951000", "163101.954000", "163101.957000", "163101.960000", "163101.963000", "163101.966000", "163101.969000", "163101.971000", "163101.974000", "163101.977000", "163101.980000", "163101.983000", "163101.986000", "163101.989000", "163101.991000", "163101.994000", "163101.997000", "163102.000000", "163102.003000", "163102.006000", "163102.008000", "163102.011000", "163141.937000", "163141.940000", "163141.943000", "163141.945000", "163141.948000", "163141.951000", "163141.954000", "163141.957000", "163141.960000", "163141.963000", "163141.966000", "163141.968000", "163141.971000", "163141.974000", "163141.977000", "163141.980000", "163141.983000", "163141.985000", "163141.988000", "163141.991000", "163141.994000", "163141.997000", "163142.001000", "163142.003000", "163142.006000", "163142.009000", "163142.012000", "163221.937000", "163221.940000", "163221.943000", "163221.946000", "163221.949000", "163221.952000", "163221.954000", "163221.957000", "163221.960000", "163221.963000", "163221.966000", "163221.969000", "163221.972000", "163221.975000", "163221.977000", "163221.980000", "163221.983000", "163221.986000", "163221.989000", "163221.992000", "163221.995000", "163221.997000", "163222.001000", "163222.005000", "163222.008000", "163222.011000", "163301.936000", "163301.939000", "163301.942000", "163301.945000", "163301.948000", "163301.950000", "163301.953000", "163301.956000", "163301.959000", "163301.962000", "163301.965000", "163301.967000", "163301.970000", "163301.973000", "163301.976000", "163301.979000", "163301.982000", "163301.984000", "163301.987000", "163301.990000", "163301.993000", "163301.996000", "163302.000000", "163302.003000", "163302.005000", "163302.008000", "163302.011000", "163341.937000", "163341.940000", "163341.947000", "163341.950000", "163341.953000", "163341.956000", "163341.959000", "163341.962000", "163341.964000", "163341.967000", "163341.970000", "163341.973000", "163341.976000", "163341.979000", "163341.982000", "163341.984000", "163341.987000", "163341.990000", "163341.993000", "163342.009000", "163342.012000", "163342.015000", "163342.022000", "163342.025000", "163342.027000", "163342.030000", "163342.033000", "163421.937000", "163421.940000", "163421.943000", "163421.946000", "163421.949000", "163421.952000", "163421.954000", "163421.957000", "163421.960000", "163421.963000", "163421.966000", "163421.969000", "163421.971000", "163421.974000", "163421.977000", "163421.980000", "163421.983000", "163421.986000", "163421.989000", "163421.992000", "163421.994000", "163421.997000", "163422.001000", "163422.004000", "163422.007000", "163422.010000", "163422.013000", "163501.936000", "163501.939000", "163501.942000", "163501.944000", "163501.948000", "163501.950000", "163501.953000", "163501.956000", "163501.959000", "163501.962000", "163501.964000", "163501.967000", "163501.970000", "163501.973000", "163501.976000", "163501.979000", "163501.982000", "163501.984000", "163501.987000", "163501.990000", "163501.993000", "163501.996000", "163502.000000", "163502.003000", "163502.005000", "163502.008000", "163502.011000", "163541.937000", "163541.940000", "163541.943000", "163541.946000", "163541.948000", "163541.951000", "163541.954000", "163541.957000", "163541.960000", "163541.963000", "163541.966000", "163541.969000", "163541.971000", "163541.974000", "163541.977000", "163541.980000", "163541.983000", "163541.986000", "163541.988000", "163541.992000", "163541.994000", "163541.997000", "163542.000000", "163542.003000", "163542.006000", "163542.009000", "163542.011000", "163621.937000", "163621.940000", "163621.943000", "163621.946000", "163621.949000", "163621.952000", "163621.955000", "163621.957000", "163621.961000", "163621.963000", "163621.966000", "163621.969000", "163621.972000", "163621.975000", "163621.978000", "163621.980000", "163621.983000", "163621.986000", "163621.989000", "163621.992000", "163621.995000", "163621.998000", "163622.002000", "163622.004000", "163622.007000", "163622.010000", "163701.937000", "163701.940000", "163701.943000", "163701.946000", "163701.953000", "163701.956000", "163701.959000", "163701.961000", "163701.964000", "163701.967000", "163701.970000", "163701.973000", "163701.976000", "163701.979000", "163701.982000", "163701.985000", "163701.988000", "163701.992000", "163701.995000", "163701.998000", "163702.002000", "163702.005000", "163702.008000", "163702.011000", "163702.014000", "163702.016000", "163702.019000", "163741.936000", "163741.939000", "163741.942000", "163741.945000", "163741.948000", "163741.951000", "163741.966000", "163741.969000", "163741.972000", "163741.975000", "163741.978000", "163741.981000", "163741.984000", "163741.987000", "163741.990000", "163741.993000", "163741.996000", "163742.000000", "163742.003000", "163742.006000", "163742.009000", "163742.012000", "163742.015000", "163742.018000", "163742.021000", "163742.024000", "163742.027000", "163818.284000", "163818.287000", "163818.293000", "163818.296000", "163818.298000", "163818.301000", "163818.304000", "163818.307000", "163818.310000", "163818.313000", "163818.316000", "163818.319000", "163818.322000", "163818.324000", "163818.327000", "163818.330000", "163818.333000", "163818.336000", "163818.339000", "163818.342000", "163818.345000", "163818.348000", "163818.352000", "163818.355000", "163818.358000"],
