{
  "AcquisitionMatrixPE": 104,
  "AcquisitionNumber": 1,
  "AcquisitionTime": "17:02:52.900000",
  "BandwidthPerPixelPhaseEncode": 17.17,
  "BaseResolution": 104,
  "BodyPartExamined": "BRAIN",
  "CoilString": "HC1-7;NC1_2",
  "ConsistencyInfo": "N4_VE11C_LATEST_20160120",
  "ConversionSoftware": "dcm2niix",
  "ConversionSoftwareVersion": "v1.0.20200427",
  "DerivedVendorReportedEchoSpacing": 0.000560011,
  "DeviceSerialNumber": "167006",
  "DwellTime": 2.1e-06,
  "EchoTime": 0.037,
  "EchoTrainLength": 104,
  "EffectiveEchoSpacing": 0.000560011,
  "FlipAngle": 52,
  "ImageComments": "Unaliased_MB4_PE3_LB",
  "ImageOrientationPatientDICOM": [0.999486, -0.0320126, -0.00162125, 0.0291403, 0.92855, -0.370061],
  "ImageType": [
    "ORIGINAL",
    "PRIMARY",
    "M",
    "MB",
    "ND",
    "MOSAIC"
],
  "ImagingFrequency": 123.259,
  "InPlanePhaseEncodingDirectionDICOM": "COL",
  "InstitutionAddress": "Chemin_Queen-Mary_4565_Montreal_District_CA_H3W_1W5",
  "InstitutionName": "IUGM",
  "InstitutionalDepartmentName": "Department",
  "MRAcquisitionType": "2D",
  "MagneticFieldStrength": 3,
  "Manufacturer": "Siemens",
  "ManufacturersModelName": "Prisma_fit",
  "Modality": "MR",
  "MultibandAccelerationFactor": 4,
  "PartialFourier": 1,
  "PatientPosition": "HFS",
  "PercentPhaseFOV": 100,
  "PercentSampling": 100,
  "PhaseEncodingDirection": "j",
  "PhaseEncodingSteps": 104,
  "PhaseResolution": 1,
  "PixelBandwidth": 2290,
  "ProcedureStepDescription": "video_friends",
  "ProtocolName": "func_task-friends-s03e03b",
  "PulseSequenceDetails": "%CustomerSeq%_cmrr_mbep2d_bold",
  "ReceiveCoilActiveElements": "HC1-7;NC1,2",
  "ReceiveCoilName": "HeadNeck_64",
  "ReconMatrixPE": 104,
  "RepetitionTime": 1.49,
  "SAR": 0.0302304,
  "ScanOptions": "FS",
  "ScanningSequence": "EP",
  "SequenceName": "epfid2d1_104",
  "SequenceVariant": "SK_SS",
  "SeriesDescription": "func_task-friends-s03e03b",
  "SeriesNumber": 19,
  "ShimSetting": [633, -7264, -8835, 562, 26, -231, -91, -8],
  "SliceThickness": 2,
  "SliceTiming": [0, 0.785, 0.0975, 0.8825, 0.195, 0.98, 0.295, 1.0775, 0.3925, 1.175, 0.49, 1.275, 0.5875, 1.3725, 0.685, 0, 0.785, 0.0975, 0.8825, 0.195, 0.98, 0.295, 1.0775, 0.3925, 1.175, 0.49, 1.275, 0.5875, 1.3725, 0.685, 0, 0.785, 0.0975, 0.8825, 0.195, 0.98, 0.295, 1.0775, 0.3925, 1.175, 0.49, 1.275, 0.5875, 1.3725, 0.685, 0, 0.785, 0.0975, 0.8825, 0.195, 0.98, 0.295, 1.0775, 0.3925, 1.175, 0.49, 1.275, 0.5875, 1.3725, 0.685],
  "SoftwareVersions": "syngo_MR_E11",
  "SpacingBetweenSlices": 2,
  "StationName": "MRC35049",
  "TaskName": "s03e03b",
  "TotalReadoutTime": 0.0576811,
  "TxRefAmp": 217.947,
  "WipMemBlock": "9ee494ac-88b1-4432-a1ec-b77e0658935d||Sequence: R016 ve11c/master r/e634e98; Dec 19 2017 11:00:25 by eja",
  "dcmmeta_affine": [
    [-1.9989722967147827, 0.058280594646930695, -0.026704035699367523, 99.87210845947266],
    [0.0640251487493515, 1.8571006059646606, -0.739647388458252, -74.14573669433594],
    [-0.003242493374273181, 0.7401221990585327, 1.8580119609832764, -67.55412292480469],
    [0.0, 0.0, 0.0, 1.0]
],
  "dcmmeta_reorient_transform": [
    [0.0, -1.0, 0.0, 103.0],
    [1.0, 0.0, 0.0, 0.0],
    [0.0, 0.0, 1.0, 0.0],
    [0.0, 0.0, 0.0, 1.0]
],
  "dcmmeta_shape": [104, 104, 60, 454],
  "dcmmeta_slice_dim": 2,
  "dcmmeta_version": 0.6,
  "global": {
    "const": {
      "AcquisitionMatrix": [104, 0, 0, 104],
      "AngioFlag": "N",
      "BitsAllocated": 16,
      "BitsStored": 16,
      "BodyPartExamined": "BRAIN",
      "Columns": 832,
      "EchoNumbers": 1,
      "EchoTime": 37.0,
      "EchoTrainLength": 104,
      "FlipAngle": 52.0,
      "HighBit": 15,
      "ImageOrientationPatient": [0.99948615131385, -0.0320125739536, -0.0016212466444, 0.02914029791254, 0.92855028064689, -0.370061102182],
      "ImagePositionPatient": [-854.71506568734, -769.8150724235, 279.26321466607],
      "ImageType": [
        "ORIGINAL",
        "PRIMARY",
        "M",
        "MB",
        "ND",
        "MOSAIC"
],
      "ImagedNucleus": "1H",
      "ImagingFrequency": 123.259054,
      "InPlanePhaseEncodingDirection": "COL",
      "MRAcquisitionType": "2D",
      "MagneticFieldStrength": 3.0,
      "Manufacturer": "SIEMENS",
      "ManufacturerModelName": "Prisma_fit",
      "Modality": "MR",
      "NumberOfAverages": 1.0,
      "NumberOfPhaseEncodingSteps": 104,
      "PercentPhaseFieldOfView": 100.0,
      "PercentSampling": 100.0,
      "PerformedProcedureStepStartTime": "155722.883000",
      "PhotometricInterpretation": "MONOCHROME2",
      "PixelBandwidth": 2290.0,
      "PixelRepresentation": 0,
      "PixelSpacing": [2.0, 2.0],
      "ProtocolName": "func_task-friends-s03e03b",
      "RepetitionTime": 1490.0,
      "Rows": 832,
      "SAR": 0.030230415898,
      "SamplesPerPixel": 1,
      "ScanOptions": "FS",
      "ScanningSequence": "EP",
      "SequenceName": "epfid2d1_104",
      "SequenceVariant": [
        "SK",
        "SS"
],
      "SeriesDescription": "func_task-friends-s03e03b",
      "SeriesNumber": 19,
      "SeriesTime": "170421.966000",
      "SliceLocation": -36.670828653641,
      "SliceThickness": 2.0,
      "SmallestImagePixelValue": 0,
      "SoftwareVersions": "syngo MR E11",
      "SpacingBetweenSlices": 2.0000000119987,
      "SpecificCharacterSet": "ISO_IR 100",
      "StudyID": "1",
      "StudyTime": "155722.806000",
      "TransmitCoilName": "Body",
      "VariableFlipAngleFlag": "N",
      "WindowCenterWidthExplanation": "Algo1",
      "dBdt": 0.0},
    "slices": {}
  },
  "time": {
    "samples": {
      "AcquisitionNumber": [1, 2, 3, 4, 5, 6, 7, 8, 9, 10, 11, 12, 13, 14, 15, 16, 17, 18, 19, 20, 21, 22, 23, 24, 25, 26, 27, 28, 29, 30, 31, 32, 33, 34, 35, 36, 37, 38, 39, 40, 41, 42, 43, 44, 45, 46, 47, 48, 49, 50, 51, 52, 53, 54, 55, 56, 57, 58, 59, 60, 61, 62, 63, 64, 65, 66, 67, 68, 69, 70, 71, 72, 73, 74, 75, 76, 77, 78, 79, 80, 81, 82, 83, 84, 85, 86, 87, 88, 89, 90, 91, 92, 93, 94, 95, 96, 97, 98, 99, 100, 101, 102, 103, 104, 105, 106, 107, 108, 109, 110, 111, 112, 113, 114, 115, 116, 117, 118, 119, 120, 121, 122, 123, 124, 125, 126, 127, 128, 129, 130, 131, 132, 133, 134, 135, 136, 137, 138, 139, 140, 141, 142, 143, 144, 145, 146, 147, 148, 149, 150, 151, 152, 153, 154, 155, 156, 157, 158, 159, 160, 161, 162, 163, 164, 165, 166, 167, 168, 169, 170, 171, 172, 173, 174, 175, 176, 177, 178, 179, 180, 181, 182, 183, 184, 185, 186, 187, 188, 189, 190, 191, 192, 193, 194, 195, 196, 197, 198, 199, 200, 201, 202, 203, 204, 205, 206, 207, 208, 209, 210, 211, 212, 213, 214, 215, 216, 217, 218, 219, 220, 221, 222, 223, 224, 225, 226, 227, 228, 229, 230, 231, 232, 233, 234, 235, 236, 237, 238, 239, 240, 241, 242, 243, 244, 245, 246, 247, 248, 249, 250, 251, 252, 253, 254, 255, 256, 257, 258, 259, 260, 261, 262, 263, 264, 265, 266, 267, 268, 269, 270, 271, 272, 273, 274, 275, 276, 277, 278, 279, 280, 281, 282, 283, 284, 285, 286, 287, 288, 289, 290, 291, 292, 293, 294, 295, 296, 297, 298, 299, 300, 301, 302, 303, 304, 305, 306, 307, 308, 309, 310, 311, 312, 313, 314, 315, 316, 317, 318, 319, 320, 321, 322, 323, 324, 325, 326, 327, 328, 329, 330, 331, 332, 333, 334, 335, 336, 337, 338, 339, 340, 341, 342, 343, 344, 345, 346, 347, 348, 349, 350, 351, 352, 353, 354, 355, 356, 357, 358, 359, 360, 361, 362, 363, 364, 365, 366, 367, 368, 369, 370, 371, 372, 373, 374, 375, 376, 377, 378, 379, 380, 381, 382, 383, 384, 385, 386, 387, 388, 389, 390, 391, 392, 393, 394, 395, 396, 397, 398, 399, 400, 401, 402, 403, 404, 405, 406, 407, 408, 409, 410, 411, 412, 413, 414, 415, 416, 417, 418, 419, 420, 421, 422, 423, 424, 425, 426, 427, 428, 429, 430, 431, 432, 433, 434, 435, 436, 437, 438, 439, 440, 441, 442, 443, 444, 445, 446, 447, 448, 449, 450, 451, 452, 453, 454],
      "AcquisitionTime": ["170252.900000", "170254.390000", "170255.880000", "170257.370000", "170258.860000", "170300.350000", "170301.840000", "170303.330000", "170304.820000", "170306.310000", "170307.800000", "170309.290000", "170310.780000", "170312.270000", "170313.760000", "170315.250000", "170316.740000", "170318.230000", "170319.720000", "170321.210000", "170322.700000", "170324.190000", "170325.680000", "170327.170000", "170328.660000", "170330.150000", "170331.640000", "170333.130000", "170334.620000", "170336.110000", "170337.600000", "170339.090000", "170340.580000", "170342.070000", "170343.560000", "170345.050000", "170346.540000", "170348.030000", "170349.520000", "170351.010000", "170352.500000", "170353.990000", "170355.480000", "170356.970000", "170358.460000", "170359.950000", "170401.440000", "170402.930000", "170404.420000", "170405.910000", "170407.400000", "170408.890000", "170410.380000", "170411.870000", "170413.360000", "170414.850000", "170416.340000", "170417.830000", "170419.320000", "170420.810000", "170422.300000", "170423.790000", "170425.280000", "170426.770000", "170428.260000", "170429.750000", "170431.240000", "170432.730000", "170434.220000", "170435.710000", "170437.200000", "170438.690000", "170440.180000", "170441.670000", "170443.160000", "170444.650000", "170446.140000", "170447.630000", "170449.120000", "170450.610000", "170452.100000", "170453.590000", "170455.080000", "170456.570000", "170458.060000", "170459.550000", "170501.040000", "170502.530000", "170504.020000", "170505.510000", "170507.000000", "170508.490000", "170509.980000", "170511.470000", "170512.960000", "170514.450000", "170515.940000", "170517.430000", "170518.920000", "170520.410000", "170521.900000", "170523.390000", "170524.880000", "170526.370000", "170527.860000", "170529.350000", "170530.840000", "170532.330000", "170533.820000", "170535.310000", "170536.800000", "170538.290000", "170539.780000", "170541.270000", "170542.760000", "170544.250000", "170545.740000", "170547.230000", "170548.720000", "170550.210000", "170551.700000", "170553.190000", "170554.680000", "170556.170000", "170557.660000", "170559.150000", "170600.640000", "170602.130000", "170603.620000", "170605.110000", "170606.600000", "170608.090000", "170609.580000", "170611.070000", "170612.560000", "170614.050000", "170615.540000", "170617.030000", "170618.520000", "170620.010000", "170621.500000", "170622.990000", "170624.480000", "170625.970000", "170627.460000", "170628.950000", "170630.440000", "170631.930000", "170633.420000", "170634.910000", "170636.400000", "170637.890000", "170639.380000", "170640.870000", "170642.360000", "170643.850000", "170645.340000", "170646.830000", "170648.320000", "170649.810000", "170651.300000", "170652.790000", "170654.280000", "170655.770000", "170657.260000", "170658.750000", "170700.240000", "170701.730000", "170703.220000", "170704.710000", "170706.200000", "170707.690000", "170709.180000", "170710.670000", "170712.160000", "170713.650000", "170715.140000", "170716.630000", "170718.120000", "170719.610000", "170721.100000", "170722.590000", "170724.080000", "170725.570000", "170727.060000", "170728.550000", "170730.040000", "170731.530000", "170733.020000", "170734.510000", "170736.000000", "170737.490000", "170738.980000", "170740.470000", "170741.960000", "170743.450000", "170744.940000", "170746.430000", "170747.920000", "170749.410000", "170750.900000", "170752.390000", "170753.880000", "170755.370000", "170756.860000", "170758.350000", "170759.840000", "170801.330000", "170802.820000", "170804.310000", "170805.800000", "170807.290000", "170808.780000", "170810.270000", "170811.760000", "170813.250000", "170814.740000", "170816.230000", "170817.720000", "170819.210000", "170820.700000", "170822.190000", "170823.680000", "170825.170000", "170826.660000", "170828.150000", "170829.640000", "170831.130000", "170832.620000", "170834.110000", "170835.600000", "170837.090000", "170838.580000", "170840.070000", "170841.560000", "170843.050000", "170844.540000", "170846.030000", "170847.520000", "170849.010000", "170850.500000", "170851.990000", "170853.480000", "170854.970000", "170856.460000", "170857.950000", "170859.440000", "170900.930000", "170902.420000", "170903.910000", "170905.400000", "170906.890000", "170908.380000", "170909.870000", "170911.360000", "170912.850000", "170914.340000", "170915.830000", "170917.320000", "170918.810000", "170920.300000", "170921.790000", "170923.280000", "170924.770000", "170926.260000", "170927.750000", "170929.240000", "170930.730000", "170932.220000", "170933.710000", "170935.200000", "170936.690000", "170938.180000", "170939.670000", "170941.160000", "170942.650000", "170944.140000", "170945.630000", "170947.120000", "170948.610000", "170950.100000", "170951.590000", "170953.080000", "170954.570000", "170956.060000", "170957.550000", "170959.040000", "171000.530000", "171002.020000", "171003.510000", "171005.000000", "171006.490000", "171007.980000", "171009.470000", "171010.960000", "171012.450000", "171013.940000", "171015.430000", "171016.920000", "171018.410000", "171019.900000", "171021.390000", "171022.880000", "171024.370000", "171025.860000", "171027.350000", "171028.840000", "171030.330000", "171031.820000", "171033.310000", "171034.800000", "171036.290000", "171037.780000", "171039.270000", "171040.760000", "171042.250000", "171043.740000", "171045.230000", "171046.720000", "171048.210000", "171049.700000", "171051.190000", "171052.680000", "171054.170000", "171055.660000", "171057.150000", "171058.640000", "171100.130000", "171101.620000", "171103.110000", "171104.600000", "171106.090000", "171107.580000", "171109.070000", "171110.560000", "171112.050000", "171113.540000", "171115.030000", "171116.520000", "171118.010000", "171119.500000", "171120.990000", "171122.480000", "171123.970000", "171125.460000", "171126.950000", "171128.440000", "171129.930000", "171131.420000", "171132.910000", "171134.400000", "171135.890000", "171137.380000", "171138.870000", "171140.360000", "171141.850000", "171143.340000", "171144.830000", "171146.320000", "171147.810000", "171149.300000", "171150.790000", "171152.280000", "171153.770000", "171155.260000", "171156.750000", "171158.240000", "171159.730000", "171201.220000", "171202.710000", "171204.200000", "171205.690000", "171207.180000", "171208.670000", "171210.160000", "171211.650000", "171213.140000", "171214.630000", "171216.120000", "171217.610000", "171219.100000", "171220.590000", "171222.080000", "171223.570000", "171225.060000", "171226.550000", "171228.040000", "171229.530000", "171231.020000", "171232.510000", "171234.000000", "171235.490000", "171236.980000", "171238.470000", "171239.960000", "171241.450000", "171242.940000", "171244.430000", "171245.920000", "171247.410000", "171248.900000", "171250.390000", "171251.880000", "171253.370000", "171254.860000", "171256.350000", "171257.840000", "171259.330000", "171300.820000", "171302.310000", "171303.800000", "171305.290000", "171306.780000", "171308.270000", "171309.760000", "171311.250000", "171312.740000", "171314.230000", "171315.720000", "171317.210000", "171318.700000", "171320.190000", "171321.680000", "171323.170000", "171324.660000", "171326.150000", "171327.640000", "171329.130000", "171330.620000", "171332.110000", "171333.600000", "171335.090000", "171336.580000", "171338.070000", "171339.560000", "171341.050000", "171342.540000", "171344.030000", "171345.520000", "171347.010000", "171348.500000", "171349.990000", "171351.480000", "171352.970000", "171354.460000", "171355.950000", "171357.440000", "171358.930000", "171400.420000", "171401.910000", "171403.400000", "171404.890000", "171406.380000", "171407.870000"],
      "ContentTime": ["170421.969000", "170421.973000", "170421.976000", "170421.979000", "170421.981000", "170421.984000", "170421.987000", "170421.991000", "170421.994000", "170421.997000", "170422.001000", "170422.004000", "170422.007000", "170422.010000", "170422.012000", "170422.015000", "170422.018000", "170422.021000", "170422.024000", "170422.027000", "170422.030000", "170422.032000", "170422.035000", "170422.038000", "170422.041000", "170422.044000", "170422.047000", "170422.050000", "170422.052000", "170422.055000", "170422.058000", "170422.061000", "170422.064000", "170422.067000", "170422.069000", "170441.937000", "170441.940000", "170441.943000", "170441.946000", "170441.948000", "170441.951000", "170441.954000", "170441.957000", "170441.960000", "170441.963000", "170441.965000", "170441.968000", "170441.971000", "170441.974000", "170441.977000", "170441.980000", "170441.982000", "170441.985000", "170441.988000", "170441.991000", "170501.936000", "170501.939000", "170501.942000", "170501.945000", "170501.947000", "170501.950000", "170501.953000", "170501.956000", "170501.959000", "170501.961000", "170501.964000", "170501.967000", "170501.970000", "170501.973000", "170501.976000", "170501.979000", "170501.981000", "170501.984000", "170501.987000", "170501.990000", "170521.936000", "170521.939000", "170521.942000", "170521.945000", "170521.948000", "170521.951000", "170521.954000", "170521.957000", "170521.960000", "170521.962000", "170521.965000", "170521.968000", "170521.971000", "170521.984000", "170521.987000", "170521.990000", "170521.993000", "170521.996000", "170521.998000", "170522.002000", "170601.937000", "170601.940000", "170601.943000", "170601.946000", "170601.948000", "170601.951000", "170601.954000", "170601.957000", "170601.960000", "170601.963000", "170601.965000", "170601.968000", "170601.971000", "170601.974000", "170601.977000", "170601.980000", "170601.983000", "170601.986000", "170601.988000", "170601.991000", "170601.994000", "170601.997000", "170602.001000", "170602.003000", "170602.006000", "170602.009000", "170602.012000", "170602.015000", "170602.018000", "170602.029000", "170602.032000", "170641.937000", "170641.940000", "170641.943000", "170641.946000", "170641.949000", "170641.951000", "170641.954000", "170641.957000", "170641.963000", "170641.966000", "170641.969000", "170641.972000", "170641.975000", "170641.978000", "170641.980000", "170641.983000", "170641.986000", "170641.989000", "170641.992000", "170641.994000", "170641.997000", "170642.001000", "170642.004000", "170642.007000", "170642.010000", "170642.013000", "170642.015000", "170721.936000", "170721.939000", "170721.942000", "170721.945000", "170721.947000", "170721.950000", "170721.953000", "170721.956000", "170721.959000", "170721.962000", "170721.965000", "170721.968000", "170721.970000", "170721.973000", "170721.976000", "170721.979000", "170721.982000", "170721.984000", "170721.987000", "170721.990000", "170721.993000", "170721.996000", "170722.000000", "170722.003000", "170722.005000", "170722.008000", "170722.011000", "170801.936000", "170801.939000", "170801.942000", "170801.945000", "170801.948000", "170801.950000", "170801.953000", "170801.956000", "170801.959000", "170801.962000", "170801.965000", "170801.968000", "170801.971000", "170801.973000", "170801.976000", "170801.979000", "170801.982000", "170801.985000", "170801.988000", "170801.991000", "170801.993000", "170801.996000", "170802.000000", "170802.003000", "170802.006000", "170802.009000", "170821.937000", "170821.940000", "170821.943000", "170821.946000", "170821.949000", "170821.951000", "170821.954000", "170821.957000", "170821.960000", "170821.963000", "170821.966000", "170821.969000", "170821.971000", "170821.974000", "170901.937000", "170901.940000", "170901.943000", "170901.946000", "170901.949000", "170901.951000", "170901.954000", "170901.957000", "170901.960000", "170901.963000", "170901.966000", "170901.968000", "170901.971000", "170901.974000", "170901.977000", "170901.980000", "170901.983000", "170901.985000", "170901.988000", "170901.991000", "170901.994000", "170901.997000", "170902.001000", "170902.004000", "170902.007000", "170902.009000", "170902.012000", "170941.936000", "170941.939000", "170941.942000", "170941.945000", "170941.947000", "170941.950000", "170941.953000", "170941.956000", "170941.959000", "170941.962000", "170941.965000", "170941.968000", "170941.970000", "170941.973000", "170941.976000", "170941.979000", "170941.982000", "170941.985000", "170941.987000", "170941.990000", "170941.993000", "170941.996000", "170942.000000", "170942.003000", "170942.006000", "170942.009000", "170942.011000", "171021.936000", "171021.939000", "171021.942000", "171021.945000", "171021.948000", "171021.951000", "171021.954000", "171021.956000", "171021.959000", "171021.962000", "171021.965000", "171021.968000", "171021.971000", "171021.973000", "171021.976000", "171021.979000", "171021.982000", "171021.985000", "171021.988000", "171021.991000", "171021.994000", "171021.997000", "171022.000000", "171022.002000", "171022.005000", "171022.008000", "171101.937000", "171101.940000", "171101.950000", "171101.953000", "171101.956000", "171101.959000", "171101.962000", "171101.964000", "171101.967000", "171101.970000", "171101.973000", "171101.976000", "171101.979000", "171101.982000", "171101.985000", "171101.987000", "171101.990000", "171101.993000", "171101.996000", "171102.000000", "171102.003000", "171102.014000", "171102.017000", "171102.020000", "171102.023000", "171102.025000", "171102.028000", "171141.937000", "171141.940000", "171141.943000", "171141.946000", "171141.949000", "171141.952000", "171141.954000", "171141.957000", "171141.960000", "171141.963000", "171141.966000", "171141.969000", "171141.971000", "171141.974000", "171141.977000", "171141.980000", "171141.983000", "171141.986000", "171141.989000", "171141.991000", "171141.994000", "171141.997000", "171142.001000", "171142.004000", "171142.007000", "171142.010000", "171142.012000", "171221.936000", "171221.939000", "171221.942000", "171221.945000", "171221.948000", "171221.951000", "171221.953000", "171221.956000", "171221.959000", "171221.962000", "171221.965000", "171221.968000", "171221.971000", "171221.973000", "171221.976000", "171221.979000", "171221.982000", "171221.985000", "171221.988000", "171221.990000", "171221.993000", "171221.996000", "171222.000000", "171222.003000", "171222.006000", "171222.009000", "171222.011000", "171301.937000", "171301.940000", "171301.943000", "171301.946000", "171301.949000", "171301.952000", "171301.954000", "171301.957000", "171301.960000", "171301.963000", "171301.966000", "171301.969000", "171301.972000", "171301.974000", "171301.977000", "171301.980000", "171301.983000", "171301.986000", "171301.989000", "171301.992000", "171301.994000", "171301.997000", "171302.001000", "171302.004000", "171302.007000", "171302.010000", "171302.013000", "171341.937000", "171341.940000", "171341.943000", "171341.946000", "171341.949000", "171341.951000", "171341.954000", "171341.957000", "171341.960000", "171341.963000", "171341.966000", "171341.969000", "171341.972000", "171341.974000", "171341.977000", "171341.980000", "171341.983000", "171341.986000", "171341.989000", "171341.991000", "171341.994000", "171341.997000", "171342.001000", "171342.004000", "171342.007000", "171342.009000", "171342.012000", "171410.012000", "171410.016000", "171410.019000", "171410.021000", "171410.024000", "171410.027000", "171410.030000", "171410.033000", "171410.036000", "171410.039000", "171410.042000", "171410.045000", "171410.048000", "171410.051000", "171410.053000", "171410.056000", "171410.059000", "171410.062000", "171410.065000"],
