{
  "AcquisitionMatrixPE": 104,
  "AcquisitionNumber": 1,
  "AcquisitionTime": "16:51:8.940000",
  "BandwidthPerPixelPhaseEncode": 17.17,
  "BaseResolution": 104,
  "BodyPartExamined": "BRAIN",
  "CoilString": "HC1-7;NC1_2",
  "ConsistencyInfo": "N4_VE11C_LATEST_20160120",
  "ConversionSoftware": "dcm2niix",
  "ConversionSoftwareVersion": "v1.0.20200427",
  "DerivedVendorReportedEchoSpacing": 0.000560011,
  "DeviceSerialNumber": "167006",
  "DwellTime": 2.1e-06,
  "EchoTime": 0.037,
  "EchoTrainLength": 104,
  "EffectiveEchoSpacing": 0.000560011,
  "FlipAngle": 52,
  "ImageComments": "Unaliased_MB4_PE3_LB",
  "ImageOrientationPatientDICOM": [0.999486, -0.0320126, -0.00162125, 0.0291403, 0.92855, -0.370061],
  "ImageType": [
    "ORIGINAL",
    "PRIMARY",
    "M",
    "MB",
    "ND",
    "MOSAIC"
],
  "ImagingFrequency": 123.259,
  "InPlanePhaseEncodingDirectionDICOM": "COL",
  "InstitutionAddress": "Chemin_Queen-Mary_4565_Montreal_District_CA_H3W_1W5",
  "InstitutionName": "IUGM",
  "InstitutionalDepartmentName": "Department",
  "MRAcquisitionType": "2D",
  "MagneticFieldStrength": 3,
  "Manufacturer": "Siemens",
  "ManufacturersModelName": "Prisma_fit",
  "Modality": "MR",
  "MultibandAccelerationFactor": 4,
  "PartialFourier": 1,
  "PatientPosition": "HFS",
  "PercentPhaseFOV": 100,
  "PercentSampling": 100,
  "PhaseEncodingDirection": "j",
  "PhaseEncodingSteps": 104,
  "PhaseResolution": 1,
  "PixelBandwidth": 2290,
  "ProcedureStepDescription": "video_friends",
  "ProtocolName": "func_task-friends-s03e03a",
  "PulseSequenceDetails": "%CustomerSeq%_cmrr_mbep2d_bold",
  "ReceiveCoilActiveElements": "HC1-7;NC1,2",
  "ReceiveCoilName": "HeadNeck_64",
  "ReconMatrixPE": 104,
  "RepetitionTime": 1.49,
  "SAR": 0.0302304,
  "ScanOptions": "FS",
  "ScanningSequence": "EP",
  "SequenceName": "epfid2d1_104",
  "SequenceVariant": "SK_SS",
  "SeriesDescription": "func_task-friends-s03e03a",
  "SeriesNumber": 17,
  "ShimSetting": [633, -7264, -8835, 562, 26, -231, -91, -8],
  "SliceThickness": 2,
  "SliceTiming": [0, 0.785, 0.0975, 0.8825, 0.195, 0.98, 0.295, 1.0775, 0.3925, 1.175, 0.49, 1.275, 0.5875, 1.3725, 0.685, 0, 0.785, 0.0975, 0.8825, 0.195, 0.98, 0.295, 1.0775, 0.3925, 1.175, 0.49, 1.275, 0.5875, 1.3725, 0.685, 0, 0.785, 0.0975, 0.8825, 0.195, 0.98, 0.295, 1.0775, 0.3925, 1.175, 0.49, 1.275, 0.5875, 1.3725, 0.685, 0, 0.785, 0.0975, 0.8825, 0.195, 0.98, 0.295, 1.0775, 0.3925, 1.175, 0.49, 1.275, 0.5875, 1.3725, 0.685],
  "SoftwareVersions": "syngo_MR_E11",
  "SpacingBetweenSlices": 2,
  "StationName": "MRC35049",
  "TaskName": "s03e03a",
  "TotalReadoutTime": 0.0576811,
  "TxRefAmp": 217.947,
  "WipMemBlock": "788f59f8-82db-4794-938f-fe9ab31fc1a7||Sequence: R016 ve11c/master r/e634e98; Dec 19 2017 11:00:25 by eja",
  "dcmmeta_affine": [
    [-1.9989722967147827, 0.058280594646930695, -0.026704035699367523, 99.87210845947266],
    [0.0640251487493515, 1.8571006059646606, -0.739647388458252, -74.14573669433594],
    [-0.003242493374273181, 0.7401221990585327, 1.8580119609832764, -67.55412292480469],
    [0.0, 0.0, 0.0, 1.0]
],
  "dcmmeta_reorient_transform": [
    [0.0, -1.0, 0.0, 103.0],
    [1.0, 0.0, 0.0, 0.0],
    [0.0, 0.0, 1.0, 0.0],
    [0.0, 0.0, 0.0, 1.0]
],
  "dcmmeta_shape": [104, 104, 60, 454],
  "dcmmeta_slice_dim": 2,
  "dcmmeta_version": 0.6,
  "global": {
    "const": {
      "AcquisitionMatrix": [104, 0, 0, 104],
      "AngioFlag": "N",
      "BitsAllocated": 16,
      "BitsStored": 16,
      "BodyPartExamined": "BRAIN",
      "Columns": 832,
      "EchoNumbers": 1,
      "EchoTime": 37.0,
      "EchoTrainLength": 104,
      "FlipAngle": 52.0,
      "HighBit": 15,
      "ImageOrientationPatient": [0.99948615131385, -0.0320125739536, -0.0016212466444, 0.02914029791254, 0.92855028064689, -0.370061102182],
      "ImagePositionPatient": [-854.71506568734, -769.8150724235, 279.26321466607],
      "ImageType": [
        "ORIGINAL",
        "PRIMARY",
        "M",
        "MB",
        "ND",
        "MOSAIC"
],
      "ImagedNucleus": "1H",
      "ImagingFrequency": 123.259051,
      "InPlanePhaseEncodingDirection": "COL",
      "MRAcquisitionType": "2D",
      "MagneticFieldStrength": 3.0,
      "Manufacturer": "SIEMENS",
      "ManufacturerModelName": "Prisma_fit",
      "Modality": "MR",
      "NumberOfAverages": 1.0,
      "NumberOfPhaseEncodingSteps": 104,
      "PercentPhaseFieldOfView": 100.0,
      "PercentSampling": 100.0,
      "PerformedProcedureStepStartTime": "155722.883000",
      "PhotometricInterpretation": "MONOCHROME2",
      "PixelBandwidth": 2290.0,
      "PixelRepresentation": 0,
      "PixelSpacing": [2.0, 2.0],
      "ProtocolName": "func_task-friends-s03e03a",
      "RepetitionTime": 1490.0,
      "Rows": 832,
      "SAR": 0.030230415898,
      "SamplesPerPixel": 1,
      "ScanOptions": "FS",
      "ScanningSequence": "EP",
      "SequenceName": "epfid2d1_104",
      "SequenceVariant": [
        "SK",
        "SS"
],
      "SeriesDescription": "func_task-friends-s03e03a",
      "SeriesNumber": 17,
      "SeriesTime": "165241.127000",
      "SliceLocation": -36.670828653641,
      "SliceThickness": 2.0,
      "SmallestImagePixelValue": 0,
      "SoftwareVersions": "syngo MR E11",
      "SpacingBetweenSlices": 2.0000000119987,
      "SpecificCharacterSet": "ISO_IR 100",
      "StudyID": "1",
      "StudyTime": "155722.806000",
      "TransmitCoilName": "Body",
      "VariableFlipAngleFlag": "N",
      "WindowCenterWidthExplanation": "Algo1",
      "dBdt": 0.0},
    "slices": {}
  },
  "time": {
    "samples": {
      "AcquisitionNumber": [1, 2, 3, 4, 5, 6, 7, 8, 9, 10, 11, 12, 13, 14, 15, 16, 17, 18, 19, 20, 21, 22, 23, 24, 25, 26, 27, 28, 29, 30, 31, 32, 33, 34, 35, 36, 37, 38, 39, 40, 41, 42, 43, 44, 45, 46, 47, 48, 49, 50, 51, 52, 53, 54, 55, 56, 57, 58, 59, 60, 61, 62, 63, 64, 65, 66, 67, 68, 69, 70, 71, 72, 73, 74, 75, 76, 77, 78, 79, 80, 81, 82, 83, 84, 85, 86, 87, 88, 89, 90, 91, 92, 93, 94, 95, 96, 97, 98, 99, 100, 101, 102, 103, 104, 105, 106, 107, 108, 109, 110, 111, 112, 113, 114, 115, 116, 117, 118, 119, 120, 121, 122, 123, 124, 125, 126, 127, 128, 129, 130, 131, 132, 133, 134, 135, 136, 137, 138, 139, 140, 141, 142, 143, 144, 145, 146, 147, 148, 149, 150, 151, 152, 153, 154, 155, 156, 157, 158, 159, 160, 161, 162, 163, 164, 165, 166, 167, 168, 169, 170, 171, 172, 173, 174, 175, 176, 177, 178, 179, 180, 181, 182, 183, 184, 185, 186, 187, 188, 189, 190, 191, 192, 193, 194, 195, 196, 197, 198, 199, 200, 201, 202, 203, 204, 205, 206, 207, 208, 209, 210, 211, 212, 213, 214, 215, 216, 217, 218, 219, 220, 221, 222, 223, 224, 225, 226, 227, 228, 229, 230, 231, 232, 233, 234, 235, 236, 237, 238, 239, 240, 241, 242, 243, 244, 245, 246, 247, 248, 249, 250, 251, 252, 253, 254, 255, 256, 257, 258, 259, 260, 261, 262, 263, 264, 265, 266, 267, 268, 269, 270, 271, 272, 273, 274, 275, 276, 277, 278, 279, 280, 281, 282, 283, 284, 285, 286, 287, 288, 289, 290, 291, 292, 293, 294, 295, 296, 297, 298, 299, 300, 301, 302, 303, 304, 305, 306, 307, 308, 309, 310, 311, 312, 313, 314, 315, 316, 317, 318, 319, 320, 321, 322, 323, 324, 325, 326, 327, 328, 329, 330, 331, 332, 333, 334, 335, 336, 337, 338, 339, 340, 341, 342, 343, 344, 345, 346, 347, 348, 349, 350, 351, 352, 353, 354, 355, 356, 357, 358, 359, 360, 361, 362, 363, 364, 365, 366, 367, 368, 369, 370, 371, 372, 373, 374, 375, 376, 377, 378, 379, 380, 381, 382, 383, 384, 385, 386, 387, 388, 389, 390, 391, 392, 393, 394, 395, 396, 397, 398, 399, 400, 401, 402, 403, 404, 405, 406, 407, 408, 409, 410, 411, 412, 413, 414, 415, 416, 417, 418, 419, 420, 421, 422, 423, 424, 425, 426, 427, 428, 429, 430, 431, 432, 433, 434, 435, 436, 437, 438, 439, 440, 441, 442, 443, 444, 445, 446, 447, 448, 449, 450, 451, 452, 453, 454],
      "AcquisitionTime": ["165108.940000", "165110.430000", "165111.920000", "165113.410000", "165114.900000", "165116.390000", "165117.880000", "165119.370000", "165120.860000", "165122.350000", "165123.840000", "165125.330000", "165126.820000", "165128.310000", "165129.800000", "165131.290000", "165132.780000", "165134.270000", "165135.760000", "165137.250000", "165138.740000", "165140.230000", "165141.720000", "165143.210000", "165144.700000", "165146.190000", "165147.680000", "165149.170000", "165150.660000", "165152.150000", "165153.640000", "165155.130000", "165156.620000", "165158.110000", "165159.600000", "165201.090000", "165202.580000", "165204.070000", "165205.560000", "165207.050000", "165208.540000", "165210.030000", "165211.520000", "165213.010000", "165214.500000", "165215.990000", "165217.480000", "165218.970000", "165220.460000", "165221.950000", "165223.440000", "165224.930000", "165226.420000", "165227.910000", "165229.400000", "165230.890000", "165232.380000", "165233.870000", "165235.360000", "165236.850000", "165238.340000", "165239.830000", "165241.320000", "165242.810000", "165244.300000", "165245.790000", "165247.280000", "165248.770000", "165250.260000", "165251.750000", "165253.240000", "165254.730000", "165256.220000", "165257.710000", "165259.200000", "165300.690000", "165302.180000", "165303.670000", "165305.160000", "165306.650000", "165308.140000", "165309.630000", "165311.120000", "165312.610000", "165314.100000", "165315.590000", "165317.080000", "165318.570000", "165320.060000", "165321.550000", "165323.040000", "165324.530000", "165326.020000", "165327.510000", "165329.000000", "165330.490000", "165331.980000", "165333.470000", "165334.960000", "165336.450000", "165337.940000", "165339.430000", "165340.920000", "165342.410000", "165343.900000", "165345.390000", "165346.880000", "165348.370000", "165349.860000", "165351.350000", "165352.840000", "165354.330000", "165355.820000", "165357.310000", "165358.800000", "165400.290000", "165401.780000", "165403.270000", "165404.760000", "165406.250000", "165407.740000", "165409.230000", "165410.720000", "165412.210000", "165413.700000", "165415.190000", "165416.680000", "165418.170000", "165419.660000", "165421.150000", "165422.640000", "165424.130000", "165425.620000", "165427.110000", "165428.600000", "165430.090000", "165431.580000", "165433.070000", "165434.560000", "165436.050000", "165437.540000", "165439.030000", "165440.520000", "165442.010000", "165443.500000", "165444.990000", "165446.480000", "165447.970000", "165449.460000", "165450.950000", "165452.440000", "165453.930000", "165455.420000", "165456.910000", "165458.400000", "165459.890000", "165501.380000", "165502.870000", "165504.360000", "165505.850000", "165507.340000", "165508.830000", "165510.320000", "165511.810000", "165513.300000", "165514.790000", "165516.280000", "165517.770000", "165519.260000", "165520.750000", "165522.240000", "165523.730000", "165525.220000", "165526.710000", "165528.200000", "165529.690000", "165531.180000", "165532.670000", "165534.160000", "165535.650000", "165537.140000", "165538.630000", "165540.120000", "165541.610000", "165543.100000", "165544.590000", "165546.080000", "165547.570000", "165549.060000", "165550.550000", "165552.040000", "165553.530000", "165555.020000", "165556.510000", "165558.000000", "165559.490000", "165600.980000", "165602.470000", "165603.960000", "165605.450000", "165606.940000", "165608.430000", "165609.920000", "165611.410000", "165612.900000", "165614.390000", "165615.880000", "165617.370000", "165618.860000", "165620.350000", "165621.840000", "165623.330000", "165624.820000", "165626.310000", "165627.800000", "165629.290000", "165630.780000", "165632.270000", "165633.760000", "165635.250000", "165636.740000", "165638.230000", "165639.720000", "165641.210000", "165642.700000", "165644.190000", "165645.680000", "165647.170000", "165648.660000", "165650.150000", "165651.640000", "165653.130000", "165654.620000", "165656.110000", "165657.600000", "165659.090000", "165700.580000", "165702.070000", "165703.560000", "165705.050000", "165706.540000", "165708.030000", "165709.520000", "165711.010000", "165712.500000", "165713.990000", "165715.480000", "165716.970000", "165718.460000", "165719.950000", "165721.440000", "165722.930000", "165724.420000", "165725.910000", "165727.400000", "165728.890000", "165730.380000", "165731.870000", "165733.360000", "165734.850000", "165736.340000", "165737.830000", "165739.320000", "165740.810000", "165742.300000", "165743.790000", "165745.280000", "165746.770000", "165748.260000", "165749.750000", "165751.240000", "165752.730000", "165754.220000", "165755.710000", "165757.200000", "165758.690000", "165800.180000", "165801.670000", "165803.160000", "165804.650000", "165806.140000", "165807.630000", "165809.120000", "165810.610000", "165812.100000", "165813.590000", "165815.080000", "165816.570000", "165818.060000", "165819.550000", "165821.040000", "165822.530000", "165824.020000", "165825.510000", "165827.000000", "165828.490000", "165829.980000", "165831.470000", "165832.960000", "165834.450000", "165835.940000", "165837.430000", "165838.920000", "165840.410000", "165841.900000", "165843.390000", "165844.880000", "165846.370000", "165847.860000", "165849.350000", "165850.840000", "165852.330000", "165853.820000", "165855.310000", "165856.800000", "165858.290000", "165859.780000", "165901.270000", "165902.760000", "165904.250000", "165905.740000", "165907.230000", "165908.720000", "165910.210000", "165911.700000", "165913.190000", "165914.680000", "165916.170000", "165917.660000", "165919.150000", "165920.640000", "165922.130000", "165923.620000", "165925.110000", "165926.600000", "165928.090000", "165929.580000", "165931.070000", "165932.560000", "165934.050000", "165935.540000", "165937.030000", "165938.520000", "165940.010000", "165941.500000", "165942.990000", "165944.480000", "165945.970000", "165947.460000", "165948.950000", "165950.440000", "165951.930000", "165953.420000", "165954.910000", "165956.400000", "165957.890000", "165959.380000", "170000.870000", "170002.360000", "170003.850000", "170005.340000", "170006.830000", "170008.320000", "170009.810000", "170011.300000", "170012.790000", "170014.280000", "170015.770000", "170017.260000", "170018.750000", "170020.240000", "170021.730000", "170023.220000", "170024.710000", "170026.200000", "170027.690000", "170029.180000", "170030.670000", "170032.160000", "170033.650000", "170035.140000", "170036.630000", "170038.120000", "170039.610000", "170041.100000", "170042.590000", "170044.080000", "170045.570000", "170047.060000", "170048.550000", "170050.040000", "170051.530000", "170053.020000", "170054.510000", "170056.000000", "170057.490000", "170058.980000", "170100.470000", "170101.960000", "170103.450000", "170104.940000", "170106.430000", "170107.920000", "170109.410000", "170110.900000", "170112.390000", "170113.880000", "170115.370000", "170116.860000", "170118.350000", "170119.840000", "170121.330000", "170122.820000", "170124.310000", "170125.800000", "170127.290000", "170128.780000", "170130.270000", "170131.760000", "170133.250000", "170134.740000", "170136.230000", "170137.720000", "170139.210000", "170140.700000", "170142.190000", "170143.680000", "170145.170000", "170146.660000", "170148.150000", "170149.640000", "170151.130000", "170152.620000", "170154.110000", "170155.600000", "170157.090000", "170158.580000", "170200.070000", "170201.560000", "170203.050000", "170204.540000", "170206.030000", "170207.520000", "170209.010000", "170210.500000", "170211.990000", "170213.480000", "170214.970000", "170216.460000", "170217.950000", "170219.440000", "170220.930000", "170222.420000", "170223.910000"],
      "ContentTime": ["165241.130000", "165241.133000", "165241.136000", "165241.143000", "165241.146000", "165241.148000", "165241.155000", "165241.158000", "165241.160000", "165241.163000", "165241.166000", "165241.169000", "165241.181000", "165241.184000", "165241.187000", "165241.193000", "165241.196000", "165241.199000", "165241.202000", "165241.205000", "165241.207000", "165241.210000", "165241.213000", "165241.216000", "165241.219000", "165241.222000", "165241.224000", "165241.227000", "165241.230000", "165241.233000", "165241.236000", "165241.239000", "165241.241000", "165241.244000", "165241.247000", "165241.250000", "165241.253000", "165241.256000", "165241.258000", "165301.104000", "165301.107000", "165301.110000", "165301.113000", "165301.116000", "165301.118000", "165301.121000", "165301.124000", "165301.127000", "165301.130000", "165301.132000", "165301.135000", "165301.138000", "165301.141000", "165301.144000", "165301.147000", "165301.150000", "165301.152000", "165301.155000", "165301.158000", "165321.104000", "165321.107000", "165321.110000", "165321.113000", "165321.116000", "165321.119000", "165321.122000", "165321.129000", "165321.132000", "165321.135000", "165321.138000", "165321.141000", "165321.143000", "165321.146000", "165321.149000", "165321.152000", "165321.155000", "165321.158000", "165321.160000", "165321.163000", "165341.104000", "165341.107000", "165341.110000", "165341.113000", "165341.115000", "165341.118000", "165341.121000", "165341.124000", "165341.127000", "165341.130000", "165341.133000", "165341.136000", "165341.138000", "165341.141000", "165341.144000", "165341.147000", "165341.150000", "165341.153000", "165341.155000", "165341.158000", "165421.105000", "165421.108000", "165421.111000", "165421.114000", "165421.116000", "165421.119000", "165421.122000", "165421.125000", "165421.128000", "165421.131000", "165421.134000", "165421.136000", "165421.139000", "165421.142000", "165421.145000", "165421.148000", "165421.151000", "165421.154000", "165421.156000", "165421.159000", "165421.162000", "165421.165000", "165421.168000", "165421.178000", "165421.181000", "165421.184000", "165421.187000", "165421.189000", "165421.192000", "165501.104000", "165501.107000", "165501.110000", "165501.113000", "165501.115000", "165501.118000", "165501.121000", "165501.124000", "165501.127000", "165501.130000", "165501.133000", "165501.135000", "165501.138000", "165501.141000", "165501.144000", "165501.147000", "165501.149000", "165501.152000", "165501.155000", "165501.158000", "165501.161000", "165501.164000", "165501.167000", "165501.169000", "165501.172000", "165501.175000", "165501.178000", "165541.104000", "165541.107000", "165541.110000", "165541.112000", "165541.122000", "165541.125000", "165541.128000", "165541.131000", "165541.134000", "165541.137000", "165541.139000", "165541.142000", "165541.145000", "165541.148000", "165541.151000", "165541.154000", "165541.156000", "165541.159000", "165541.162000", "165541.165000", "165541.168000", "165541.171000", "165541.174000", "165541.176000", "165541.179000", "165541.182000", "165541.185000", "165621.104000", "165621.107000", "165621.110000", "165621.113000", "165621.116000", "165621.118000", "165621.121000", "165621.124000", "165621.127000", "165621.130000", "165621.133000", "165621.136000", "165621.138000", "165621.141000", "165621.144000", "165621.147000", "165621.150000", "165621.153000", "165621.156000", "165621.159000", "165621.162000", "165621.165000", "165621.168000", "165621.171000", "165621.173000", "165621.176000", "165701.105000", "165701.108000", "165701.111000", "165701.114000", "165701.116000", "165701.134000", "165701.137000", "165701.139000", "165701.142000", "165701.145000", "165701.148000", "165701.151000", "165701.154000", "165701.156000", "165701.159000", "165701.162000", "165701.165000", "165701.168000", "165701.171000", "165701.174000", "165701.177000", "165701.179000", "165701.182000", "165701.185000", "165701.188000", "165701.191000", "165701.194000", "165741.104000", "165741.107000", "165741.110000", "165741.113000", "165741.116000", "165741.119000", "165741.122000", "165741.125000", "165741.128000", "165741.131000", "165741.134000", "165741.137000", "165741.140000", "165741.143000", "165741.146000", "165741.149000", "165741.152000", "165741.155000", "165741.157000", "165741.160000", "165741.163000", "165741.166000", "165741.169000", "165741.172000", "165741.175000", "165741.178000", "165741.181000", "165821.104000", "165821.107000", "165821.110000", "165821.113000", "165821.116000", "165821.119000", "165821.121000", "165821.124000", "165821.127000", "165821.130000", "165821.133000", "165821.136000", "165821.139000", "165821.142000", "165821.144000", "165821.147000", "165821.150000", "165821.153000", "165821.156000", "165821.159000", "165821.162000", "165821.165000", "165821.168000", "165821.171000", "165821.174000", "165821.177000", "165821.180000", "165901.105000", "165901.108000", "165901.111000", "165901.114000", "165901.117000", "165901.120000", "165901.122000", "165901.125000", "165901.128000", "165901.131000", "165901.134000", "165901.137000", "165901.140000", "165901.143000", "165901.146000", "165901.149000", "165901.151000", "165901.154000", "165901.157000", "165901.160000", "165901.163000", "165901.166000", "165901.169000", "165901.172000", "165901.174000", "165901.177000", "165901.180000", "165941.104000", "165941.107000", "165941.110000", "165941.113000", "165941.115000", "165941.118000", "165941.121000", "165941.124000", "165941.127000", "165941.130000", "165941.133000", "165941.136000", "165941.138000", "165941.141000", "165941.144000", "165941.147000", "165941.150000", "165941.153000", "165941.156000", "165941.158000", "165941.161000", "165941.164000", "165941.167000", "165941.170000", "165941.173000", "165941.176000", "165941.179000", "170021.105000", "170021.109000", "170021.113000", "170021.117000", "170021.120000", "170021.123000", "170021.126000", "170021.129000", "170021.132000", "170021.135000", "170021.137000", "170021.140000", "170021.143000", "170021.146000", "170021.149000", "170021.152000", "170021.154000", "170021.157000", "170021.160000", "170021.163000", "170021.166000", "170021.169000", "170021.172000", "170021.175000", "170021.177000", "170021.180000", "170101.104000", "170101.107000", "170101.110000", "170101.113000", "170101.116000", "170101.119000", "170101.121000", "170101.124000", "170101.127000", "170101.130000", "170101.133000", "170101.136000", "170101.139000", "170101.142000", "170101.144000", "170101.147000", "170101.150000", "170101.153000", "170101.156000", "170101.159000", "170101.162000", "170101.165000", "170101.168000", "170101.170000", "170101.173000", "170101.176000", "170101.179000", "170141.105000", "170141.108000", "170141.111000", "170141.114000", "170141.117000", "170141.119000", "170141.140000", "170141.143000", "170141.146000", "170141.148000", "170141.151000", "170141.154000", "170141.157000", "170141.160000", "170141.163000", "170141.166000", "170141.169000", "170141.172000", "170141.175000", "170141.178000", "170141.180000", "170141.183000", "170141.186000", "170141.189000", "170141.192000", "170141.195000", "170141.198000", "170221.104000", "170221.107000", "170221.110000", "170221.113000", "170221.116000", "170221.119000", "170221.122000", "170221.124000", "170221.127000", "170221.130000", "170221.133000", "170221.136000", "170221.139000", "170221.142000", "170221.144000", "170221.147000", "170221.150000", "170221.153000", "170221.156000", "170221.159000", "170221.162000", "170221.165000", "170221.167000", "170221.170000", "170221.173000", "170221.176000", "170221.179000", "170226.323000", "170226.326000", "170226.337000", "170226.340000"],
