{
  "AcquisitionMatrixPE": 104,
  "AcquisitionNumber": 1,
  "AcquisitionTime": "17:34:1.885000",
  "BandwidthPerPixelPhaseEncode": 17.17,
  "BaseResolution": 104,
  "BodyPartExamined": "BRAIN",
  "CoilString": "HC1-7;NC1_2",
  "ConsistencyInfo": "N4_VE11C_LATEST_20160120",
  "ConversionSoftware": "dcm2niix",
  "ConversionSoftwareVersion": "v1.0.20190902",
  "DerivedVendorReportedEchoSpacing": 0.000560011,
  "DeviceSerialNumber": "167006",
  "DwellTime": 2.1e-06,
  "EchoTime": 0.037,
  "EchoTrainLength": 104,
  "EffectiveEchoSpacing": 0.000560011,
  "FlipAngle": 52,
  "ImageComments": "Unaliased_MB4_PE3_LB",
  "ImageOrientationPatientDICOM": [0.999943, -0.0104512, -0.00220724, 0.00959902, 0.969842, -0.243547],
  "ImageType": [
    "ORIGINAL",
    "PRIMARY",
    "M",
    "MB",
    "ND",
    "MOSAIC"
],
  "ImagingFrequency": 123.259,
  "InPlanePhaseEncodingDirectionDICOM": "COL",
  "InstitutionAddress": "Chemin_Queen-Mary_4565_Montreal_District_CA_H3W_1W5",
  "InstitutionName": "IUGM",
  "InstitutionalDepartmentName": "Department",
  "MRAcquisitionType": "2D",
  "MagneticFieldStrength": 3,
  "Manufacturer": "Siemens",
  "ManufacturersModelName": "Prisma_fit",
  "Modality": "MR",
  "MultibandAccelerationFactor": 4,
  "PartialFourier": 1,
  "PatientPosition": "HFS",
  "PercentPhaseFOV": 100,
  "PhaseEncodingDirection": "j",
  "PhaseEncodingSteps": 104,
  "PhaseResolution": 1,
  "PixelBandwidth": 2290,
  "ProcedureStepDescription": "video_friends",
  "ProtocolName": "func_task-friends-s03e25a",
  "PulseSequenceDetails": "%CustomerSeq%_cmrr_mbep2d_bold",
  "ReceiveCoilActiveElements": "HC1-7;NC1,2",
  "ReceiveCoilName": "HeadNeck_64",
  "ReconMatrixPE": 104,
  "RepetitionTime": 1.49,
  "SAR": 0.0287324,
  "ScanOptions": "FS",
  "ScanningSequence": "EP",
  "SequenceName": "epfid2d1_104",
  "SequenceVariant": "SK_SS",
  "SeriesDescription": "func_task-friends-s03e25a",
  "SeriesNumber": 9,
  "ShimSetting": [634, -7227, -8780, 733, 26, -27, 97, -1],
  "SliceThickness": 2,
  "SliceTiming": [0, 0.785, 0.0975, 0.8825, 0.1975, 0.98, 0.295, 1.0775, 0.3925, 1.1775, 0.49, 1.275, 0.5875, 1.3725, 0.6875, 0, 0.785, 0.0975, 0.8825, 0.1975, 0.98, 0.295, 1.0775, 0.3925, 1.1775, 0.49, 1.275, 0.5875, 1.3725, 0.6875, 0, 0.785, 0.0975, 0.8825, 0.1975, 0.98, 0.295, 1.0775, 0.3925, 1.1775, 0.49, 1.275, 0.5875, 1.3725, 0.6875, 0, 0.785, 0.0975, 0.8825, 0.1975, 0.98, 0.295, 1.0775, 0.3925, 1.1775, 0.49, 1.275, 0.5875, 1.3725, 0.6875],
  "SoftwareVersions": "syngo_MR_E11",
  "SpacingBetweenSlices": 2,
  "StationName": "MRC35049",
  "TaskName": "s03e25a",
  "TotalReadoutTime": 0.0576811,
  "TxRefAmp": 206.269,
  "WipMemBlock": "77ef2a49-4856-40f1-b271-aa13aa134bca||Sequence: R016 ve11c/master r/e634e98; Dec 19 2017 11:00:25 by eja",
  "dcmmeta_affine": [
    [-1.9998859167099, 0.01919803023338318, -0.009372085332870483, 104.76531219482422],
    [0.02090245485305786, 1.9396830797195435, -0.4870242774486542, -86.20645141601562],
    [-0.004414484836161137, 0.4870944321155548, 1.9397730827331543, -56.53425216674805],
    [0.0, 0.0, 0.0, 1.0]
],
  "dcmmeta_reorient_transform": [
    [0.0, -1.0, 0.0, 103.0],
    [1.0, 0.0, 0.0, 0.0],
    [0.0, 0.0, 1.0, 0.0],
    [0.0, 0.0, 0.0, 1.0]
],
  "dcmmeta_shape": [104, 104, 60, 479],
  "dcmmeta_slice_dim": 2,
  "dcmmeta_version": 0.6,
  "global": {
    "const": {
      "AcquisitionMatrix": [104, 0, 0, 104],
      "AngioFlag": "N",
      "BitsAllocated": 16,
      "BitsStored": 16,
      "BodyPartExamined": "BRAIN",
      "Columns": 832,
      "EchoNumbers": 1,
      "EchoTime": 37.0,
      "EchoTrainLength": 104,
      "FlipAngle": 52.0,
      "HighBit": 15,
      "ImageOrientationPatient": [0.99994294833278, -0.0104512277071, -0.0022072423899, 0.00959901468117, 0.96984154026726, -0.2435472144968],
      "ImagePositionPatient": [-841.68925821929, -812.01705275602, 172.54571678154],
      "ImageType": [
        "ORIGINAL",
        "PRIMARY",
        "M",
        "MB",
        "ND",
        "MOSAIC"
],
      "ImagedNucleus": "1H",
      "ImagingFrequency": 123.259046,
      "InPlanePhaseEncodingDirection": "COL",
      "MRAcquisitionType": "2D",
      "MagneticFieldStrength": 3.0,
      "Manufacturer": "SIEMENS",
      "ManufacturerModelName": "Prisma_fit",
      "Modality": "MR",
      "NumberOfAverages": 1.0,
      "NumberOfPhaseEncodingSteps": 104,
      "PercentPhaseFieldOfView": 100.0,
      "PercentSampling": 100.0,
      "PerformedProcedureStepStartTime": "171104.356000",
      "PhotometricInterpretation": "MONOCHROME2",
      "PixelBandwidth": 2290.0,
      "PixelRepresentation": 0,
      "PixelSpacing": [2.0, 2.0],
      "ProtocolName": "func_task-friends-s03e25a",
      "RepetitionTime": 1490.0,
      "Rows": 832,
      "SAR": 0.02873239197827,
      "SamplesPerPixel": 1,
      "ScanOptions": "FS",
      "ScanningSequence": "EP",
      "SequenceName": "epfid2d1_104",
      "SequenceVariant": [
        "SK",
        "SS"
],
      "SeriesDescription": "func_task-friends-s03e25a",
      "SeriesNumber": 9,
      "SeriesTime": "173508.097000",
      "SliceLocation": -34.330429255532,
      "SliceThickness": 2.0,
      "SmallestImagePixelValue": 0,
      "SoftwareVersions": "syngo MR E11",
      "SpacingBetweenSlices": 2.0000000154931,
      "SpecificCharacterSet": "ISO_IR 100",
      "StudyID": "1",
      "StudyTime": "171104.292000",
      "TransmitCoilName": "Body",
      "VariableFlipAngleFlag": "N",
      "WindowCenterWidthExplanation": "Algo1",
      "dBdt": 0.0},
    "slices": {}
  },
  "time": {
    "samples": {
      "AcquisitionNumber": [1, 2, 3, 4, 5, 6, 7, 8, 9, 10, 11, 12, 13, 14, 15, 16, 17, 18, 19, 20, 21, 22, 23, 24, 25, 26, 27, 28, 29, 30, 31, 32, 33, 34, 35, 36, 37, 38, 39, 40, 41, 42, 43, 44, 45, 46, 47, 48, 49, 50, 51, 52, 53, 54, 55, 56, 57, 58, 59, 60, 61, 62, 63, 64, 65, 66, 67, 68, 69, 70, 71, 72, 73, 74, 75, 76, 77, 78, 79, 80, 81, 82, 83, 84, 85, 86, 87, 88, 89, 90, 91, 92, 93, 94, 95, 96, 97, 98, 99, 100, 101, 102, 103, 104, 105, 106, 107, 108, 109, 110, 111, 112, 113, 114, 115, 116, 117, 118, 119, 120, 121, 122, 123, 124, 125, 126, 127, 128, 129, 130, 131, 132, 133, 134, 135, 136, 137, 138, 139, 140, 141, 142, 143, 144, 145, 146, 147, 148, 149, 150, 151, 152, 153, 154, 155, 156, 157, 158, 159, 160, 161, 162, 163, 164, 165, 166, 167, 168, 169, 170, 171, 172, 173, 174, 175, 176, 177, 178, 179, 180, 181, 182, 183, 184, 185, 186, 187, 188, 189, 190, 191, 192, 193, 194, 195, 196, 197, 198, 199, 200, 201, 202, 203, 204, 205, 206, 207, 208, 209, 210, 211, 212, 213, 214, 215, 216, 217, 218, 219, 220, 221, 222, 223, 224, 225, 226, 227, 228, 229, 230, 231, 232, 233, 234, 235, 236, 237, 238, 239, 240, 241, 242, 243, 244, 245, 246, 247, 248, 249, 250, 251, 252, 253, 254, 255, 256, 257, 258, 259, 260, 261, 262, 263, 264, 265, 266, 267, 268, 269, 270, 271, 272, 273, 274, 275, 276, 277, 278, 279, 280, 281, 282, 283, 284, 285, 286, 287, 288, 289, 290, 291, 292, 293, 294, 295, 296, 297, 298, 299, 300, 301, 302, 303, 304, 305, 306, 307, 308, 309, 310, 311, 312, 313, 314, 315, 316, 317, 318, 319, 320, 321, 322, 323, 324, 325, 326, 327, 328, 329, 330, 331, 332, 333, 334, 335, 336, 337, 338, 339, 340, 341, 342, 343, 344, 345, 346, 347, 348, 349, 350, 351, 352, 353, 354, 355, 356, 357, 358, 359, 360, 361, 362, 363, 364, 365, 366, 367, 368, 369, 370, 371, 372, 373, 374, 375, 376, 377, 378, 379, 380, 381, 382, 383, 384, 385, 386, 387, 388, 389, 390, 391, 392, 393, 394, 395, 396, 397, 398, 399, 400, 401, 402, 403, 404, 405, 406, 407, 408, 409, 410, 411, 412, 413, 414, 415, 416, 417, 418, 419, 420, 421, 422, 423, 424, 425, 426, 427, 428, 429, 430, 431, 432, 433, 434, 435, 436, 437, 438, 439, 440, 441, 442, 443, 444, 445, 446, 447, 448, 449, 450, 451, 452, 453, 454, 455, 456, 457, 458, 459, 460, 461, 462, 463, 464, 465, 466, 467, 468, 469, 470, 471, 472, 473, 474, 475, 476, 477, 478, 479],
      "AcquisitionTime": ["173401.885000", "173403.375000", "173404.865000", "173406.355000", "173407.845000", "173409.335000", "173410.825000", "173412.315000", "173413.805000", "173415.295000", "173416.785000", "173418.275000", "173419.765000", "173421.255000", "173422.745000", "173424.235000", "173425.725000", "173427.215000", "173428.705000", "173430.195000", "173431.685000", "173433.175000", "173434.665000", "173436.155000", "173437.645000", "173439.135000", "173440.625000", "173442.115000", "173443.605000", "173445.095000", "173446.585000", "173448.075000", "173449.565000", "173451.055000", "173452.545000", "173454.035000", "173455.525000", "173457.015000", "173458.505000", "173459.995000", "173501.485000", "173502.975000", "173504.465000", "173505.955000", "173507.445000", "173508.935000", "173510.425000", "173511.915000", "173513.405000", "173514.895000", "173516.385000", "173517.875000", "173519.365000", "173520.855000", "173522.345000", "173523.835000", "173525.325000", "173526.815000", "173528.305000", "173529.795000", "173531.285000", "173532.775000", "173534.265000", "173535.755000", "173537.245000", "173538.735000", "173540.225000", "173541.715000", "173543.205000", "173544.695000", "173546.185000", "173547.675000", "173549.165000", "173550.655000", "173552.145000", "173553.635000", "173555.125000", "173556.615000", "173558.105000", "173559.595000", "173601.085000", "173602.575000", "173604.065000", "173605.555000", "173607.045000", "173608.535000", "173610.025000", "173611.515000", "173613.005000", "173614.495000", "173615.985000", "173617.475000", "173618.965000", "173620.455000", "173621.945000", "173623.435000", "173624.925000", "173626.415000", "173627.905000", "173629.395000", "173630.885000", "173632.375000", "173633.865000", "173635.355000", "173636.845000", "173638.335000", "173639.825000", "173641.315000", "173642.805000", "173644.295000", "173645.785000", "173647.275000", "173648.765000", "173650.255000", "173651.745000", "173653.235000", "173654.725000", "173656.215000", "173657.705000", "173659.195000", "173700.685000", "173702.175000", "173703.665000", "173705.155000", "173706.645000", "173708.135000", "173709.625000", "173711.115000", "173712.605000", "173714.095000", "173715.585000", "173717.075000", "173718.565000", "173720.055000", "173721.545000", "173723.035000", "173724.525000", "173726.015000", "173727.505000", "173728.995000", "173730.485000", "173731.975000", "173733.465000", "173734.955000", "173736.445000", "173737.935000", "173739.425000", "173740.915000", "173742.405000", "173743.895000", "173745.385000", "173746.875000", "173748.365000", "173749.855000", "173751.345000", "173752.835000", "173754.325000", "173755.815000", "173757.305000", "173758.795000", "173800.285000", "173801.775000", "173803.265000", "173804.755000", "173806.245000", "173807.735000", "173809.225000", "173810.715000", "173812.205000", "173813.695000", "173815.185000", "173816.675000", "173818.165000", "173819.655000", "173821.145000", "173822.635000", "173824.125000", "173825.615000", "173827.105000", "173828.595000", "173830.085000", "173831.575000", "173833.065000", "173834.555000", "173836.045000", "173837.535000", "173839.025000", "173840.515000", "173842.005000", "173843.495000", "173844.985000", "173846.475000", "173847.965000", "173849.455000", "173850.945000", "173852.435000", "173853.925000", "173855.415000", "173856.905000", "173858.395000", "173859.885000", "173901.375000", "173902.865000", "173904.355000", "173905.845000", "173907.335000", "173908.825000", "173910.315000", "173911.805000", "173913.295000", "173914.785000", "173916.275000", "173917.765000", "173919.255000", "173920.745000", "173922.235000", "173923.725000", "173925.215000", "173926.705000", "173928.195000", "173929.685000", "173931.175000", "173932.665000", "173934.155000", "173935.645000", "173937.135000", "173938.625000", "173940.115000", "173941.605000", "173943.095000", "173944.585000", "173946.075000", "173947.565000", "173949.055000", "173950.545000", "173952.035000", "173953.525000", "173955.015000", "173956.505000", "173957.995000", "173959.485000", "174000.975000", "174002.465000", "174003.955000", "174005.445000", "174006.935000", "174008.425000", "174009.915000", "174011.405000", "174012.895000", "174014.385000", "174015.875000", "174017.365000", "174018.855000", "174020.345000", "174021.835000", "174023.325000", "174024.815000", "174026.305000", "174027.795000", "174029.285000", "174030.775000", "174032.265000", "174033.755000", "174035.245000", "174036.735000", "174038.225000", "174039.715000", "174041.205000", "174042.695000", "174044.185000", "174045.675000", "174047.165000", "174048.655000", "174050.145000", "174051.635000", "174053.125000", "174054.615000", "174056.105000", "174057.595000", "174059.085000", "174100.575000", "174102.065000", "174103.555000", "174105.045000", "174106.535000", "174108.025000", "174109.515000", "174111.005000", "174112.495000", "174113.985000", "174115.475000", "174116.965000", "174118.455000", "174119.945000", "174121.435000", "174122.925000", "174124.415000", "174125.905000", "174127.395000", "174128.885000", "174130.375000", "174131.865000", "174133.355000", "174134.845000", "174136.335000", "174137.825000", "174139.315000", "174140.805000", "174142.295000", "174143.785000", "174145.275000", "174146.765000", "174148.255000", "174149.745000", "174151.235000", "174152.725000", "174154.215000", "174155.705000", "174157.195000", "174158.685000", "174200.175000", "174201.665000", "174203.155000", "174204.645000", "174206.135000", "174207.625000", "174209.115000", "174210.605000", "174212.095000", "174213.585000", "174215.075000", "174216.565000", "174218.055000", "174219.545000", "174221.035000", "174222.525000", "174224.015000", "174225.505000", "174226.995000", "174228.485000", "174229.975000", "174231.465000", "174232.955000", "174234.445000", "174235.935000", "174237.425000", "174238.915000", "174240.405000", "174241.895000", "174243.385000", "174244.875000", "174246.365000", "174247.855000", "174249.345000", "174250.835000", "174252.325000", "174253.815000", "174255.305000", "174256.795000", "174258.285000", "174259.775000", "174301.265000", "174302.755000", "174304.245000", "174305.735000", "174307.225000", "174308.715000", "174310.205000", "174311.695000", "174313.185000", "174314.675000", "174316.165000", "174317.655000", "174319.145000", "174320.635000", "174322.125000", "174323.615000", "174325.105000", "174326.595000", "174328.085000", "174329.575000", "174331.065000", "174332.555000", "174334.045000", "174335.535000", "174337.025000", "174338.515000", "174340.005000", "174341.495000", "174342.985000", "174344.475000", "174345.965000", "174347.455000", "174348.945000", "174350.435000", "174351.925000", "174353.415000", "174354.905000", "174356.395000", "174357.885000", "174359.375000", "174400.865000", "174402.355000", "174403.845000", "174405.335000", "174406.825000", "174408.315000", "174409.805000", "174411.295000", "174412.785000", "174414.275000", "174415.765000", "174417.255000", "174418.745000", "174420.235000", "174421.725000", "174423.215000", "174424.705000", "174426.195000", "174427.685000", "174429.175000", "174430.665000", "174432.155000", "174433.645000", "174435.135000", "174436.625000", "174438.115000", "174439.605000", "174441.095000", "174442.585000", "174444.075000", "174445.565000", "174447.055000", "174448.545000", "174450.035000", "174451.525000", "174453.015000", "174454.505000", "174455.995000", "174457.485000", "174458.975000", "174500.465000", "174501.955000", "174503.445000", "174504.935000", "174506.425000", "174507.915000", "174509.405000", "174510.895000", "174512.385000", "174513.875000", "174515.365000", "174516.855000", "174518.345000", "174519.835000", "174521.325000", "174522.815000", "174524.305000", "174525.795000", "174527.285000", "174528.775000", "174530.265000", "174531.755000", "174533.245000", "174534.735000", "174536.225000", "174537.715000", "174539.205000", "174540.695000", "174542.185000", "174543.675000", "174545.165000", "174546.655000", "174548.145000", "174549.635000", "174551.125000", "174552.615000", "174554.105000"],
      "ContentTime": ["173508.100000", "173508.103000", "173508.106000", "173508.109000", "173508.112000", "173508.115000", "173508.118000", "173508.121000", "173508.124000", "173508.127000", "173508.130000", "173508.133000", "173508.136000", "173528.066000", "173528.074000", "173528.077000", "173528.079000", "173528.082000", "173528.085000", "173528.088000", "173528.091000", "173528.094000", "173528.097000", "173528.100000", "173528.103000", "173528.109000", "173528.112000", "173528.115000", "173528.117000", "173528.120000", "173528.123000", "173528.126000", "173528.129000", "173548.066000", "173548.069000", "173548.072000", "173548.075000", "173548.078000", "173548.081000", "173548.084000", "173548.087000", "173548.090000", "173548.093000", "173548.095000", "173548.098000", "173548.101000", "173548.104000", "173548.107000", "173548.110000", "173548.116000", "173548.119000", "173548.122000", "173548.125000", "173608.067000", "173608.070000", "173608.073000", "173608.076000", "173608.079000", "173608.082000", "173608.085000", "173608.087000", "173608.090000", "173608.093000", "173608.096000", "173608.099000", "173608.102000", "173608.105000", "173608.108000", "173608.111000", "173608.114000", "173608.117000", "173608.120000", "173608.122000", "173628.067000", "173628.070000", "173628.073000", "173628.076000", "173628.096000", "173628.099000", "173628.102000", "173628.105000", "173628.108000", "173628.110000", "173628.113000", "173628.116000", "173628.119000", "173628.122000", "173628.125000", "173628.128000", "173628.131000", "173628.134000", "173628.137000", "173628.140000", "173708.067000", "173708.070000", "173708.073000", "173708.076000", "173708.079000", "173708.082000", "173708.085000", "173708.088000", "173708.091000", "173708.093000", "173708.096000", "173708.099000", "173708.102000", "173708.105000", "173708.108000", "173708.111000", "173708.114000", "173708.117000", "173708.120000", "173708.123000", "173708.126000", "173708.129000", "173708.132000", "173708.135000", "173708.138000", "173708.140000", "173708.143000", "173708.146000", "173708.149000", "173708.152000", "173708.155000", "173748.066000", "173748.069000", "173748.072000", "173748.075000", "173748.078000", "173748.081000", "173748.084000", "173748.087000", "173748.090000", "173748.092000", "173748.095000", "173748.098000", "173748.101000", "173748.104000", "173748.107000", "173748.110000", "173748.113000", "173748.116000", "173748.119000", "173748.122000", "173748.125000", "173748.128000", "173748.130000", "173748.133000", "173748.136000", "173748.139000", "173748.142000", "173828.067000", "173828.070000", "173828.073000", "173828.076000", "173828.079000", "173828.082000", "173828.085000", "173828.088000", "173828.091000", "173828.094000", "173828.097000", "173828.100000", "173828.103000", "173828.106000", "173828.109000", "173828.112000", "173828.115000", "173828.117000", "173828.120000", "173828.123000", "173828.126000", "173828.129000", "173828.132000", "173828.135000", "173828.138000", "173828.141000", "173828.144000", "173908.067000", "173908.070000", "173908.073000", "173908.076000", "173908.079000", "173908.082000", "173908.085000", "173908.088000", "173908.091000", "173908.094000", "173908.097000", "173908.100000", "173908.103000", "173908.106000", "173908.109000", "173908.112000", "173908.115000", "173908.118000", "173908.121000", "173908.124000", "173908.127000", "173908.130000", "173908.133000", "173908.136000", "173908.138000", "173908.141000", "173908.144000", "173948.066000", "173948.069000", "173948.072000", "173948.075000", "173948.078000", "173948.081000", "173948.084000", "173948.087000", "173948.090000", "173948.093000", "173948.096000", "173948.099000", "173948.101000", "173948.104000", "173948.107000", "173948.110000", "173948.113000", "173948.116000", "173948.119000", "173948.122000", "173948.125000", "173948.128000", "173948.131000", "173948.134000", "173948.137000", "173948.140000", "173948.143000", "174028.066000", "174028.069000", "174028.072000", "174028.075000", "174028.078000", "174028.081000", "174028.084000", "174028.087000", "174028.091000", "174028.093000", "174028.096000", "174028.099000", "174028.103000", "174028.107000", "174028.110000", "174028.113000", "174028.115000", "174028.118000", "174028.121000", "174028.124000", "174028.127000", "174028.130000", "174028.133000", "174028.136000", "174028.139000", "174028.142000", "174108.067000", "174108.070000", "174108.083000", "174108.086000", "174108.089000", "174108.092000", "174108.095000", "174108.098000", "174108.101000", "174108.104000", "174108.107000", "174108.110000", "174108.113000", "174108.116000", "174108.119000", "174108.121000", "174108.124000", "174108.127000", "174108.130000", "174108.133000", "174108.136000", "174108.139000", "174108.142000", "174108.145000", "174108.148000", "174108.151000", "174108.154000", "174148.067000", "174148.070000", "174148.073000", "174148.076000", "174148.079000", "174148.082000", "174148.085000", "174148.088000", "174148.091000", "174148.094000", "174148.097000", "174148.100000", "174148.102000", "174148.105000", "174148.108000", "174148.111000", "174148.114000", "174148.117000", "174148.120000", "174148.123000", "174148.126000", "174148.129000", "174148.132000", "174148.135000", "174148.138000", "174148.141000", "174148.144000", "174228.066000", "174228.069000", "174228.072000", "174228.075000", "174228.078000", "174228.081000", "174228.084000", "174228.087000", "174228.090000", "174228.093000", "174228.096000", "174228.099000", "174228.102000", "174228.115000", "174228.119000", "174228.122000", "174228.125000", "174228.128000", "174228.131000", "174228.134000", "174228.137000", "174228.140000", "174228.142000", "174228.145000", "174228.148000", "174228.151000", "174228.154000", "174308.067000", "174308.070000", "174308.073000", "174308.076000", "174308.079000", "174308.082000", "174308.085000", "174308.088000", "174308.091000", "174308.094000", "174308.097000", "174308.100000", "174308.102000", "174308.105000", "174308.108000", "174308.111000", "174308.114000", "174308.117000", "174308.120000", "174308.123000", "174308.126000", "174308.129000", "174308.132000", "174308.135000", "174308.138000", "174308.141000", "174308.144000", "174348.067000", "174348.070000", "174348.073000", "174348.076000", "174348.079000", "174348.082000", "174348.085000", "174348.088000", "174348.091000", "174348.094000", "174348.097000", "174348.100000", "174348.103000", "174348.106000", "174348.109000", "174348.112000", "174348.114000", "174348.117000", "174348.120000", "174348.123000", "174348.126000", "174348.129000", "174348.132000", "174348.135000", "174348.138000", "174348.141000", "174348.144000", "174428.066000", "174428.069000", "174428.072000", "174428.075000", "174428.078000", "174428.081000", "174428.084000", "174428.087000", "174428.090000", "174428.093000", "174428.096000", "174428.099000", "174428.102000", "174428.105000", "174428.108000", "174428.111000", "174428.114000", "174428.117000", "174428.121000", "174428.124000", "174428.127000", "174428.130000", "174428.133000", "174428.136000", "174428.139000", "174428.142000", "174508.066000", "174508.069000", "174508.072000", "174508.075000", "174508.078000", "174508.081000", "174508.084000", "174508.087000", "174508.090000", "174508.093000", "174508.096000", "174508.099000", "174508.102000", "174508.105000", "174508.108000", "174508.111000", "174508.113000", "174508.116000", "174508.119000", "174508.122000", "174508.125000", "174508.128000", "174508.131000", "174508.134000", "174508.137000", "174508.152000", "174508.155000", "174548.067000", "174548.070000", "174548.073000", "174548.076000", "174548.079000", "174548.082000", "174548.085000", "174548.088000", "174548.091000", "174548.094000", "174548.097000", "174548.100000", "174548.103000", "174548.106000", "174548.109000", "174548.112000", "174548.115000", "174548.118000", "174548.121000", "174548.124000", "174548.126000", "174548.129000", "174548.132000", "174548.135000", "174548.138000", "174548.141000", "174548.144000", "174556.084000", "174556.087000", "174556.090000", "174556.093000", "174556.096000", "174556.099000"],
