{
  "AcquisitionMatrixPE": 104,
  "AcquisitionNumber": 1,
  "AcquisitionTime": "18:00:52.410000",
  "BandwidthPerPixelPhaseEncode": 17.17,
  "BaseResolution": 104,
  "BodyPartExamined": "BRAIN",
  "CoilString": "HC1-7;NC1_2",
  "ConsistencyInfo": "N4_VE11C_LATEST_20160120",
  "ConversionSoftware": "dcm2niix",
  "ConversionSoftwareVersion": "v1.0.20190902",
  "DerivedVendorReportedEchoSpacing": 0.000560011,
  "DeviceSerialNumber": "167006",
  "DwellTime": 2.1e-06,
  "EchoTime": 0.037,
  "EchoTrainLength": 104,
  "EffectiveEchoSpacing": 0.000560011,
  "FlipAngle": 52,
  "ImageComments": "Unaliased_MB4_PE3_LB",
  "ImageOrientationPatientDICOM": [0.999943, -0.0104512, -0.00220724, 0.00959902, 0.969842, -0.243547],
  "ImageType": [
    "ORIGINAL",
    "PRIMARY",
    "M",
    "MB",
    "ND",
    "MOSAIC"
],
  "ImagingFrequency": 123.259,
  "InPlanePhaseEncodingDirectionDICOM": "COL",
  "InstitutionAddress": "Chemin_Queen-Mary_4565_Montreal_District_CA_H3W_1W5",
  "InstitutionName": "IUGM",
  "InstitutionalDepartmentName": "Department",
  "MRAcquisitionType": "2D",
  "MagneticFieldStrength": 3,
  "Manufacturer": "Siemens",
  "ManufacturersModelName": "Prisma_fit",
  "Modality": "MR",
  "MultibandAccelerationFactor": 4,
  "PartialFourier": 1,
  "PatientPosition": "HFS",
  "PercentPhaseFOV": 100,
  "PhaseEncodingDirection": "j",
  "PhaseEncodingSteps": 104,
  "PhaseResolution": 1,
  "PixelBandwidth": 2290,
  "ProcedureStepDescription": "video_friends",
  "ProtocolName": "func_task-friends-s04e01a",
  "PulseSequenceDetails": "%CustomerSeq%_cmrr_mbep2d_bold",
  "ReceiveCoilActiveElements": "HC1-7;NC1,2",
  "ReceiveCoilName": "HeadNeck_64",
  "ReconMatrixPE": 104,
  "RepetitionTime": 1.49,
  "SAR": 0.0287296,
  "ScanOptions": "FS",
  "ScanningSequence": "EP",
  "SequenceName": "epfid2d1_104",
  "SequenceVariant": "SK_SS",
  "SeriesDescription": "func_task-friends-s04e01a",
  "SeriesNumber": 15,
  "ShimSetting": [634, -7227, -8780, 733, 26, -27, 97, -1],
  "SliceThickness": 2,
  "SliceTiming": [0, 0.785, 0.1, 0.8825, 0.1975, 0.98, 0.295, 1.08, 0.3925, 1.1775, 0.49, 1.275, 0.59, 1.3725, 0.6875, 0, 0.785, 0.1, 0.8825, 0.1975, 0.98, 0.295, 1.08, 0.3925, 1.1775, 0.49, 1.275, 0.59, 1.3725, 0.6875, 0, 0.785, 0.1, 0.8825, 0.1975, 0.98, 0.295, 1.08, 0.3925, 1.1775, 0.49, 1.275, 0.59, 1.3725, 0.6875, 0, 0.785, 0.1, 0.8825, 0.1975, 0.98, 0.295, 1.08, 0.3925, 1.1775, 0.49, 1.275, 0.59, 1.3725, 0.6875],
  "SoftwareVersions": "syngo_MR_E11",
  "SpacingBetweenSlices": 2,
  "StationName": "MRC35049",
  "TaskName": "s04e01a",
  "TotalReadoutTime": 0.0576811,
  "TxRefAmp": 206.269,
  "WipMemBlock": "37803008-93f3-496f-af79-a82d84a48645||Sequence: R016 ve11c/master r/e634e98; Dec 19 2017 11:00:25 by eja",
  "dcmmeta_affine": [
    [-1.9998859167099, 0.01919803023338318, -0.009372085332870483, 104.76531219482422],
    [0.02090245485305786, 1.9396830797195435, -0.4870242774486542, -86.20645141601562],
    [-0.004414484836161137, 0.4870944321155548, 1.9397730827331543, -56.53425216674805],
    [0.0, 0.0, 0.0, 1.0]
],
  "dcmmeta_reorient_transform": [
    [0.0, -1.0, 0.0, 103.0],
    [1.0, 0.0, 0.0, 0.0],
    [0.0, 0.0, 1.0, 0.0],
    [0.0, 0.0, 0.0, 1.0]
],
  "dcmmeta_shape": [104, 104, 60, 468],
  "dcmmeta_slice_dim": 2,
  "dcmmeta_version": 0.6,
  "global": {
    "const": {
      "AcquisitionMatrix": [104, 0, 0, 104],
      "AngioFlag": "N",
      "BitsAllocated": 16,
      "BitsStored": 16,
      "BodyPartExamined": "BRAIN",
      "Columns": 832,
      "EchoNumbers": 1,
      "EchoTime": 37.0,
      "EchoTrainLength": 104,
      "FlipAngle": 52.0,
      "HighBit": 15,
      "ImageOrientationPatient": [0.99994294833278, -0.0104512277071, -0.0022072423899, 0.00959901468117, 0.96984154026726, -0.2435472144968],
      "ImagePositionPatient": [-841.68925821929, -812.01705275602, 172.54571678154],
      "ImageType": [
        "ORIGINAL",
        "PRIMARY",
        "M",
        "MB",
        "ND",
        "MOSAIC"
],
      "ImagedNucleus": "1H",
      "ImagingFrequency": 123.259064,
      "InPlanePhaseEncodingDirection": "COL",
      "MRAcquisitionType": "2D",
      "MagneticFieldStrength": 3.0,
      "Manufacturer": "SIEMENS",
      "ManufacturerModelName": "Prisma_fit",
      "Modality": "MR",
      "NumberOfAverages": 1.0,
      "NumberOfPhaseEncodingSteps": 104,
      "PercentPhaseFieldOfView": 100.0,
      "PercentSampling": 100.0,
      "PerformedProcedureStepStartTime": "171104.356000",
      "PhotometricInterpretation": "MONOCHROME2",
      "PixelBandwidth": 2290.0,
      "PixelRepresentation": 0,
      "PixelSpacing": [2.0, 2.0],
      "ProtocolName": "func_task-friends-s04e01a",
      "RepetitionTime": 1490.0,
      "Rows": 832,
      "SAR": 0.02872960378233,
      "SamplesPerPixel": 1,
      "ScanOptions": "FS",
      "ScanningSequence": "EP",
      "SequenceName": "epfid2d1_104",
      "SequenceVariant": [
        "SK",
        "SS"
],
      "SeriesDescription": "func_task-friends-s04e01a",
      "SeriesNumber": 15,
      "SeriesTime": "180212.896000",
      "SliceLocation": -34.330429255532,
      "SliceThickness": 2.0,
      "SmallestImagePixelValue": 0,
      "SoftwareVersions": "syngo MR E11",
      "SpacingBetweenSlices": 2.0000000154931,
      "SpecificCharacterSet": "ISO_IR 100",
      "StudyID": "1",
      "StudyTime": "171104.292000",
      "TransmitCoilName": "Body",
      "VariableFlipAngleFlag": "N",
      "WindowCenterWidthExplanation": "Algo1",
      "dBdt": 0.0},
    "slices": {}
  },
  "time": {
    "samples": {
      "AcquisitionNumber": [1, 2, 3, 4, 5, 6, 7, 8, 9, 10, 11, 12, 13, 14, 15, 16, 17, 18, 19, 20, 21, 22, 23, 24, 25, 26, 27, 28, 29, 30, 31, 32, 33, 34, 35, 36, 37, 38, 39, 40, 41, 42, 43, 44, 45, 46, 47, 48, 49, 50, 51, 52, 53, 54, 55, 56, 57, 58, 59, 60, 61, 62, 63, 64, 65, 66, 67, 68, 69, 70, 71, 72, 73, 74, 75, 76, 77, 78, 79, 80, 81, 82, 83, 84, 85, 86, 87, 88, 89, 90, 91, 92, 93, 94, 95, 96, 97, 98, 99, 100, 101, 102, 103, 104, 105, 106, 107, 108, 109, 110, 111, 112, 113, 114, 115, 116, 117, 118, 119, 120, 121, 122, 123, 124, 125, 126, 127, 128, 129, 130, 131, 132, 133, 134, 135, 136, 137, 138, 139, 140, 141, 142, 143, 144, 145, 146, 147, 148, 149, 150, 151, 152, 153, 154, 155, 156, 157, 158, 159, 160, 161, 162, 163, 164, 165, 166, 167, 168, 169, 170, 171, 172, 173, 174, 175, 176, 177, 178, 179, 180, 181, 182, 183, 184, 185, 186, 187, 188, 189, 190, 191, 192, 193, 194, 195, 196, 197, 198, 199, 200, 201, 202, 203, 204, 205, 206, 207, 208, 209, 210, 211, 212, 213, 214, 215, 216, 217, 218, 219, 220, 221, 222, 223, 224, 225, 226, 227, 228, 229, 230, 231, 232, 233, 234, 235, 236, 237, 238, 239, 240, 241, 242, 243, 244, 245, 246, 247, 248, 249, 250, 251, 252, 253, 254, 255, 256, 257, 258, 259, 260, 261, 262, 263, 264, 265, 266, 267, 268, 269, 270, 271, 272, 273, 274, 275, 276, 277, 278, 279, 280, 281, 282, 283, 284, 285, 286, 287, 288, 289, 290, 291, 292, 293, 294, 295, 296, 297, 298, 299, 300, 301, 302, 303, 304, 305, 306, 307, 308, 309, 310, 311, 312, 313, 314, 315, 316, 317, 318, 319, 320, 321, 322, 323, 324, 325, 326, 327, 328, 329, 330, 331, 332, 333, 334, 335, 336, 337, 338, 339, 340, 341, 342, 343, 344, 345, 346, 347, 348, 349, 350, 351, 352, 353, 354, 355, 356, 357, 358, 359, 360, 361, 362, 363, 364, 365, 366, 367, 368, 369, 370, 371, 372, 373, 374, 375, 376, 377, 378, 379, 380, 381, 382, 383, 384, 385, 386, 387, 388, 389, 390, 391, 392, 393, 394, 395, 396, 397, 398, 399, 400, 401, 402, 403, 404, 405, 406, 407, 408, 409, 410, 411, 412, 413, 414, 415, 416, 417, 418, 419, 420, 421, 422, 423, 424, 425, 426, 427, 428, 429, 430, 431, 432, 433, 434, 435, 436, 437, 438, 439, 440, 441, 442, 443, 444, 445, 446, 447, 448, 449, 450, 451, 452, 453, 454, 455, 456, 457, 458, 459, 460, 461, 462, 463, 464, 465, 466, 467, 468],
      "AcquisitionTime": ["180052.410000", "180053.900000", "180055.390000", "180056.880000", "180058.370000", "180059.860000", "180101.350000", "180102.840000", "180104.330000", "180105.820000", "180107.310000", "180108.800000", "180110.290000", "180111.780000", "180113.270000", "180114.760000", "180116.250000", "180117.740000", "180119.230000", "180120.720000", "180122.210000", "180123.700000", "180125.190000", "180126.680000", "180128.170000", "180129.660000", "180131.150000", "180132.640000", "180134.130000", "180135.620000", "180137.110000", "180138.600000", "180140.090000", "180141.580000", "180143.070000", "180144.560000", "180146.050000", "180147.540000", "180149.030000", "180150.520000", "180152.010000", "180153.500000", "180154.990000", "180156.480000", "180157.970000", "180159.460000", "180200.950000", "180202.440000", "180203.930000", "180205.420000", "180206.910000", "180208.400000", "180209.890000", "180211.380000", "180212.870000", "180214.360000", "180215.850000", "180217.340000", "180218.830000", "180220.320000", "180221.810000", "180223.300000", "180224.790000", "180226.280000", "180227.770000", "180229.260000", "180230.750000", "180232.240000", "180233.730000", "180235.220000", "180236.710000", "180238.200000", "180239.690000", "180241.180000", "180242.670000", "180244.160000", "180245.650000", "180247.140000", "180248.630000", "180250.120000", "180251.610000", "180253.100000", "180254.590000", "180256.080000", "180257.570000", "180259.060000", "180300.550000", "180302.040000", "180303.530000", "180305.020000", "180306.510000", "180308.000000", "180309.490000", "180310.980000", "180312.470000", "180313.960000", "180315.450000", "180316.940000", "180318.430000", "180319.920000", "180321.410000", "180322.900000", "180324.390000", "180325.880000", "180327.370000", "180328.860000", "180330.350000", "180331.840000", "180333.330000", "180334.820000", "180336.310000", "180337.800000", "180339.290000", "180340.780000", "180342.270000", "180343.760000", "180345.250000", "180346.740000", "180348.230000", "180349.720000", "180351.210000", "180352.700000", "180354.190000", "180355.680000", "180357.170000", "180358.660000", "180400.150000", "180401.640000", "180403.130000", "180404.620000", "180406.110000", "180407.600000", "180409.090000", "180410.580000", "180412.070000", "180413.560000", "180415.050000", "180416.540000", "180418.030000", "180419.520000", "180421.010000", "180422.500000", "180423.990000", "180425.480000", "180426.970000", "180428.460000", "180429.950000", "180431.440000", "180432.930000", "180434.420000", "180435.910000", "180437.400000", "180438.890000", "180440.380000", "180441.870000", "180443.360000", "180444.850000", "180446.340000", "180447.830000", "180449.320000", "180450.810000", "180452.300000", "180453.790000", "180455.280000", "180456.770000", "180458.260000", "180459.750000", "180501.240000", "180502.730000", "180504.220000", "180505.710000", "180507.200000", "180508.690000", "180510.180000", "180511.670000", "180513.160000", "180514.650000", "180516.140000", "180517.630000", "180519.120000", "180520.610000", "180522.100000", "180523.590000", "180525.080000", "180526.570000", "180528.060000", "180529.550000", "180531.040000", "180532.530000", "180534.020000", "180535.510000", "180537.000000", "180538.490000", "180539.980000", "180541.470000", "180542.960000", "180544.450000", "180545.940000", "180547.430000", "180548.920000", "180550.410000", "180551.900000", "180553.390000", "180554.880000", "180556.370000", "180557.860000", "180559.350000", "180600.840000", "180602.330000", "180603.820000", "180605.310000", "180606.800000", "180608.290000", "180609.780000", "180611.270000", "180612.760000", "180614.250000", "180615.740000", "180617.230000", "180618.720000", "180620.210000", "180621.700000", "180623.190000", "180624.680000", "180626.170000", "180627.660000", "180629.150000", "180630.640000", "180632.130000", "180633.620000", "180635.110000", "180636.600000", "180638.090000", "180639.580000", "180641.070000", "180642.560000", "180644.050000", "180645.540000", "180647.030000", "180648.520000", "180650.010000", "180651.500000", "180652.990000", "180654.480000", "180655.970000", "180657.460000", "180658.950000", "180700.440000", "180701.930000", "180703.420000", "180704.910000", "180706.400000", "180707.890000", "180709.380000", "180710.870000", "180712.360000", "180713.850000", "180715.340000", "180716.830000", "180718.320000", "180719.810000", "180721.300000", "180722.790000", "180724.280000", "180725.770000", "180727.260000", "180728.750000", "180730.240000", "180731.730000", "180733.220000", "180734.710000", "180736.200000", "180737.690000", "180739.180000", "180740.670000", "180742.160000", "180743.650000", "180745.140000", "180746.630000", "180748.120000", "180749.610000", "180751.100000", "180752.590000", "180754.080000", "180755.570000", "180757.060000", "180758.550000", "180800.040000", "180801.530000", "180803.020000", "180804.510000", "180806.000000", "180807.490000", "180808.980000", "180810.470000", "180811.960000", "180813.450000", "180814.940000", "180816.430000", "180817.920000", "180819.410000", "180820.900000", "180822.390000", "180823.880000", "180825.370000", "180826.860000", "180828.350000", "180829.840000", "180831.330000", "180832.820000", "180834.310000", "180835.800000", "180837.290000", "180838.780000", "180840.270000", "180841.760000", "180843.250000", "180844.740000", "180846.230000", "180847.720000", "180849.210000", "180850.700000", "180852.190000", "180853.680000", "180855.170000", "180856.660000", "180858.150000", "180859.640000", "180901.130000", "180902.620000", "180904.110000", "180905.600000", "180907.090000", "180908.580000", "180910.070000", "180911.560000", "180913.050000", "180914.540000", "180916.030000", "180917.520000", "180919.010000", "180920.500000", "180921.990000", "180923.480000", "180924.970000", "180926.460000", "180927.950000", "180929.440000", "180930.930000", "180932.420000", "180933.910000", "180935.400000", "180936.890000", "180938.380000", "180939.870000", "180941.360000", "180942.850000", "180944.340000", "180945.830000", "180947.320000", "180948.810000", "180950.300000", "180951.790000", "180953.280000", "180954.770000", "180956.260000", "180957.750000", "180959.240000", "181000.730000", "181002.220000", "181003.710000", "181005.200000", "181006.690000", "181008.180000", "181009.670000", "181011.160000", "181012.650000", "181014.140000", "181015.630000", "181017.120000", "181018.610000", "181020.100000", "181021.590000", "181023.080000", "181024.570000", "181026.060000", "181027.550000", "181029.040000", "181030.530000", "181032.020000", "181033.510000", "181035.000000", "181036.490000", "181037.980000", "181039.470000", "181040.960000", "181042.450000", "181043.940000", "181045.430000", "181046.920000", "181048.410000", "181049.900000", "181051.390000", "181052.880000", "181054.370000", "181055.860000", "181057.350000", "181058.840000", "181100.330000", "181101.820000", "181103.310000", "181104.800000", "181106.290000", "181107.780000", "181109.270000", "181110.760000", "181112.250000", "181113.740000", "181115.230000", "181116.720000", "181118.210000", "181119.700000", "181121.190000", "181122.680000", "181124.170000", "181125.660000", "181127.150000", "181128.640000", "181130.130000", "181131.620000", "181133.110000", "181134.600000", "181136.090000", "181137.580000", "181139.070000", "181140.560000", "181142.050000", "181143.540000", "181145.030000", "181146.520000", "181148.010000", "181149.500000", "181150.990000", "181152.480000", "181153.970000", "181155.460000", "181156.950000", "181158.440000", "181159.930000", "181201.420000", "181202.910000", "181204.400000", "181205.890000", "181207.380000", "181208.870000", "181210.360000", "181211.850000", "181213.340000", "181214.830000", "181216.320000", "181217.810000", "181219.300000", "181220.790000", "181222.280000", "181223.770000", "181225.260000", "181226.750000", "181228.240000"],
      "ContentTime": ["180212.899000", "180212.908000", "180212.911000", "180212.914000", "180212.917000", "180212.921000", "180212.924000", "180212.927000", "180212.930000", "180212.933000", "180212.936000", "180212.939000", "180212.950000", "180212.953000", "180212.956000", "180212.959000", "180212.962000", "180212.965000", "180212.973000", "180212.976000", "180212.979000", "180212.981000", "180232.868000", "180232.876000", "180232.879000", "180232.882000", "180232.885000", "180232.888000", "180232.890000", "180232.893000", "180232.896000", "180232.899000", "180232.902000", "180232.905000", "180232.908000", "180232.911000", "180232.917000", "180232.920000", "180232.923000", "180232.926000", "180232.929000", "180232.932000", "180252.868000", "180252.871000", "180252.874000", "180252.877000", "180252.880000", "180252.883000", "180252.886000", "180252.889000", "180252.891000", "180252.894000", "180252.897000", "180252.900000", "180252.903000", "180252.912000", "180252.915000", "180252.918000", "180252.921000", "180252.924000", "180252.927000", "180252.930000", "180312.868000", "180312.871000", "180312.874000", "180312.877000", "180312.880000", "180312.883000", "180312.886000", "180312.889000", "180312.892000", "180312.894000", "180312.897000", "180312.900000", "180312.903000", "180312.906000", "180312.909000", "180312.912000", "180312.915000", "180312.918000", "180312.921000", "180312.924000", "180312.927000", "180332.868000", "180332.871000", "180332.874000", "180332.877000", "180332.880000", "180332.883000", "180332.886000", "180332.889000", "180332.892000", "180332.895000", "180332.897000", "180332.900000", "180332.903000", "180332.906000", "180332.909000", "180332.912000", "180332.915000", "180332.918000", "180332.921000", "180332.924000", "180352.868000", "180352.871000", "180352.874000", "180352.877000", "180352.880000", "180352.883000", "180352.886000", "180352.889000", "180352.892000", "180352.895000", "180352.898000", "180352.901000", "180352.904000", "180352.906000", "180352.909000", "180352.912000", "180352.915000", "180432.868000", "180432.871000", "180432.874000", "180432.877000", "180432.880000", "180432.883000", "180432.886000", "180432.888000", "180432.900000", "180432.903000", "180432.906000", "180432.909000", "180432.912000", "180432.915000", "180432.917000", "180432.920000", "180432.923000", "180432.926000", "180432.929000", "180432.932000", "180432.935000", "180432.938000", "180432.941000", "180432.944000", "180432.947000", "180432.949000", "180432.952000", "180512.868000", "180512.871000", "180512.874000", "180512.877000", "180512.880000", "180512.883000", "180512.886000", "180512.889000", "180512.895000", "180512.898000", "180512.901000", "180512.904000", "180512.907000", "180512.910000", "180512.913000", "180512.916000", "180512.919000", "180512.921000", "180512.924000", "180512.927000", "180512.930000", "180512.933000", "180512.936000", "180512.939000", "180512.942000", "180512.945000", "180512.948000", "180552.868000", "180552.871000", "180552.874000", "180552.877000", "180552.880000", "180552.883000", "180552.886000", "180552.889000", "180552.892000", "180552.895000", "180552.898000", "180552.901000", "180552.904000", "180552.907000", "180552.909000", "180552.912000", "180552.915000", "180552.918000", "180552.921000", "180552.924000", "180552.927000", "180552.930000", "180552.933000", "180552.936000", "180552.939000", "180552.942000", "180552.959000", "180632.868000", "180632.871000", "180632.874000", "180632.877000", "180632.880000", "180632.883000", "180632.886000", "180632.889000", "180632.892000", "180632.894000", "180632.897000", "180632.900000", "180632.903000", "180632.906000", "180632.909000", "180632.912000", "180632.915000", "180632.918000", "180632.921000", "180632.924000", "180632.927000", "180632.930000", "180632.933000", "180632.935000", "180632.938000", "180632.941000", "180632.944000", "180712.868000", "180712.871000", "180712.874000", "180712.877000", "180712.880000", "180712.883000", "180712.886000", "180712.889000", "180712.892000", "180712.895000", "180712.898000", "180712.901000", "180712.904000", "180712.907000", "180712.910000", "180712.913000", "180712.916000", "180712.919000", "180712.922000", "180712.925000", "180712.928000", "180712.930000", "180712.933000", "180712.936000", "180712.939000", "180712.942000", "180752.868000", "180752.871000", "180752.874000", "180752.877000", "180752.880000", "180752.883000", "180752.886000", "180752.889000", "180752.892000", "180752.895000", "180752.898000", "180752.901000", "180752.904000", "180752.907000", "180752.910000", "180752.913000", "180752.915000", "180752.918000", "180752.921000", "180752.924000", "180752.927000", "180752.930000", "180752.933000", "180752.936000", "180752.939000", "180752.942000", "180752.945000", "180832.868000", "180832.871000", "180832.874000", "180832.877000", "180832.880000", "180832.883000", "180832.886000", "180832.889000", "180832.892000", "180832.895000", "180832.898000", "180832.901000", "180832.904000", "180832.907000", "180832.909000", "180832.912000", "180832.915000", "180832.918000", "180832.921000", "180832.924000", "180832.927000", "180832.930000", "180832.933000", "180832.936000", "180832.939000", "180832.942000", "180832.945000", "180912.868000", "180912.871000", "180912.874000", "180912.877000", "180912.880000", "180912.883000", "180912.886000", "180912.889000", "180912.892000", "180912.895000", "180912.898000", "180912.901000", "180912.903000", "180912.906000", "180912.909000", "180912.912000", "180912.915000", "180912.918000", "180912.921000", "180912.924000", "180912.927000", "180912.930000", "180912.933000", "180912.936000", "180912.939000", "180912.942000", "180912.945000", "180952.868000", "180952.871000", "180952.874000", "180952.877000", "180952.880000", "180952.883000", "180952.886000", "180952.889000", "180952.892000", "180952.895000", "180952.898000", "180952.901000", "180952.904000", "180952.907000", "180952.910000", "180952.913000", "180952.916000", "180952.918000", "180952.921000", "180952.924000", "180952.927000", "180952.930000", "180952.933000", "180952.936000", "180952.939000", "180952.942000", "180952.945000", "181032.868000", "181032.871000", "181032.874000", "181032.877000", "181032.880000", "181032.883000", "181032.886000", "181032.889000", "181032.892000", "181032.895000", "181032.898000", "181032.901000", "181032.904000", "181032.907000", "181032.910000", "181032.913000", "181032.916000", "181032.919000", "181032.921000", "181032.924000", "181032.927000", "181032.930000", "181032.933000", "181032.936000", "181032.939000", "181032.942000", "181032.945000", "181112.868000", "181112.874000", "181112.877000", "181112.880000", "181112.883000", "181112.886000", "181112.889000", "181112.892000", "181112.895000", "181112.898000", "181112.900000", "181112.903000", "181112.906000", "181112.924000", "181112.927000", "181112.929000", "181112.932000", "181112.935000", "181112.938000", "181112.941000", "181112.944000", "181112.947000", "181112.950000", "181112.953000", "181112.956000", "181112.959000", "181152.868000", "181152.871000", "181152.874000", "181152.877000", "181152.880000", "181152.883000", "181152.886000", "181152.889000", "181152.892000", "181152.895000", "181152.898000", "181152.901000", "181152.904000", "181152.906000", "181152.909000", "181152.912000", "181152.915000", "181152.918000", "181152.921000", "181152.924000", "181152.927000", "181152.930000", "181152.933000", "181152.936000", "181152.939000", "181152.942000", "181152.945000", "181230.400000", "181230.403000", "181230.406000", "181230.409000", "181230.412000", "181230.415000", "181230.418000", "181230.421000", "181230.424000", "181230.427000", "181230.430000", "181230.433000", "181230.436000", "181230.440000", "181230.443000", "181230.446000", "181230.449000", "181230.452000", "181230.455000", "181230.458000", "181230.461000", "181230.464000", "181230.467000", "181230.470000", "181230.473000", "181230.476000"],
