{
  "AcquisitionMatrixPE": 104,
  "AcquisitionNumber": 1,
  "AcquisitionTime": "18:14:56.545000",
  "BandwidthPerPixelPhaseEncode": 17.17,
  "BaseResolution": 104,
  "BodyPartExamined": "BRAIN",
  "CoilString": "HC1-7;NC1_2",
  "ConsistencyInfo": "N4_VE11C_LATEST_20160120",
  "ConversionSoftware": "dcm2niix",
  "ConversionSoftwareVersion": "v1.0.20190902",
  "DerivedVendorReportedEchoSpacing": 0.000560011,
  "DeviceSerialNumber": "167006",
  "DwellTime": 2.1e-06,
  "EchoTime": 0.037,
  "EchoTrainLength": 104,
  "EffectiveEchoSpacing": 0.000560011,
  "FlipAngle": 52,
  "ImageComments": "Unaliased_MB4_PE3_LB",
  "ImageOrientationPatientDICOM": [0.999943, -0.0104512, -0.00220724, 0.00959902, 0.969842, -0.243547],
  "ImageType": [
    "ORIGINAL",
    "PRIMARY",
    "M",
    "MB",
    "ND",
    "MOSAIC"
],
  "ImagingFrequency": 123.259,
  "InPlanePhaseEncodingDirectionDICOM": "COL",
  "InstitutionAddress": "Chemin_Queen-Mary_4565_Montreal_District_CA_H3W_1W5",
  "InstitutionName": "IUGM",
  "InstitutionalDepartmentName": "Department",
  "MRAcquisitionType": "2D",
  "MagneticFieldStrength": 3,
  "Manufacturer": "Siemens",
  "ManufacturersModelName": "Prisma_fit",
  "Modality": "MR",
  "MultibandAccelerationFactor": 4,
  "PartialFourier": 1,
  "PatientPosition": "HFS",
  "PercentPhaseFOV": 100,
  "PhaseEncodingDirection": "j",
  "PhaseEncodingSteps": 104,
  "PhaseResolution": 1,
  "PixelBandwidth": 2290,
  "ProcedureStepDescription": "video_friends",
  "ProtocolName": "func_task-friends-s04e01b",
  "PulseSequenceDetails": "%CustomerSeq%_cmrr_mbep2d_bold",
  "ReceiveCoilActiveElements": "HC1-7;NC1,2",
  "ReceiveCoilName": "HeadNeck_64",
  "ReconMatrixPE": 104,
  "RepetitionTime": 1.49,
  "SAR": 0.0287296,
  "ScanOptions": "FS",
  "ScanningSequence": "EP",
  "SequenceName": "epfid2d1_104",
  "SequenceVariant": "SK_SS",
  "SeriesDescription": "func_task-friends-s04e01b",
  "SeriesNumber": 17,
  "ShimSetting": [634, -7227, -8780, 733, 26, -27, 97, -1],
  "SliceThickness": 2,
  "SliceTiming": [0, 0.7825, 0.0975, 0.88, 0.195, 0.98, 0.2925, 1.0775, 0.39, 1.175, 0.49, 1.2725, 0.5875, 1.37, 0.685, 0, 0.7825, 0.0975, 0.88, 0.195, 0.98, 0.2925, 1.0775, 0.39, 1.175, 0.49, 1.2725, 0.5875, 1.37, 0.685, 0, 0.7825, 0.0975, 0.88, 0.195, 0.98, 0.2925, 1.0775, 0.39, 1.175, 0.49, 1.2725, 0.5875, 1.37, 0.685, 0, 0.7825, 0.0975, 0.88, 0.195, 0.98, 0.2925, 1.0775, 0.39, 1.175, 0.49, 1.2725, 0.5875, 1.37, 0.685],
  "SoftwareVersions": "syngo_MR_E11",
  "SpacingBetweenSlices": 2,
  "StationName": "MRC35049",
  "TaskName": "s04e01b",
  "TotalReadoutTime": 0.0576811,
  "TxRefAmp": 206.269,
  "WipMemBlock": "995d3ec0-8431-4de5-a363-f6c8768b237f||Sequence: R016 ve11c/master r/e634e98; Dec 19 2017 11:00:25 by eja",
  "dcmmeta_affine": [
    [-1.9998859167099, 0.01919803023338318, -0.009372085332870483, 104.76531219482422],
    [0.02090245485305786, 1.9396830797195435, -0.4870242774486542, -86.20645141601562],
    [-0.004414484836161137, 0.4870944321155548, 1.9397730827331543, -56.53425216674805],
    [0.0, 0.0, 0.0, 1.0]
],
  "dcmmeta_reorient_transform": [
    [0.0, -1.0, 0.0, 103.0],
    [1.0, 0.0, 0.0, 0.0],
    [0.0, 0.0, 1.0, 0.0],
    [0.0, 0.0, 0.0, 1.0]
],
  "dcmmeta_shape": [104, 104, 60, 468],
  "dcmmeta_slice_dim": 2,
  "dcmmeta_version": 0.6,
  "global": {
    "const": {
      "AcquisitionMatrix": [104, 0, 0, 104],
      "AngioFlag": "N",
      "BitsAllocated": 16,
      "BitsStored": 16,
      "BodyPartExamined": "BRAIN",
      "Columns": 832,
      "EchoNumbers": 1,
      "EchoTime": 37.0,
      "EchoTrainLength": 104,
      "FlipAngle": 52.0,
      "HighBit": 15,
      "ImageOrientationPatient": [0.99994294833278, -0.0104512277071, -0.0022072423899, 0.00959901468117, 0.96984154026726, -0.2435472144968],
      "ImagePositionPatient": [-841.68925821929, -812.01705275602, 172.54571678154],
      "ImageType": [
        "ORIGINAL",
        "PRIMARY",
        "M",
        "MB",
        "ND",
        "MOSAIC"
],
      "ImagedNucleus": "1H",
      "ImagingFrequency": 123.259065,
      "InPlanePhaseEncodingDirection": "COL",
      "MRAcquisitionType": "2D",
      "MagneticFieldStrength": 3.0,
      "Manufacturer": "SIEMENS",
      "ManufacturerModelName": "Prisma_fit",
      "Modality": "MR",
      "NumberOfAverages": 1.0,
      "NumberOfPhaseEncodingSteps": 104,
      "PercentPhaseFieldOfView": 100.0,
      "PercentSampling": 100.0,
      "PerformedProcedureStepStartTime": "171104.356000",
      "PhotometricInterpretation": "MONOCHROME2",
      "PixelBandwidth": 2290.0,
      "PixelRepresentation": 0,
      "PixelSpacing": [2.0, 2.0],
      "ProtocolName": "func_task-friends-s04e01b",
      "RepetitionTime": 1490.0,
      "Rows": 832,
      "SAR": 0.02872960378233,
      "SamplesPerPixel": 1,
      "ScanOptions": "FS",
      "ScanningSequence": "EP",
      "SequenceName": "epfid2d1_104",
      "SequenceVariant": [
        "SK",
        "SS"
],
      "SeriesDescription": "func_task-friends-s04e01b",
      "SeriesNumber": 17,
      "SeriesTime": "181628.108000",
      "SliceLocation": -34.330429255532,
      "SliceThickness": 2.0,
      "SmallestImagePixelValue": 0,
      "SoftwareVersions": "syngo MR E11",
      "SpacingBetweenSlices": 2.0000000154931,
      "SpecificCharacterSet": "ISO_IR 100",
      "StudyID": "1",
      "StudyTime": "171104.292000",
      "TransmitCoilName": "Body",
      "VariableFlipAngleFlag": "N",
      "WindowCenterWidthExplanation": "Algo1",
      "dBdt": 0.0},
    "slices": {}
  },
  "time": {
    "samples": {
      "AcquisitionNumber": [1, 2, 3, 4, 5, 6, 7, 8, 9, 10, 11, 12, 13, 14, 15, 16, 17, 18, 19, 20, 21, 22, 23, 24, 25, 26, 27, 28, 29, 30, 31, 32, 33, 34, 35, 36, 37, 38, 39, 40, 41, 42, 43, 44, 45, 46, 47, 48, 49, 50, 51, 52, 53, 54, 55, 56, 57, 58, 59, 60, 61, 62, 63, 64, 65, 66, 67, 68, 69, 70, 71, 72, 73, 74, 75, 76, 77, 78, 79, 80, 81, 82, 83, 84, 85, 86, 87, 88, 89, 90, 91, 92, 93, 94, 95, 96, 97, 98, 99, 100, 101, 102, 103, 104, 105, 106, 107, 108, 109, 110, 111, 112, 113, 114, 115, 116, 117, 118, 119, 120, 121, 122, 123, 124, 125, 126, 127, 128, 129, 130, 131, 132, 133, 134, 135, 136, 137, 138, 139, 140, 141, 142, 143, 144, 145, 146, 147, 148, 149, 150, 151, 152, 153, 154, 155, 156, 157, 158, 159, 160, 161, 162, 163, 164, 165, 166, 167, 168, 169, 170, 171, 172, 173, 174, 175, 176, 177, 178, 179, 180, 181, 182, 183, 184, 185, 186, 187, 188, 189, 190, 191, 192, 193, 194, 195, 196, 197, 198, 199, 200, 201, 202, 203, 204, 205, 206, 207, 208, 209, 210, 211, 212, 213, 214, 215, 216, 217, 218, 219, 220, 221, 222, 223, 224, 225, 226, 227, 228, 229, 230, 231, 232, 233, 234, 235, 236, 237, 238, 239, 240, 241, 242, 243, 244, 245, 246, 247, 248, 249, 250, 251, 252, 253, 254, 255, 256, 257, 258, 259, 260, 261, 262, 263, 264, 265, 266, 267, 268, 269, 270, 271, 272, 273, 274, 275, 276, 277, 278, 279, 280, 281, 282, 283, 284, 285, 286, 287, 288, 289, 290, 291, 292, 293, 294, 295, 296, 297, 298, 299, 300, 301, 302, 303, 304, 305, 306, 307, 308, 309, 310, 311, 312, 313, 314, 315, 316, 317, 318, 319, 320, 321, 322, 323, 324, 325, 326, 327, 328, 329, 330, 331, 332, 333, 334, 335, 336, 337, 338, 339, 340, 341, 342, 343, 344, 345, 346, 347, 348, 349, 350, 351, 352, 353, 354, 355, 356, 357, 358, 359, 360, 361, 362, 363, 364, 365, 366, 367, 368, 369, 370, 371, 372, 373, 374, 375, 376, 377, 378, 379, 380, 381, 382, 383, 384, 385, 386, 387, 388, 389, 390, 391, 392, 393, 394, 395, 396, 397, 398, 399, 400, 401, 402, 403, 404, 405, 406, 407, 408, 409, 410, 411, 412, 413, 414, 415, 416, 417, 418, 419, 420, 421, 422, 423, 424, 425, 426, 427, 428, 429, 430, 431, 432, 433, 434, 435, 436, 437, 438, 439, 440, 441, 442, 443, 444, 445, 446, 447, 448, 449, 450, 451, 452, 453, 454, 455, 456, 457, 458, 459, 460, 461, 462, 463, 464, 465, 466, 467, 468],
      "AcquisitionTime": ["181456.545000", "181458.035000", "181459.525000", "181501.015000", "181502.505000", "181503.995000", "181505.485000", "181506.975000", "181508.465000", "181509.955000", "181511.445000", "181512.935000", "181514.425000", "181515.915000", "181517.405000", "181518.895000", "181520.385000", "181521.875000", "181523.365000", "181524.855000", "181526.345000", "181527.835000", "181529.325000", "181530.815000", "181532.305000", "181533.795000", "181535.285000", "181536.775000", "181538.265000", "181539.755000", "181541.245000", "181542.735000", "181544.225000", "181545.715000", "181547.205000", "181548.695000", "181550.185000", "181551.675000", "181553.165000", "181554.655000", "181556.145000", "181557.635000", "181559.125000", "181600.615000", "181602.105000", "181603.595000", "181605.085000", "181606.575000", "181608.065000", "181609.555000", "181611.045000", "181612.535000", "181614.025000", "181615.515000", "181617.005000", "181618.495000", "181619.985000", "181621.475000", "181622.965000", "181624.455000", "181625.945000", "181627.435000", "181628.925000", "181630.415000", "181631.905000", "181633.395000", "181634.885000", "181636.375000", "181637.865000", "181639.355000", "181640.845000", "181642.335000", "181643.825000", "181645.315000", "181646.805000", "181648.295000", "181649.785000", "181651.275000", "181652.765000", "181654.255000", "181655.745000", "181657.235000", "181658.725000", "181700.215000", "181701.705000", "181703.195000", "181704.685000", "181706.175000", "181707.665000", "181709.155000", "181710.645000", "181712.135000", "181713.625000", "181715.115000", "181716.605000", "181718.095000", "181719.585000", "181721.075000", "181722.565000", "181724.055000", "181725.545000", "181727.035000", "181728.525000", "181730.015000", "181731.505000", "181732.995000", "181734.485000", "181735.975000", "181737.465000", "181738.955000", "181740.445000", "181741.935000", "181743.425000", "181744.915000", "181746.405000", "181747.895000", "181749.385000", "181750.875000", "181752.365000", "181753.855000", "181755.345000", "181756.835000", "181758.325000", "181759.815000", "181801.305000", "181802.795000", "181804.285000", "181805.775000", "181807.265000", "181808.755000", "181810.245000", "181811.735000", "181813.225000", "181814.715000", "181816.205000", "181817.695000", "181819.185000", "181820.675000", "181822.165000", "181823.655000", "181825.145000", "181826.635000", "181828.125000", "181829.615000", "181831.105000", "181832.595000", "181834.085000", "181835.575000", "181837.065000", "181838.555000", "181840.045000", "181841.535000", "181843.025000", "181844.515000", "181846.005000", "181847.495000", "181848.985000", "181850.475000", "181851.965000", "181853.455000", "181854.945000", "181856.435000", "181857.925000", "181859.415000", "181900.905000", "181902.395000", "181903.885000", "181905.375000", "181906.865000", "181908.355000", "181909.845000", "181911.335000", "181912.825000", "181914.315000", "181915.805000", "181917.295000", "181918.785000", "181920.275000", "181921.765000", "181923.255000", "181924.745000", "181926.235000", "181927.725000", "181929.215000", "181930.705000", "181932.195000", "181933.685000", "181935.175000", "181936.665000", "181938.155000", "181939.645000", "181941.135000", "181942.625000", "181944.115000", "181945.605000", "181947.095000", "181948.585000", "181950.075000", "181951.565000", "181953.055000", "181954.545000", "181956.035000", "181957.525000", "181959.015000", "182000.505000", "182001.995000", "182003.485000", "182004.975000", "182006.465000", "182007.955000", "182009.445000", "182010.935000", "182012.425000", "182013.915000", "182015.405000", "182016.895000", "182018.385000", "182019.875000", "182021.365000", "182022.855000", "182024.345000", "182025.835000", "182027.325000", "182028.815000", "182030.305000", "182031.795000", "182033.285000", "182034.775000", "182036.265000", "182037.755000", "182039.245000", "182040.735000", "182042.225000", "182043.715000", "182045.205000", "182046.695000", "182048.185000", "182049.675000", "182051.165000", "182052.655000", "182054.145000", "182055.635000", "182057.125000", "182058.615000", "182100.105000", "182101.595000", "182103.085000", "182104.575000", "182106.065000", "182107.555000", "182109.045000", "182110.535000", "182112.025000", "182113.515000", "182115.005000", "182116.495000", "182117.985000", "182119.475000", "182120.965000", "182122.455000", "182123.945000", "182125.435000", "182126.925000", "182128.415000", "182129.905000", "182131.395000", "182132.885000", "182134.375000", "182135.865000", "182137.355000", "182138.845000", "182140.335000", "182141.825000", "182143.315000", "182144.805000", "182146.295000", "182147.785000", "182149.275000", "182150.765000", "182152.255000", "182153.745000", "182155.235000", "182156.725000", "182158.215000", "182159.705000", "182201.195000", "182202.685000", "182204.175000", "182205.665000", "182207.155000", "182208.645000", "182210.135000", "182211.625000", "182213.115000", "182214.605000", "182216.095000", "182217.585000", "182219.075000", "182220.565000", "182222.055000", "182223.545000", "182225.035000", "182226.525000", "182228.015000", "182229.505000", "182230.995000", "182232.485000", "182233.975000", "182235.465000", "182236.955000", "182238.445000", "182239.935000", "182241.425000", "182242.915000", "182244.405000", "182245.895000", "182247.385000", "182248.875000", "182250.365000", "182251.855000", "182253.345000", "182254.835000", "182256.325000", "182257.815000", "182259.305000", "182300.795000", "182302.285000", "182303.775000", "182305.265000", "182306.755000", "182308.245000", "182309.735000", "182311.225000", "182312.715000", "182314.205000", "182315.695000", "182317.185000", "182318.675000", "182320.165000", "182321.655000", "182323.145000", "182324.635000", "182326.125000", "182327.615000", "182329.105000", "182330.595000", "182332.085000", "182333.575000", "182335.065000", "182336.555000", "182338.045000", "182339.535000", "182341.025000", "182342.515000", "182344.005000", "182345.495000", "182346.985000", "182348.475000", "182349.965000", "182351.455000", "182352.945000", "182354.435000", "182355.925000", "182357.415000", "182358.905000", "182400.395000", "182401.885000", "182403.375000", "182404.865000", "182406.355000", "182407.845000", "182409.335000", "182410.825000", "182412.315000", "182413.805000", "182415.295000", "182416.785000", "182418.275000", "182419.765000", "182421.255000", "182422.745000", "182424.235000", "182425.725000", "182427.215000", "182428.705000", "182430.195000", "182431.685000", "182433.175000", "182434.665000", "182436.155000", "182437.645000", "182439.135000", "182440.625000", "182442.115000", "182443.605000", "182445.095000", "182446.585000", "182448.075000", "182449.565000", "182451.055000", "182452.545000", "182454.035000", "182455.525000", "182457.015000", "182458.505000", "182459.995000", "182501.485000", "182502.975000", "182504.465000", "182505.955000", "182507.445000", "182508.935000", "182510.425000", "182511.915000", "182513.405000", "182514.895000", "182516.385000", "182517.875000", "182519.365000", "182520.855000", "182522.345000", "182523.835000", "182525.325000", "182526.815000", "182528.305000", "182529.795000", "182531.285000", "182532.775000", "182534.265000", "182535.755000", "182537.245000", "182538.735000", "182540.225000", "182541.715000", "182543.205000", "182544.695000", "182546.185000", "182547.675000", "182549.165000", "182550.655000", "182552.145000", "182553.635000", "182555.125000", "182556.615000", "182558.105000", "182559.595000", "182601.085000", "182602.575000", "182604.065000", "182605.555000", "182607.045000", "182608.535000", "182610.025000", "182611.515000", "182613.005000", "182614.495000", "182615.985000", "182617.475000", "182618.965000", "182620.455000", "182621.945000", "182623.435000", "182624.925000", "182626.415000", "182627.905000", "182629.395000", "182630.885000", "182632.375000"],
      "ContentTime": ["181628.111000", "181628.114000", "181628.117000", "181628.120000", "181628.123000", "181628.126000", "181628.129000", "181628.131000", "181628.134000", "181628.137000", "181628.140000", "181628.143000", "181628.146000", "181628.149000", "181628.152000", "181628.155000", "181628.158000", "181628.161000", "181628.164000", "181628.167000", "181628.170000", "181628.172000", "181628.175000", "181628.178000", "181628.181000", "181628.184000", "181628.187000", "181628.190000", "181628.193000", "181628.202000", "181628.205000", "181628.208000", "181628.211000", "181628.214000", "181628.216000", "181628.219000", "181628.222000", "181628.225000", "181628.228000", "181648.066000", "181648.069000", "181648.072000", "181648.075000", "181648.078000", "181648.081000", "181648.084000", "181648.087000", "181648.089000", "181648.092000", "181648.095000", "181648.098000", "181648.101000", "181648.104000", "181648.107000", "181648.110000", "181648.121000", "181648.124000", "181648.127000", "181648.130000", "181708.066000", "181708.069000", "181708.072000", "181708.075000", "181708.078000", "181708.081000", "181708.084000", "181708.087000", "181708.089000", "181708.092000", "181708.095000", "181708.098000", "181708.101000", "181708.104000", "181708.107000", "181708.110000", "181708.113000", "181708.116000", "181708.118000", "181708.121000", "181708.140000", "181728.066000", "181728.069000", "181728.072000", "181728.075000", "181728.078000", "181728.081000", "181728.084000", "181728.086000", "181728.089000", "181728.092000", "181728.095000", "181728.098000", "181728.101000", "181728.104000", "181728.107000", "181728.110000", "181728.113000", "181728.116000", "181728.119000", "181728.121000", "181808.067000", "181808.070000", "181808.073000", "181808.076000", "181808.079000", "181808.082000", "181808.085000", "181808.088000", "181808.090000", "181808.093000", "181808.096000", "181808.099000", "181808.102000", "181808.105000", "181808.108000", "181808.111000", "181808.114000", "181808.117000", "181808.120000", "181808.123000", "181808.126000", "181808.129000", "181808.131000", "181808.134000", "181808.137000", "181808.140000", "181808.143000", "181808.146000", "181848.067000", "181848.070000", "181848.073000", "181848.076000", "181848.079000", "181848.082000", "181848.085000", "181848.088000", "181848.091000", "181848.094000", "181848.097000", "181848.100000", "181848.102000", "181848.105000", "181848.108000", "181848.111000", "181848.114000", "181848.117000", "181848.120000", "181848.123000", "181848.126000", "181848.129000", "181848.132000", "181848.135000", "181848.137000", "181848.140000", "181848.143000", "181928.066000", "181928.069000", "181928.072000", "181928.075000", "181928.078000", "181928.081000", "181928.084000", "181928.087000", "181928.090000", "181928.092000", "181928.095000", "181928.098000", "181928.101000", "181928.104000", "181928.107000", "181928.110000", "181928.113000", "181928.116000", "181928.119000", "181928.122000", "181928.125000", "181928.128000", "181928.131000", "181928.134000", "181928.136000", "181928.139000", "181928.142000", "182008.067000", "182008.070000", "182008.073000", "182008.076000", "182008.079000", "182008.082000", "182008.085000", "182008.088000", "182008.091000", "182008.094000", "182008.097000", "182008.099000", "182008.102000", "182008.105000", "182008.108000", "182008.111000", "182008.114000", "182008.117000", "182008.120000", "182008.123000", "182008.126000", "182008.129000", "182008.132000", "182008.135000", "182008.138000", "182008.141000", "182048.067000", "182048.070000", "182048.073000", "182048.076000", "182048.079000", "182048.082000", "182048.085000", "182048.088000", "182048.091000", "182048.094000", "182048.097000", "182048.100000", "182048.102000", "182048.105000", "182048.108000", "182048.111000", "182048.114000", "182048.117000", "182048.120000", "182048.123000", "182048.126000", "182048.129000", "182048.132000", "182048.135000", "182048.138000", "182048.141000", "182048.144000", "182128.066000", "182128.069000", "182128.072000", "182128.075000", "182128.078000", "182128.081000", "182128.084000", "182128.087000", "182128.096000", "182128.099000", "182128.102000", "182128.105000", "182128.108000", "182128.111000", "182128.114000", "182128.117000", "182128.120000", "182128.123000", "182128.126000", "182128.129000", "182128.132000", "182128.135000", "182128.137000", "182128.140000", "182128.143000", "182128.146000", "182128.149000", "182208.066000", "182208.069000", "182208.072000", "182208.075000", "182208.078000", "182208.081000", "182208.084000", "182208.087000", "182208.090000", "182208.093000", "182208.095000", "182208.098000", "182208.101000", "182208.104000", "182208.107000", "182208.110000", "182208.113000", "182208.116000", "182208.119000", "182208.136000", "182208.139000", "182208.142000", "182208.145000", "182208.148000", "182208.151000", "182208.154000", "182208.157000", "182248.067000", "182248.070000", "182248.073000", "182248.076000", "182248.079000", "182248.082000", "182248.085000", "182248.088000", "182248.091000", "182248.094000", "182248.097000", "182248.100000", "182248.103000", "182248.106000", "182248.108000", "182248.111000", "182248.114000", "182248.117000", "182248.120000", "182248.123000", "182248.126000", "182248.129000", "182248.132000", "182248.135000", "182248.138000", "182248.141000", "182248.144000", "182328.067000", "182328.070000", "182328.073000", "182328.076000", "182328.079000", "182328.082000", "182328.085000", "182328.088000", "182328.091000", "182328.094000", "182328.097000", "182328.100000", "182328.105000", "182328.108000", "182328.111000", "182328.114000", "182328.117000", "182328.120000", "182328.123000", "182328.126000", "182328.129000", "182328.132000", "182328.135000", "182328.137000", "182328.140000", "182328.143000", "182328.146000", "182348.066000", "182348.069000", "182348.072000", "182348.075000", "182348.078000", "182348.081000", "182348.084000", "182348.087000", "182348.090000", "182348.093000", "182348.096000", "182348.099000", "182348.102000", "182428.066000", "182428.069000", "182428.072000", "182428.075000", "182428.078000", "182428.081000", "182428.084000", "182428.087000", "182428.090000", "182428.093000", "182428.096000", "182428.099000", "182428.102000", "182428.105000", "182428.107000", "182428.110000", "182428.113000", "182428.116000", "182428.119000", "182428.122000", "182428.125000", "182428.128000", "182428.131000", "182428.134000", "182428.137000", "182428.140000", "182428.143000", "182508.067000", "182508.070000", "182508.073000", "182508.076000", "182508.079000", "182508.082000", "182508.085000", "182508.088000", "182508.091000", "182508.094000", "182508.097000", "182508.100000", "182508.103000", "182508.106000", "182508.109000", "182508.111000", "182508.114000", "182508.117000", "182508.120000", "182508.123000", "182508.131000", "182508.134000", "182508.137000", "182508.140000", "182508.142000", "182508.145000", "182508.148000", "182548.067000", "182548.070000", "182548.073000", "182548.076000", "182548.079000", "182548.082000", "182548.085000", "182548.088000", "182548.091000", "182548.094000", "182548.097000", "182548.100000", "182548.103000", "182548.105000", "182548.108000", "182548.111000", "182548.114000", "182548.117000", "182548.120000", "182548.123000", "182548.126000", "182548.129000", "182548.132000", "182548.135000", "182548.138000", "182548.141000", "182548.144000", "182628.066000", "182628.069000", "182628.072000", "182628.075000", "182628.079000", "182628.082000", "182628.085000", "182628.088000", "182628.091000", "182628.094000", "182628.097000", "182628.100000", "182628.103000", "182628.106000", "182628.109000", "182628.112000", "182628.115000", "182628.118000", "182628.121000", "182628.136000", "182628.139000", "182628.141000", "182628.144000", "182628.147000", "182628.150000", "182628.153000", "182634.083000", "182634.086000", "182634.089000", "182634.092000", "182634.095000"],
