{
  "AcquisitionMatrixPE": 104,
  "AcquisitionNumber": 1,
  "AcquisitionTime": "10:37:1.745000",
  "BandwidthPerPixelPhaseEncode": 17.17,
  "BaseResolution": 104,
  "BodyPartExamined": "BRAIN",
  "CoilString": "HC1-7;NC1_2",
  "ConsistencyInfo": "N4_VE11C_LATEST_20160120",
  "ConversionSoftware": "dcm2niix",
  "ConversionSoftwareVersion": "v1.0.20190720  (JP2:OpenJPEG) GCC7.3.0",
  "DerivedVendorReportedEchoSpacing": 0.000560011,
  "DeviceSerialNumber": "167006",
  "DwellTime": 2.1e-06,
  "EchoTime": 0.037,
  "EchoTrainLength": 104,
  "EffectiveEchoSpacing": 0.000560011,
  "FlipAngle": 52,
  "ImageComments": "Unaliased_MB4_PE3_LB",
  "ImageOrientationPatientDICOM": [0.997526, 0.0573246, 0.0406876, -0.0425064, 0.952872, -0.30038],
  "ImageType": [
    "ORIGINAL",
    "PRIMARY",
    "M",
    "MB",
    "ND",
    "MOSAIC"
],
  "ImagingFrequency": 123.259,
  "InPlanePhaseEncodingDirectionDICOM": "COL",
  "InstitutionAddress": "Chemin_Queen-Mary_4565_Montreal_District_CA_H3W_1W5",
  "InstitutionName": "IUGM",
  "InstitutionalDepartmentName": "Department",
  "MRAcquisitionType": "2D",
  "MagneticFieldStrength": 3,
  "Manufacturer": "Siemens",
  "ManufacturersModelName": "Prisma_fit",
  "Modality": "MR",
  "MultibandAccelerationFactor": 4,
  "PartialFourier": 1,
  "PatientPosition": "HFS",
  "PercentPhaseFOV": 100,
  "PhaseEncodingDirection": "j",
  "PhaseEncodingSteps": 104,
  "PhaseResolution": 1,
  "PixelBandwidth": 2290,
  "ProcedureStepDescription": "video_friends",
  "ProtocolName": "func_task-s01e04b",
  "PulseSequenceDetails": "%CustomerSeq%_cmrr_mbep2d_bold",
  "ReceiveCoilActiveElements": "HC1-7;NC1,2",
  "ReceiveCoilName": "HeadNeck_64",
  "ReconMatrixPE": 104,
  "RepetitionTime": 1.49,
  "SAR": 0.0372874,
  "ScanOptions": "FS",
  "ScanningSequence": "EP",
  "SequenceName": "epfid2d1_104",
  "SequenceVariant": "SK_SS",
  "SeriesDescription": "func_task-s01e04b",
  "SeriesNumber": 14,
  "ShimSetting": [640, -7192, -8818, 741, 113, 30, 14, -5],
  "SliceThickness": 2,
  "SliceTiming": [0, 0.7825, 0.0975, 0.8825, 0.195, 0.98, 0.2925, 1.0775, 0.3925, 1.175, 0.49, 1.2725, 0.5875, 1.3725, 0.685, 0, 0.7825, 0.0975, 0.8825, 0.195, 0.98, 0.2925, 1.0775, 0.3925, 1.175, 0.49, 1.2725, 0.5875, 1.3725, 0.685, 0, 0.7825, 0.0975, 0.8825, 0.195, 0.98, 0.2925, 1.0775, 0.3925, 1.175, 0.49, 1.2725, 0.5875, 1.3725, 0.685, 0, 0.7825, 0.0975, 0.8825, 0.195, 0.98, 0.2925, 1.0775, 0.3925, 1.175, 0.49, 1.2725, 0.5875, 1.3725, 0.685],
  "SoftwareVersions": "syngo_MR_E11",
  "SpacingBetweenSlices": 2,
  "StationName": "MRC35049",
  "TaskName": "friends",
  "TotalReadoutTime": 0.0576811,
  "TxRefAmp": 247.001,
  "WipMemBlock": "4a6d2dba-54ef-4061-ae89-c23b4c597c9f||Sequence: R016 ve11c/master r/e634e98; Dec 19 2017 11:00:25 by eja",
  "dcmmeta_affine": [
    [-1.9950523376464844, -0.0850127711892128, 0.11197857558727264, 104.48595428466797],
    [-0.11464917659759521, 1.905743956565857, -0.5958151817321777, -66.89926147460938],
    [0.08137529343366623, 0.6007603406906128, 1.9059027433395386, -59.887123107910156],
    [0.0, 0.0, 0.0, 1.0]
],
  "dcmmeta_reorient_transform": [
    [0.0, -1.0, 0.0, 103.0],
    [1.0, 0.0, 0.0, 0.0],
    [0.0, 0.0, 1.0, 0.0],
    [0.0, 0.0, 0.0, 1.0]
],
  "dcmmeta_shape": [104, 104, 60, 468],
  "dcmmeta_slice_dim": 2,
  "dcmmeta_version": 0.6,
  "global": {
    "const": {
      "AcquisitionMatrix": [104, 0, 0, 104],
      "AngioFlag": "N",
      "BitsAllocated": 16,
      "BitsStored": 16,
      "BodyPartExamined": "BRAIN",
      "Columns": 832,
      "EchoNumbers": 1,
      "EchoTime": 37.0,
      "EchoTrainLength": 104,
      "FlipAngle": 52.0,
      "HighBit": 15,
      "ImageOrientationPatient": [0.99752614345702, 0.05732459015246, 0.04068764534362, -0.0425063871394, 0.95287195408884, -0.3003801693908],
      "ImagePositionPatient": [-790.98401787032, -864.81544733989, 191.0473476556],
      "ImageType": [
        "ORIGINAL",
        "PRIMARY",
        "M",
        "MB",
        "ND",
        "MOSAIC"
],
      "ImagedNucleus": "1H",
      "ImagingFrequency": 123.259167,
      "InPlanePhaseEncodingDirection": "COL",
      "MRAcquisitionType": "2D",
      "MagneticFieldStrength": 3.0,
      "Manufacturer": "SIEMENS",
      "ManufacturerModelName": "Prisma_fit",
      "Modality": "MR",
      "NumberOfAverages": 1.0,
      "NumberOfPhaseEncodingSteps": 104,
      "PercentPhaseFieldOfView": 100.0,
      "PercentSampling": 100.0,
      "PerformedProcedureStepStartTime": "092649.252000",
      "PhotometricInterpretation": "MONOCHROME2",
      "PixelBandwidth": 2290.0,
      "PixelRepresentation": 0,
      "PixelSpacing": [2.0, 2.0],
      "ProtocolName": "func_task-s01e04b",
      "RepetitionTime": 1490.0,
      "Rows": 832,
      "SAR": 0.03728743105912,
      "SamplesPerPixel": 1,
      "ScanOptions": "FS",
      "ScanningSequence": "EP",
      "SequenceName": "epfid2d1_104",
      "SequenceVariant": [
        "SK",
        "SS"
],
      "SeriesDescription": "func_task-s01e04b",
      "SeriesNumber": 14,
      "SeriesTime": "103829.904000",
      "SliceLocation": -31.289625410948,
      "SliceThickness": 2.0,
      "SmallestImagePixelValue": 0,
      "SoftwareVersions": "syngo MR E11",
      "SpacingBetweenSlices": 2.0000000069546,
      "SpecificCharacterSet": "ISO_IR 100",
      "StudyID": "1",
      "StudyTime": "092649.056000",
      "TransmitCoilName": "Body",
      "VariableFlipAngleFlag": "N",
      "WindowCenterWidthExplanation": "Algo1",
      "dBdt": 0.0},
    "slices": {}
  },
  "time": {
    "samples": {
      "AcquisitionNumber": [1, 2, 3, 4, 5, 6, 7, 8, 9, 10, 11, 12, 13, 14, 15, 16, 17, 18, 19, 20, 21, 22, 23, 24, 25, 26, 27, 28, 29, 30, 31, 32, 33, 34, 35, 36, 37, 38, 39, 40, 41, 42, 43, 44, 45, 46, 47, 48, 49, 50, 51, 52, 53, 54, 55, 56, 57, 58, 59, 60, 61, 62, 63, 64, 65, 66, 67, 68, 69, 70, 71, 72, 73, 74, 75, 76, 77, 78, 79, 80, 81, 82, 83, 84, 85, 86, 87, 88, 89, 90, 91, 92, 93, 94, 95, 96, 97, 98, 99, 100, 101, 102, 103, 104, 105, 106, 107, 108, 109, 110, 111, 112, 113, 114, 115, 116, 117, 118, 119, 120, 121, 122, 123, 124, 125, 126, 127, 128, 129, 130, 131, 132, 133, 134, 135, 136, 137, 138, 139, 140, 141, 142, 143, 144, 145, 146, 147, 148, 149, 150, 151, 152, 153, 154, 155, 156, 157, 158, 159, 160, 161, 162, 163, 164, 165, 166, 167, 168, 169, 170, 171, 172, 173, 174, 175, 176, 177, 178, 179, 180, 181, 182, 183, 184, 185, 186, 187, 188, 189, 190, 191, 192, 193, 194, 195, 196, 197, 198, 199, 200, 201, 202, 203, 204, 205, 206, 207, 208, 209, 210, 211, 212, 213, 214, 215, 216, 217, 218, 219, 220, 221, 222, 223, 224, 225, 226, 227, 228, 229, 230, 231, 232, 233, 234, 235, 236, 237, 238, 239, 240, 241, 242, 243, 244, 245, 246, 247, 248, 249, 250, 251, 252, 253, 254, 255, 256, 257, 258, 259, 260, 261, 262, 263, 264, 265, 266, 267, 268, 269, 270, 271, 272, 273, 274, 275, 276, 277, 278, 279, 280, 281, 282, 283, 284, 285, 286, 287, 288, 289, 290, 291, 292, 293, 294, 295, 296, 297, 298, 299, 300, 301, 302, 303, 304, 305, 306, 307, 308, 309, 310, 311, 312, 313, 314, 315, 316, 317, 318, 319, 320, 321, 322, 323, 324, 325, 326, 327, 328, 329, 330, 331, 332, 333, 334, 335, 336, 337, 338, 339, 340, 341, 342, 343, 344, 345, 346, 347, 348, 349, 350, 351, 352, 353, 354, 355, 356, 357, 358, 359, 360, 361, 362, 363, 364, 365, 366, 367, 368, 369, 370, 371, 372, 373, 374, 375, 376, 377, 378, 379, 380, 381, 382, 383, 384, 385, 386, 387, 388, 389, 390, 391, 392, 393, 394, 395, 396, 397, 398, 399, 400, 401, 402, 403, 404, 405, 406, 407, 408, 409, 410, 411, 412, 413, 414, 415, 416, 417, 418, 419, 420, 421, 422, 423, 424, 425, 426, 427, 428, 429, 430, 431, 432, 433, 434, 435, 436, 437, 438, 439, 440, 441, 442, 443, 444, 445, 446, 447, 448, 449, 450, 451, 452, 453, 454, 455, 456, 457, 458, 459, 460, 461, 462, 463, 464, 465, 466, 467, 468],
      "AcquisitionTime": ["103701.745000", "103703.235000", "103704.725000", "103706.215000", "103707.705000", "103709.195000", "103710.685000", "103712.175000", "103713.665000", "103715.155000", "103716.645000", "103718.135000", "103719.625000", "103721.115000", "103722.605000", "103724.095000", "103725.585000", "103727.075000", "103728.565000", "103730.055000", "103731.545000", "103733.035000", "103734.525000", "103736.015000", "103737.505000", "103738.995000", "103740.485000", "103741.975000", "103743.465000", "103744.955000", "103746.445000", "103747.935000", "103749.425000", "103750.915000", "103752.405000", "103753.895000", "103755.385000", "103756.875000", "103758.365000", "103759.855000", "103801.345000", "103802.835000", "103804.325000", "103805.815000", "103807.305000", "103808.795000", "103810.285000", "103811.775000", "103813.265000", "103814.755000", "103816.245000", "103817.735000", "103819.225000", "103820.715000", "103822.205000", "103823.695000", "103825.185000", "103826.675000", "103828.165000", "103829.655000", "103831.145000", "103832.635000", "103834.125000", "103835.615000", "103837.105000", "103838.595000", "103840.085000", "103841.575000", "103843.065000", "103844.555000", "103846.045000", "103847.535000", "103849.025000", "103850.515000", "103852.005000", "103853.495000", "103854.985000", "103856.475000", "103857.965000", "103859.455000", "103900.945000", "103902.435000", "103903.925000", "103905.415000", "103906.905000", "103908.395000", "103909.885000", "103911.375000", "103912.865000", "103914.355000", "103915.845000", "103917.335000", "103918.825000", "103920.315000", "103921.805000", "103923.295000", "103924.785000", "103926.275000", "103927.765000", "103929.255000", "103930.745000", "103932.235000", "103933.725000", "103935.215000", "103936.705000", "103938.195000", "103939.685000", "103941.175000", "103942.665000", "103944.155000", "103945.645000", "103947.135000", "103948.625000", "103950.115000", "103951.605000", "103953.095000", "103954.585000", "103956.075000", "103957.565000", "103959.055000", "104000.545000", "104002.035000", "104003.525000", "104005.015000", "104006.505000", "104007.995000", "104009.485000", "104010.975000", "104012.465000", "104013.955000", "104015.445000", "104016.935000", "104018.425000", "104019.915000", "104021.405000", "104022.895000", "104024.385000", "104025.875000", "104027.365000", "104028.855000", "104030.345000", "104031.835000", "104033.325000", "104034.815000", "104036.305000", "104037.795000", "104039.285000", "104040.775000", "104042.265000", "104043.755000", "104045.245000", "104046.735000", "104048.225000", "104049.715000", "104051.205000", "104052.695000", "104054.185000", "104055.675000", "104057.165000", "104058.655000", "104100.145000", "104101.635000", "104103.125000", "104104.615000", "104106.105000", "104107.595000", "104109.085000", "104110.575000", "104112.065000", "104113.555000", "104115.045000", "104116.535000", "104118.025000", "104119.515000", "104121.005000", "104122.495000", "104123.985000", "104125.475000", "104126.965000", "104128.455000", "104129.945000", "104131.435000", "104132.925000", "104134.415000", "104135.905000", "104137.395000", "104138.885000", "104140.375000", "104141.865000", "104143.355000", "104144.845000", "104146.335000", "104147.825000", "104149.315000", "104150.805000", "104152.295000", "104153.785000", "104155.275000", "104156.765000", "104158.255000", "104159.745000", "104201.235000", "104202.725000", "104204.215000", "104205.705000", "104207.195000", "104208.685000", "104210.175000", "104211.665000", "104213.155000", "104214.645000", "104216.135000", "104217.625000", "104219.115000", "104220.605000", "104222.095000", "104223.585000", "104225.075000", "104226.565000", "104228.055000", "104229.545000", "104231.035000", "104232.525000", "104234.015000", "104235.505000", "104236.995000", "104238.485000", "104239.975000", "104241.465000", "104242.955000", "104244.445000", "104245.935000", "104247.425000", "104248.915000", "104250.405000", "104251.895000", "104253.385000", "104254.875000", "104256.365000", "104257.855000", "104259.345000", "104300.835000", "104302.325000", "104303.815000", "104305.305000", "104306.795000", "104308.285000", "104309.775000", "104311.265000", "104312.755000", "104314.245000", "104315.735000", "104317.225000", "104318.715000", "104320.205000", "104321.695000", "104323.185000", "104324.675000", "104326.165000", "104327.655000", "104329.145000", "104330.635000", "104332.125000", "104333.615000", "104335.105000", "104336.595000", "104338.085000", "104339.575000", "104341.065000", "104342.555000", "104344.045000", "104345.535000", "104347.025000", "104348.515000", "104350.005000", "104351.495000", "104352.985000", "104354.475000", "104355.965000", "104357.455000", "104358.945000", "104400.435000", "104401.925000", "104403.415000", "104404.905000", "104406.395000", "104407.885000", "104409.375000", "104410.865000", "104412.355000", "104413.845000", "104415.335000", "104416.825000", "104418.315000", "104419.805000", "104421.295000", "104422.785000", "104424.275000", "104425.765000", "104427.255000", "104428.745000", "104430.235000", "104431.725000", "104433.215000", "104434.705000", "104436.195000", "104437.685000", "104439.175000", "104440.665000", "104442.155000", "104443.645000", "104445.135000", "104446.625000", "104448.115000", "104449.605000", "104451.095000", "104452.585000", "104454.075000", "104455.565000", "104457.055000", "104458.545000", "104500.035000", "104501.525000", "104503.015000", "104504.505000", "104505.995000", "104507.485000", "104508.975000", "104510.465000", "104511.955000", "104513.445000", "104514.935000", "104516.425000", "104517.915000", "104519.405000", "104520.895000", "104522.385000", "104523.875000", "104525.365000", "104526.855000", "104528.345000", "104529.835000", "104531.325000", "104532.815000", "104534.305000", "104535.795000", "104537.285000", "104538.775000", "104540.265000", "104541.755000", "104543.245000", "104544.735000", "104546.225000", "104547.715000", "104549.205000", "104550.695000", "104552.185000", "104553.675000", "104555.165000", "104556.655000", "104558.145000", "104559.635000", "104601.125000", "104602.615000", "104604.105000", "104605.595000", "104607.085000", "104608.575000", "104610.065000", "104611.555000", "104613.045000", "104614.535000", "104616.025000", "104617.515000", "104619.005000", "104620.495000", "104621.985000", "104623.475000", "104624.965000", "104626.455000", "104627.945000", "104629.435000", "104630.925000", "104632.415000", "104633.905000", "104635.395000", "104636.885000", "104638.375000", "104639.865000", "104641.355000", "104642.845000", "104644.335000", "104645.825000", "104647.315000", "104648.805000", "104650.295000", "104651.785000", "104653.275000", "104654.765000", "104656.255000", "104657.745000", "104659.235000", "104700.725000", "104702.215000", "104703.705000", "104705.195000", "104706.685000", "104708.175000", "104709.665000", "104711.155000", "104712.645000", "104714.135000", "104715.625000", "104717.115000", "104718.605000", "104720.095000", "104721.585000", "104723.075000", "104724.565000", "104726.055000", "104727.545000", "104729.035000", "104730.525000", "104732.015000", "104733.505000", "104734.995000", "104736.485000", "104737.975000", "104739.465000", "104740.955000", "104742.445000", "104743.935000", "104745.425000", "104746.915000", "104748.405000", "104749.895000", "104751.385000", "104752.875000", "104754.365000", "104755.855000", "104757.345000", "104758.835000", "104800.325000", "104801.815000", "104803.305000", "104804.795000", "104806.285000", "104807.775000", "104809.265000", "104810.755000", "104812.245000", "104813.735000", "104815.225000", "104816.715000", "104818.205000", "104819.695000", "104821.185000", "104822.675000", "104824.165000", "104825.655000", "104827.145000", "104828.635000", "104830.125000", "104831.615000", "104833.105000", "104834.595000", "104836.085000", "104837.575000"],
      "ContentTime": ["103829.907000", "103829.910000", "103829.913000", "103829.916000", "103829.919000", "103829.922000", "103829.925000", "103829.928000", "103829.931000", "103829.934000", "103829.936000", "103829.939000", "103829.942000", "103829.945000", "103829.955000", "103829.958000", "103829.961000", "103829.964000", "103829.967000", "103829.969000", "103829.972000", "103829.975000", "103829.978000", "103829.981000", "103829.984000", "103829.987000", "103829.990000", "103829.993000", "103829.996000", "103829.998000", "103830.002000", "103830.005000", "103830.009000", "103830.012000", "103849.866000", "103849.869000", "103849.879000", "103849.882000", "103849.885000", "103849.888000", "103849.890000", "103849.893000", "103849.896000", "103849.899000", "103849.902000", "103849.905000", "103849.908000", "103849.910000", "103849.914000", "103849.916000", "103849.919000", "103849.922000", "103849.925000", "103849.928000", "103909.866000", "103909.869000", "103909.872000", "103909.875000", "103909.877000", "103909.880000", "103909.883000", "103909.886000", "103909.889000", "103909.892000", "103909.895000", "103909.898000", "103909.901000", "103909.903000", "103909.906000", "103909.909000", "103909.912000", "103909.915000", "103909.918000", "103909.921000", "103929.866000", "103929.869000", "103929.879000", "103929.882000", "103929.885000", "103929.888000", "103929.891000", "103929.894000", "103929.896000", "103929.899000", "103929.902000", "103929.905000", "103929.908000", "103929.911000", "103929.914000", "103929.916000", "103929.919000", "103929.922000", "103929.925000", "103929.928000", "103949.867000", "103949.870000", "103949.873000", "103949.876000", "103949.879000", "103949.881000", "103949.884000", "103949.887000", "103949.890000", "103949.893000", "103949.896000", "103949.899000", "103949.902000", "103949.905000", "103949.907000", "103949.910000", "103949.913000", "103949.916000", "104029.866000", "104029.869000", "104029.878000", "104029.881000", "104029.884000", "104029.886000", "104029.890000", "104029.893000", "104029.896000", "104029.898000", "104029.901000", "104029.904000", "104029.907000", "104029.910000", "104029.913000", "104029.916000", "104029.919000", "104029.922000", "104029.925000", "104029.927000", "104029.930000", "104029.933000", "104029.936000", "104029.939000", "104029.942000", "104029.945000", "104029.948000", "104109.866000", "104109.869000", "104109.872000", "104109.875000", "104109.878000", "104109.881000", "104109.883000", "104109.897000", "104109.900000", "104109.903000", "104109.905000", "104109.908000", "104109.911000", "104109.914000", "104109.917000", "104109.920000", "104109.923000", "104109.926000", "104109.928000", "104109.931000", "104109.934000", "104109.937000", "104109.940000", "104109.943000", "104109.946000", "104109.949000", "104109.951000", "104149.866000", "104149.869000", "104149.872000", "104149.875000", "104149.878000", "104149.880000", "104149.883000", "104149.886000", "104149.889000", "104149.892000", "104149.895000", "104149.898000", "104149.901000", "104149.904000", "104149.906000", "104149.909000", "104149.912000", "104149.915000", "104149.918000", "104149.921000", "104149.924000", "104149.927000", "104149.930000", "104149.933000", "104149.937000", "104149.940000", "104229.867000", "104229.870000", "104229.873000", "104229.876000", "104229.879000", "104229.881000", "104229.884000", "104229.887000", "104229.890000", "104229.893000", "104229.896000", "104229.899000", "104229.902000", "104229.905000", "104229.907000", "104229.910000", "104229.913000", "104229.916000", "104229.919000", "104229.922000", "104229.925000", "104229.928000", "104229.931000", "104229.934000", "104229.937000", "104229.940000", "104229.943000", "104309.866000", "104309.869000", "104309.872000", "104309.875000", "104309.877000", "104309.880000", "104309.883000", "104309.886000", "104309.889000", "104309.892000", "104309.895000", "104309.898000", "104309.901000", "104309.904000", "104309.907000", "104309.909000", "104309.912000", "104309.915000", "104309.918000", "104309.921000", "104309.924000", "104309.927000", "104309.930000", "104309.933000", "104309.935000", "104309.938000", "104309.941000", "104349.866000", "104349.869000", "104349.872000", "104349.875000", "104349.878000", "104349.880000", "104349.883000", "104349.886000", "104349.889000", "104349.892000", "104349.895000", "104349.898000", "104349.901000", "104349.904000", "104349.906000", "104349.909000", "104349.912000", "104349.915000", "104349.918000", "104349.921000", "104349.924000", "104349.927000", "104349.930000", "104349.932000", "104349.935000", "104349.938000", "104349.941000", "104429.867000", "104429.870000", "104429.873000", "104429.876000", "104429.879000", "104429.882000", "104429.884000", "104429.887000", "104429.890000", "104429.893000", "104429.896000", "104429.899000", "104429.902000", "104429.905000", "104429.907000", "104429.910000", "104429.913000", "104429.916000", "104429.919000", "104429.922000", "104429.925000", "104429.928000", "104429.931000", "104429.934000", "104429.936000", "104429.939000", "104429.942000", "104509.866000", "104509.869000", "104509.872000", "104509.875000", "104509.878000", "104509.881000", "104509.884000", "104509.886000", "104509.889000", "104509.892000", "104509.895000", "104509.898000", "104509.901000", "104509.904000", "104509.907000", "104509.910000", "104509.913000", "104509.915000", "104509.918000", "104509.921000", "104509.924000", "104509.927000", "104509.930000", "104509.933000", "104509.936000", "104509.939000", "104509.942000", "104549.866000", "104549.869000", "104549.872000", "104549.875000", "104549.878000", "104549.880000", "104549.883000", "104549.886000", "104549.903000", "104549.906000", "104549.909000", "104549.912000", "104549.914000", "104549.917000", "104549.920000", "104549.923000", "104549.926000", "104549.929000", "104549.932000", "104549.935000", "104549.938000", "104549.941000", "104549.945000", "104549.948000", "104549.951000", "104549.954000", "104629.866000", "104629.869000", "104629.872000", "104629.875000", "104629.878000", "104629.881000", "104629.884000", "104629.886000", "104629.889000", "104629.892000", "104629.895000", "104629.898000", "104629.901000", "104629.904000", "104629.907000", "104629.910000", "104629.913000", "104629.915000", "104629.918000", "104629.921000", "104629.924000", "104629.927000", "104629.930000", "104629.933000", "104629.936000", "104629.939000", "104629.941000", "104709.867000", "104709.870000", "104709.873000", "104709.876000", "104709.879000", "104709.882000", "104709.885000", "104709.887000", "104709.890000", "104709.893000", "104709.896000", "104709.899000", "104709.902000", "104709.905000", "104709.908000", "104709.911000", "104709.914000", "104709.917000", "104709.919000", "104709.922000", "104709.925000", "104709.928000", "104709.931000", "104709.934000", "104709.937000", "104709.940000", "104709.942000", "104749.866000", "104749.869000", "104749.872000", "104749.875000", "104749.877000", "104749.880000", "104749.883000", "104749.886000", "104749.889000", "104749.892000", "104749.895000", "104749.898000", "104749.901000", "104749.904000", "104749.907000", "104749.910000", "104749.912000", "104749.915000", "104749.918000", "104749.921000", "104749.924000", "104749.927000", "104749.930000", "104749.933000", "104749.936000", "104749.939000", "104749.942000", "104829.866000", "104829.869000", "104829.872000", "104829.875000", "104829.878000", "104829.881000", "104829.883000", "104829.886000", "104829.889000", "104829.892000", "104829.895000", "104829.898000", "104829.908000", "104829.910000", "104829.913000", "104829.916000", "104829.919000", "104829.922000", "104829.925000", "104829.928000", "104829.931000", "104829.934000", "104829.937000", "104829.940000", "104829.943000", "104829.946000", "104829.949000", "104839.870000", "104839.873000", "104839.876000", "104839.879000", "104839.882000", "104839.885000", "104839.888000"],
