{
  "AcquisitionMatrixPE": 104,
  "AcquisitionNumber": 1,
  "AcquisitionTime": "10:24:57.922500",
  "BandwidthPerPixelPhaseEncode": 17.17,
  "BaseResolution": 104,
  "BodyPartExamined": "BRAIN",
  "CoilString": "HC1-7;NC1_2",
  "ConsistencyInfo": "N4_VE11C_LATEST_20160120",
  "ConversionSoftware": "dcm2niix",
  "ConversionSoftwareVersion": "v1.0.20190720  (JP2:OpenJPEG) GCC7.3.0",
  "DerivedVendorReportedEchoSpacing": 0.000560011,
  "DeviceSerialNumber": "167006",
  "DwellTime": 2.1e-06,
  "EchoTime": 0.037,
  "EchoTrainLength": 104,
  "EffectiveEchoSpacing": 0.000560011,
  "FlipAngle": 52,
  "ImageComments": "Unaliased_MB4_PE3_LB",
  "ImageOrientationPatientDICOM": [0.997526, 0.0573246, 0.0406876, -0.0425064, 0.952872, -0.30038],
  "ImageType": [
    "ORIGINAL",
    "PRIMARY",
    "M",
    "MB",
    "ND",
    "MOSAIC"
],
  "ImagingFrequency": 123.259,
  "InPlanePhaseEncodingDirectionDICOM": "COL",
  "InstitutionAddress": "Chemin_Queen-Mary_4565_Montreal_District_CA_H3W_1W5",
  "InstitutionName": "IUGM",
  "InstitutionalDepartmentName": "Department",
  "MRAcquisitionType": "2D",
  "MagneticFieldStrength": 3,
  "Manufacturer": "Siemens",
  "ManufacturersModelName": "Prisma_fit",
  "Modality": "MR",
  "MultibandAccelerationFactor": 4,
  "PartialFourier": 1,
  "PatientPosition": "HFS",
  "PercentPhaseFOV": 100,
  "PhaseEncodingDirection": "j",
  "PhaseEncodingSteps": 104,
  "PhaseResolution": 1,
  "PixelBandwidth": 2290,
  "ProcedureStepDescription": "video_friends",
  "ProtocolName": "func_task-s01e04a",
  "PulseSequenceDetails": "%CustomerSeq%_cmrr_mbep2d_bold",
  "ReceiveCoilActiveElements": "HC1-7;NC1,2",
  "ReceiveCoilName": "HeadNeck_64",
  "ReconMatrixPE": 104,
  "RepetitionTime": 1.49,
  "SAR": 0.0372874,
  "ScanOptions": "FS",
  "ScanningSequence": "EP",
  "SequenceName": "epfid2d1_104",
  "SequenceVariant": "SK_SS",
  "SeriesDescription": "func_task-s01e04a",
  "SeriesNumber": 12,
  "ShimSetting": [640, -7192, -8818, 741, 113, 30, 14, -5],
  "SliceThickness": 2,
  "SliceTiming": [0, 0.7825, 0.0975, 0.88, 0.195, 0.98, 0.2925, 1.0775, 0.39, 1.175, 0.49, 1.2725, 0.5875, 1.37, 0.685, 0, 0.7825, 0.0975, 0.88, 0.195, 0.98, 0.2925, 1.0775, 0.39, 1.175, 0.49, 1.2725, 0.5875, 1.37, 0.685, 0, 0.7825, 0.0975, 0.88, 0.195, 0.98, 0.2925, 1.0775, 0.39, 1.175, 0.49, 1.2725, 0.5875, 1.37, 0.685, 0, 0.7825, 0.0975, 0.88, 0.195, 0.98, 0.2925, 1.0775, 0.39, 1.175, 0.49, 1.2725, 0.5875, 1.37, 0.685],
  "SoftwareVersions": "syngo_MR_E11",
  "SpacingBetweenSlices": 2,
  "StationName": "MRC35049",
  "TaskName": "friends",
  "TotalReadoutTime": 0.0576811,
  "TxRefAmp": 247.001,
  "WipMemBlock": "d039df4f-373c-4cbd-84c3-1bc14c167ebf||Sequence: R016 ve11c/master r/e634e98; Dec 19 2017 11:00:25 by eja",
  "dcmmeta_affine": [
    [-1.9950523376464844, -0.0850127711892128, 0.11197857558727264, 104.48595428466797],
    [-0.11464917659759521, 1.905743956565857, -0.5958151817321777, -66.89926147460938],
    [0.08137529343366623, 0.6007603406906128, 1.9059027433395386, -59.887123107910156],
    [0.0, 0.0, 0.0, 1.0]
],
  "dcmmeta_reorient_transform": [
    [0.0, -1.0, 0.0, 103.0],
    [1.0, 0.0, 0.0, 0.0],
    [0.0, 0.0, 1.0, 0.0],
    [0.0, 0.0, 0.0, 1.0]
],
  "dcmmeta_shape": [104, 104, 60, 468],
  "dcmmeta_slice_dim": 2,
  "dcmmeta_version": 0.6,
  "global": {
    "const": {
      "AcquisitionMatrix": [104, 0, 0, 104],
      "AngioFlag": "N",
      "BitsAllocated": 16,
      "BitsStored": 16,
      "BodyPartExamined": "BRAIN",
      "Columns": 832,
      "EchoNumbers": 1,
      "EchoTime": 37.0,
      "EchoTrainLength": 104,
      "FlipAngle": 52.0,
      "HighBit": 15,
      "ImageOrientationPatient": [0.99752614345702, 0.05732459015246, 0.04068764534362, -0.0425063871394, 0.95287195408884, -0.3003801693908],
      "ImagePositionPatient": [-790.98401787032, -864.81544733989, 191.0473476556],
      "ImageType": [
        "ORIGINAL",
        "PRIMARY",
        "M",
        "MB",
        "ND",
        "MOSAIC"
],
      "ImagedNucleus": "1H",
      "ImagingFrequency": 123.259162,
      "InPlanePhaseEncodingDirection": "COL",
      "MRAcquisitionType": "2D",
      "MagneticFieldStrength": 3.0,
      "Manufacturer": "SIEMENS",
      "ManufacturerModelName": "Prisma_fit",
      "Modality": "MR",
      "NumberOfAverages": 1.0,
      "NumberOfPhaseEncodingSteps": 104,
      "PercentPhaseFieldOfView": 100.0,
      "PercentSampling": 100.0,
      "PerformedProcedureStepStartTime": "092649.252000",
      "PhotometricInterpretation": "MONOCHROME2",
      "PixelBandwidth": 2290.0,
      "PixelRepresentation": 0,
      "PixelSpacing": [2.0, 2.0],
      "ProtocolName": "func_task-s01e04a",
      "RepetitionTime": 1490.0,
      "Rows": 832,
      "SAR": 0.03728743105912,
      "SamplesPerPixel": 1,
      "ScanOptions": "FS",
      "ScanningSequence": "EP",
      "SequenceName": "epfid2d1_104",
      "SequenceVariant": [
        "SK",
        "SS"
],
      "SeriesDescription": "func_task-s01e04a",
      "SeriesNumber": 12,
      "SeriesTime": "102610.037000",
      "SliceLocation": -31.289625410948,
      "SliceThickness": 2.0,
      "SmallestImagePixelValue": 0,
      "SoftwareVersions": "syngo MR E11",
      "SpacingBetweenSlices": 2.0000000069546,
      "SpecificCharacterSet": "ISO_IR 100",
      "StudyID": "1",
      "StudyTime": "092649.056000",
      "TransmitCoilName": "Body",
      "VariableFlipAngleFlag": "N",
      "WindowCenterWidthExplanation": "Algo1",
      "dBdt": 0.0},
    "slices": {}
  },
  "time": {
    "samples": {
      "AcquisitionNumber": [1, 2, 3, 4, 5, 6, 7, 8, 9, 10, 11, 12, 13, 14, 15, 16, 17, 18, 19, 20, 21, 22, 23, 24, 25, 26, 27, 28, 29, 30, 31, 32, 33, 34, 35, 36, 37, 38, 39, 40, 41, 42, 43, 44, 45, 46, 47, 48, 49, 50, 51, 52, 53, 54, 55, 56, 57, 58, 59, 60, 61, 62, 63, 64, 65, 66, 67, 68, 69, 70, 71, 72, 73, 74, 75, 76, 77, 78, 79, 80, 81, 82, 83, 84, 85, 86, 87, 88, 89, 90, 91, 92, 93, 94, 95, 96, 97, 98, 99, 100, 101, 102, 103, 104, 105, 106, 107, 108, 109, 110, 111, 112, 113, 114, 115, 116, 117, 118, 119, 120, 121, 122, 123, 124, 125, 126, 127, 128, 129, 130, 131, 132, 133, 134, 135, 136, 137, 138, 139, 140, 141, 142, 143, 144, 145, 146, 147, 148, 149, 150, 151, 152, 153, 154, 155, 156, 157, 158, 159, 160, 161, 162, 163, 164, 165, 166, 167, 168, 169, 170, 171, 172, 173, 174, 175, 176, 177, 178, 179, 180, 181, 182, 183, 184, 185, 186, 187, 188, 189, 190, 191, 192, 193, 194, 195, 196, 197, 198, 199, 200, 201, 202, 203, 204, 205, 206, 207, 208, 209, 210, 211, 212, 213, 214, 215, 216, 217, 218, 219, 220, 221, 222, 223, 224, 225, 226, 227, 228, 229, 230, 231, 232, 233, 234, 235, 236, 237, 238, 239, 240, 241, 242, 243, 244, 245, 246, 247, 248, 249, 250, 251, 252, 253, 254, 255, 256, 257, 258, 259, 260, 261, 262, 263, 264, 265, 266, 267, 268, 269, 270, 271, 272, 273, 274, 275, 276, 277, 278, 279, 280, 281, 282, 283, 284, 285, 286, 287, 288, 289, 290, 291, 292, 293, 294, 295, 296, 297, 298, 299, 300, 301, 302, 303, 304, 305, 306, 307, 308, 309, 310, 311, 312, 313, 314, 315, 316, 317, 318, 319, 320, 321, 322, 323, 324, 325, 326, 327, 328, 329, 330, 331, 332, 333, 334, 335, 336, 337, 338, 339, 340, 341, 342, 343, 344, 345, 346, 347, 348, 349, 350, 351, 352, 353, 354, 355, 356, 357, 358, 359, 360, 361, 362, 363, 364, 365, 366, 367, 368, 369, 370, 371, 372, 373, 374, 375, 376, 377, 378, 379, 380, 381, 382, 383, 384, 385, 386, 387, 388, 389, 390, 391, 392, 393, 394, 395, 396, 397, 398, 399, 400, 401, 402, 403, 404, 405, 406, 407, 408, 409, 410, 411, 412, 413, 414, 415, 416, 417, 418, 419, 420, 421, 422, 423, 424, 425, 426, 427, 428, 429, 430, 431, 432, 433, 434, 435, 436, 437, 438, 439, 440, 441, 442, 443, 444, 445, 446, 447, 448, 449, 450, 451, 452, 453, 454, 455, 456, 457, 458, 459, 460, 461, 462, 463, 464, 465, 466, 467, 468],
      "AcquisitionTime": ["102457.922500", "102459.412500", "102500.902500", "102502.392500", "102503.882500", "102505.372500", "102506.862500", "102508.352500", "102509.842500", "102511.332500", "102512.822500", "102514.312500", "102515.802500", "102517.292500", "102518.782500", "102520.272500", "102521.762500", "102523.252500", "102524.742500", "102526.232500", "102527.722500", "102529.212500", "102530.702500", "102532.192500", "102533.682500", "102535.172500", "102536.662500", "102538.152500", "102539.642500", "102541.132500", "102542.622500", "102544.112500", "102545.602500", "102547.092500", "102548.582500", "102550.072500", "102551.562500", "102553.052500", "102554.542500", "102556.032500", "102557.522500", "102559.012500", "102600.502500", "102601.992500", "102603.482500", "102604.972500", "102606.462500", "102607.952500", "102609.442500", "102610.932500", "102612.422500", "102613.912500", "102615.402500", "102616.892500", "102618.382500", "102619.872500", "102621.362500", "102622.852500", "102624.342500", "102625.832500", "102627.322500", "102628.812500", "102630.302500", "102631.792500", "102633.282500", "102634.772500", "102636.262500", "102637.752500", "102639.242500", "102640.732500", "102642.222500", "102643.712500", "102645.202500", "102646.692500", "102648.182500", "102649.672500", "102651.162500", "102652.652500", "102654.142500", "102655.632500", "102657.122500", "102658.612500", "102700.102500", "102701.592500", "102703.082500", "102704.572500", "102706.062500", "102707.552500", "102709.042500", "102710.532500", "102712.022500", "102713.512500", "102715.002500", "102716.492500", "102717.982500", "102719.472500", "102720.962500", "102722.452500", "102723.942500", "102725.432500", "102726.922500", "102728.412500", "102729.902500", "102731.392500", "102732.882500", "102734.372500", "102735.862500", "102737.352500", "102738.842500", "102740.332500", "102741.822500", "102743.312500", "102744.802500", "102746.292500", "102747.782500", "102749.272500", "102750.762500", "102752.252500", "102753.742500", "102755.232500", "102756.722500", "102758.212500", "102759.702500", "102801.192500", "102802.682500", "102804.172500", "102805.662500", "102807.152500", "102808.642500", "102810.132500", "102811.622500", "102813.112500", "102814.602500", "102816.092500", "102817.582500", "102819.072500", "102820.562500", "102822.052500", "102823.542500", "102825.032500", "102826.522500", "102828.012500", "102829.502500", "102830.992500", "102832.482500", "102833.972500", "102835.462500", "102836.952500", "102838.442500", "102839.932500", "102841.422500", "102842.912500", "102844.402500", "102845.892500", "102847.382500", "102848.872500", "102850.362500", "102851.852500", "102853.342500", "102854.832500", "102856.322500", "102857.812500", "102859.302500", "102900.792500", "102902.282500", "102903.772500", "102905.262500", "102906.752500", "102908.242500", "102909.732500", "102911.222500", "102912.712500", "102914.202500", "102915.692500", "102917.182500", "102918.672500", "102920.162500", "102921.652500", "102923.142500", "102924.632500", "102926.122500", "102927.612500", "102929.102500", "102930.592500", "102932.082500", "102933.572500", "102935.062500", "102936.552500", "102938.042500", "102939.532500", "102941.022500", "102942.512500", "102944.002500", "102945.492500", "102946.982500", "102948.472500", "102949.962500", "102951.452500", "102952.942500", "102954.432500", "102955.922500", "102957.412500", "102958.902500", "103000.392500", "103001.882500", "103003.372500", "103004.862500", "103006.352500", "103007.842500", "103009.332500", "103010.822500", "103012.312500", "103013.802500", "103015.292500", "103016.782500", "103018.272500", "103019.762500", "103021.252500", "103022.742500", "103024.232500", "103025.722500", "103027.212500", "103028.702500", "103030.192500", "103031.682500", "103033.172500", "103034.662500", "103036.152500", "103037.642500", "103039.132500", "103040.622500", "103042.112500", "103043.602500", "103045.092500", "103046.582500", "103048.072500", "103049.562500", "103051.052500", "103052.542500", "103054.032500", "103055.522500", "103057.012500", "103058.502500", "103059.992500", "103101.482500", "103102.972500", "103104.462500", "103105.952500", "103107.442500", "103108.932500", "103110.422500", "103111.912500", "103113.402500", "103114.892500", "103116.382500", "103117.872500", "103119.362500", "103120.852500", "103122.342500", "103123.832500", "103125.322500", "103126.812500", "103128.302500", "103129.792500", "103131.282500", "103132.772500", "103134.262500", "103135.752500", "103137.242500", "103138.732500", "103140.222500", "103141.712500", "103143.202500", "103144.692500", "103146.182500", "103147.672500", "103149.162500", "103150.652500", "103152.142500", "103153.632500", "103155.122500", "103156.612500", "103158.102500", "103159.592500", "103201.082500", "103202.572500", "103204.062500", "103205.552500", "103207.042500", "103208.532500", "103210.022500", "103211.512500", "103213.002500", "103214.492500", "103215.982500", "103217.472500", "103218.962500", "103220.452500", "103221.942500", "103223.432500", "103224.922500", "103226.412500", "103227.902500", "103229.392500", "103230.882500", "103232.372500", "103233.862500", "103235.352500", "103236.842500", "103238.332500", "103239.822500", "103241.312500", "103242.802500", "103244.292500", "103245.782500", "103247.272500", "103248.762500", "103250.252500", "103251.742500", "103253.232500", "103254.722500", "103256.212500", "103257.702500", "103259.192500", "103300.682500", "103302.172500", "103303.662500", "103305.152500", "103306.642500", "103308.132500", "103309.622500", "103311.112500", "103312.602500", "103314.092500", "103315.582500", "103317.072500", "103318.562500", "103320.052500", "103321.542500", "103323.032500", "103324.522500", "103326.012500", "103327.502500", "103328.992500", "103330.482500", "103331.972500", "103333.462500", "103334.952500", "103336.442500", "103337.932500", "103339.422500", "103340.912500", "103342.402500", "103343.892500", "103345.382500", "103346.872500", "103348.362500", "103349.852500", "103351.342500", "103352.832500", "103354.322500", "103355.812500", "103357.302500", "103358.792500", "103400.282500", "103401.772500", "103403.262500", "103404.752500", "103406.242500", "103407.732500", "103409.222500", "103410.712500", "103412.202500", "103413.692500", "103415.182500", "103416.672500", "103418.162500", "103419.652500", "103421.142500", "103422.632500", "103424.122500", "103425.612500", "103427.102500", "103428.592500", "103430.082500", "103431.572500", "103433.062500", "103434.552500", "103436.042500", "103437.532500", "103439.022500", "103440.512500", "103442.002500", "103443.492500", "103444.982500", "103446.472500", "103447.962500", "103449.452500", "103450.942500", "103452.432500", "103453.922500", "103455.412500", "103456.902500", "103458.392500", "103459.882500", "103501.372500", "103502.862500", "103504.352500", "103505.842500", "103507.332500", "103508.822500", "103510.312500", "103511.802500", "103513.292500", "103514.782500", "103516.272500", "103517.762500", "103519.252500", "103520.742500", "103522.232500", "103523.722500", "103525.212500", "103526.702500", "103528.192500", "103529.682500", "103531.172500", "103532.662500", "103534.152500", "103535.642500", "103537.132500", "103538.622500", "103540.112500", "103541.602500", "103543.092500", "103544.582500", "103546.072500", "103547.562500", "103549.052500", "103550.542500", "103552.032500", "103553.522500", "103555.012500", "103556.502500", "103557.992500", "103559.482500", "103600.972500", "103602.462500", "103603.952500", "103605.442500", "103606.932500", "103608.422500", "103609.912500", "103611.402500", "103612.892500", "103614.382500", "103615.872500", "103617.362500", "103618.852500", "103620.342500", "103621.832500", "103623.322500", "103624.812500", "103626.302500", "103627.792500", "103629.282500", "103630.772500", "103632.262500", "103633.752500"],
      "ContentTime": ["102610.040000", "102610.043000", "102610.046000", "102610.049000", "102610.056000", "102610.058000", "102610.061000", "102610.064000", "102610.067000", "102610.070000", "102610.073000", "102610.075000", "102610.078000", "102610.081000", "102610.084000", "102610.087000", "102610.090000", "102610.093000", "102610.099000", "102610.102000", "102630.005000", "102630.008000", "102630.011000", "102630.014000", "102630.017000", "102630.020000", "102630.022000", "102630.025000", "102630.028000", "102630.031000", "102630.034000", "102630.037000", "102630.040000", "102630.043000", "102630.045000", "102630.048000", "102630.051000", "102630.054000", "102630.057000", "102630.060000", "102650.004000", "102650.007000", "102650.010000", "102650.013000", "102650.015000", "102650.018000", "102650.029000", "102650.032000", "102650.035000", "102650.038000", "102650.041000", "102650.044000", "102650.046000", "102650.049000", "102650.052000", "102650.055000", "102650.058000", "102650.061000", "102650.064000", "102650.066000", "102710.004000", "102710.007000", "102710.010000", "102710.013000", "102710.015000", "102710.060000", "102710.063000", "102710.066000", "102710.069000", "102710.071000", "102710.074000", "102710.077000", "102710.080000", "102710.083000", "102710.086000", "102710.088000", "102710.091000", "102710.094000", "102710.097000", "102710.100000", "102730.004000", "102730.007000", "102730.010000", "102730.013000", "102730.016000", "102730.019000", "102730.021000", "102730.025000", "102730.028000", "102730.031000", "102730.034000", "102730.036000", "102730.040000", "102730.043000", "102730.046000", "102730.049000", "102730.052000", "102730.055000", "102730.058000", "102730.061000", "102810.005000", "102810.008000", "102810.011000", "102810.014000", "102810.017000", "102810.019000", "102810.022000", "102810.025000", "102810.028000", "102810.031000", "102810.034000", "102810.037000", "102810.040000", "102810.043000", "102810.046000", "102810.048000", "102810.051000", "102810.054000", "102810.057000", "102810.060000", "102810.063000", "102810.066000", "102810.069000", "102810.071000", "102810.074000", "102810.077000", "102810.080000", "102810.083000", "102850.005000", "102850.008000", "102850.011000", "102850.014000", "102850.017000", "102850.019000", "102850.022000", "102850.025000", "102850.028000", "102850.031000", "102850.034000", "102850.037000", "102850.040000", "102850.043000", "102850.046000", "102850.049000", "102850.051000", "102850.054000", "102850.057000", "102850.060000", "102850.063000", "102850.066000", "102850.069000", "102850.072000", "102850.074000", "102850.077000", "102850.080000", "102930.004000", "102930.013000", "102930.016000", "102930.019000", "102930.021000", "102930.024000", "102930.027000", "102930.030000", "102930.033000", "102930.036000", "102930.039000", "102930.042000", "102930.045000", "102930.048000", "102930.051000", "102930.053000", "102930.056000", "102930.059000", "102930.062000", "102930.065000", "102930.068000", "102930.071000", "102930.074000", "102930.077000", "102930.079000", "102930.082000", "102930.085000", "103010.004000", "103010.007000", "103010.010000", "103010.013000", "103010.016000", "103010.019000", "103010.022000", "103010.028000", "103010.031000", "103010.034000", "103010.037000", "103010.040000", "103010.042000", "103010.045000", "103010.048000", "103010.051000", "103010.054000", "103010.057000", "103010.060000", "103010.063000", "103010.066000", "103010.068000", "103010.071000", "103010.074000", "103010.077000", "103010.080000", "103010.083000", "103050.005000", "103050.008000", "103050.011000", "103050.014000", "103050.017000", "103050.020000", "103050.023000", "103050.025000", "103050.028000", "103050.031000", "103050.034000", "103050.037000", "103050.040000", "103050.043000", "103050.046000", "103050.049000", "103050.052000", "103050.055000", "103050.058000", "103050.060000", "103050.063000", "103050.066000", "103050.069000", "103050.072000", "103050.075000", "103050.078000", "103050.081000", "103130.004000", "103130.007000", "103130.010000", "103130.013000", "103130.016000", "103130.023000", "103130.026000", "103130.029000", "103130.032000", "103130.035000", "103130.038000", "103130.041000", "103130.044000", "103130.046000", "103130.049000", "103130.052000", "103130.055000", "103130.058000", "103130.067000", "103130.070000", "103130.073000", "103130.076000", "103130.079000", "103130.082000", "103130.085000", "103130.088000", "103130.091000", "103210.004000", "103210.007000", "103210.010000", "103210.013000", "103210.016000", "103210.019000", "103210.022000", "103210.024000", "103210.028000", "103210.031000", "103210.034000", "103210.036000", "103210.039000", "103210.042000", "103210.045000", "103210.048000", "103210.051000", "103210.054000", "103210.057000", "103210.060000", "103210.063000", "103210.066000", "103210.068000", "103210.071000", "103210.075000", "103210.078000", "103250.005000", "103250.008000", "103250.011000", "103250.014000", "103250.017000", "103250.020000", "103250.022000", "103250.025000", "103250.028000", "103250.031000", "103250.034000", "103250.037000", "103250.040000", "103250.043000", "103250.046000", "103250.048000", "103250.051000", "103250.054000", "103250.057000", "103250.060000", "103250.063000", "103250.066000", "103250.069000", "103250.072000", "103250.075000", "103250.078000", "103250.080000", "103330.004000", "103330.007000", "103330.010000", "103330.013000", "103330.016000", "103330.019000", "103330.033000", "103330.036000", "103330.039000", "103330.042000", "103330.045000", "103330.048000", "103330.051000", "103330.054000", "103330.057000", "103330.060000", "103330.063000", "103330.066000", "103330.069000", "103330.072000", "103330.075000", "103330.078000", "103330.080000", "103330.083000", "103330.093000", "103330.096000", "103330.099000", "103410.004000", "103410.007000", "103410.010000", "103410.013000", "103410.016000", "103410.019000", "103410.022000", "103410.025000", "103410.027000", "103410.030000", "103410.033000", "103410.036000", "103410.039000", "103410.042000", "103410.045000", "103410.048000", "103410.051000", "103410.054000", "103410.057000", "103410.060000", "103410.063000", "103410.065000", "103410.068000", "103410.071000", "103410.074000", "103410.077000", "103410.080000", "103450.004000", "103450.007000", "103450.010000", "103450.013000", "103450.016000", "103450.019000", "103450.022000", "103450.025000", "103450.028000", "103450.031000", "103450.033000", "103450.036000", "103450.039000", "103450.042000", "103450.045000", "103450.048000", "103450.051000", "103450.054000", "103450.057000", "103450.060000", "103450.063000", "103450.066000", "103450.069000", "103450.071000", "103450.074000", "103450.077000", "103450.080000", "103530.005000", "103530.008000", "103530.011000", "103530.014000", "103530.017000", "103530.020000", "103530.023000", "103530.026000", "103530.029000", "103530.031000", "103530.034000", "103530.037000", "103530.040000", "103530.043000", "103530.046000", "103530.049000", "103530.052000", "103530.055000", "103530.058000", "103530.060000", "103530.063000", "103530.066000", "103530.069000", "103530.072000", "103530.075000", "103530.078000", "103530.081000", "103610.004000", "103610.008000", "103610.011000", "103610.014000", "103610.017000", "103610.028000", "103610.031000", "103610.034000", "103610.037000", "103610.040000", "103610.043000", "103610.046000", "103610.049000", "103610.052000", "103610.055000", "103610.058000", "103610.061000", "103610.063000", "103610.066000", "103610.070000", "103610.073000", "103610.076000", "103610.079000", "103610.082000", "103610.085000", "103610.087000", "103635.481000", "103635.484000", "103635.487000", "103635.490000", "103635.493000", "103635.496000", "103635.499000", "103635.502000", "103635.505000", "103635.509000", "103635.512000", "103635.514000", "103635.517000", "103635.520000", "103635.524000", "103635.527000", "103635.529000", "103635.532000"],
