{
  "AcquisitionMatrixPE": 104,
  "AcquisitionNumber": 1,
  "AcquisitionTime": "10:11:58.725000",
  "BandwidthPerPixelPhaseEncode": 17.17,
  "BaseResolution": 104,
  "BodyPartExamined": "BRAIN",
  "CoilString": "HC1-7;NC1_2",
  "ConsistencyInfo": "N4_VE11C_LATEST_20160120",
  "ConversionSoftware": "dcm2niix",
  "ConversionSoftwareVersion": "v1.0.20190720  (JP2:OpenJPEG) GCC7.3.0",
  "DerivedVendorReportedEchoSpacing": 0.000560011,
  "DeviceSerialNumber": "167006",
  "DwellTime": 2.1e-06,
  "EchoTime": 0.037,
  "EchoTrainLength": 104,
  "EffectiveEchoSpacing": 0.000560011,
  "FlipAngle": 52,
  "ImageComments": "Unaliased_MB4_PE3_LB",
  "ImageOrientationPatientDICOM": [0.997526, 0.0573246, 0.0406876, -0.0425064, 0.952872, -0.30038],
  "ImageType": [
    "ORIGINAL",
    "PRIMARY",
    "M",
    "MB",
    "ND",
    "MOSAIC"
],
  "ImagingFrequency": 123.259,
  "InPlanePhaseEncodingDirectionDICOM": "COL",
  "InstitutionAddress": "Chemin_Queen-Mary_4565_Montreal_District_CA_H3W_1W5",
  "InstitutionName": "IUGM",
  "InstitutionalDepartmentName": "Department",
  "MRAcquisitionType": "2D",
  "MagneticFieldStrength": 3,
  "Manufacturer": "Siemens",
  "ManufacturersModelName": "Prisma_fit",
  "Modality": "MR",
  "MultibandAccelerationFactor": 4,
  "PartialFourier": 1,
  "PatientPosition": "HFS",
  "PercentPhaseFOV": 100,
  "PhaseEncodingDirection": "j",
  "PhaseEncodingSteps": 104,
  "PhaseResolution": 1,
  "PixelBandwidth": 2290,
  "ProcedureStepDescription": "video_friends",
  "ProtocolName": "func_task-s01e03b",
  "PulseSequenceDetails": "%CustomerSeq%_cmrr_mbep2d_bold",
  "ReceiveCoilActiveElements": "HC1-7;NC1,2",
  "ReceiveCoilName": "HeadNeck_64",
  "ReconMatrixPE": 104,
  "RepetitionTime": 1.49,
  "SAR": 0.0372984,
  "ScanOptions": "FS",
  "ScanningSequence": "EP",
  "SequenceName": "epfid2d1_104",
  "SequenceVariant": "SK_SS",
  "SeriesDescription": "func_task-s01e03b",
  "SeriesNumber": 10,
  "ShimSetting": [640, -7192, -8818, 741, 113, 30, 14, -5],
  "SliceThickness": 2,
  "SliceTiming": [0, 0.785, 0.1, 0.8825, 0.1975, 0.98, 0.295, 1.0775, 0.3925, 1.1775, 0.49, 1.275, 0.5875, 1.3725, 0.6875, 0, 0.785, 0.1, 0.8825, 0.1975, 0.98, 0.295, 1.0775, 0.3925, 1.1775, 0.49, 1.275, 0.5875, 1.3725, 0.6875, 0, 0.785, 0.1, 0.8825, 0.1975, 0.98, 0.295, 1.0775, 0.3925, 1.1775, 0.49, 1.275, 0.5875, 1.3725, 0.6875, 0, 0.785, 0.1, 0.8825, 0.1975, 0.98, 0.295, 1.0775, 0.3925, 1.1775, 0.49, 1.275, 0.5875, 1.3725, 0.6875],
  "SoftwareVersions": "syngo_MR_E11",
  "SpacingBetweenSlices": 2,
  "StationName": "MRC35049",
  "TaskName": "friends",
  "TotalReadoutTime": 0.0576811,
  "TxRefAmp": 247.001,
  "WipMemBlock": "d8ffa88f-6e26-4f20-aea8-b99c5c8e0456||Sequence: R016 ve11c/master r/e634e98; Dec 19 2017 11:00:25 by eja",
  "dcmmeta_affine": [
    [-1.9950523376464844, -0.0850127711892128, 0.11197857558727264, 104.48595428466797],
    [-0.11464917659759521, 1.905743956565857, -0.5958151817321777, -66.89926147460938],
    [0.08137529343366623, 0.6007603406906128, 1.9059027433395386, -59.887123107910156],
    [0.0, 0.0, 0.0, 1.0]
],
  "dcmmeta_reorient_transform": [
    [0.0, -1.0, 0.0, 103.0],
    [1.0, 0.0, 0.0, 0.0],
    [0.0, 0.0, 1.0, 0.0],
    [0.0, 0.0, 0.0, 1.0]
],
  "dcmmeta_shape": [104, 104, 60, 503],
  "dcmmeta_slice_dim": 2,
  "dcmmeta_version": 0.6,
  "global": {
    "const": {
      "AcquisitionMatrix": [104, 0, 0, 104],
      "AngioFlag": "N",
      "BitsAllocated": 16,
      "BitsStored": 16,
      "BodyPartExamined": "BRAIN",
      "Columns": 832,
      "EchoNumbers": 1,
      "EchoTime": 37.0,
      "EchoTrainLength": 104,
      "FlipAngle": 52.0,
      "HighBit": 15,
      "ImageOrientationPatient": [0.99752614345702, 0.05732459015246, 0.04068764534362, -0.0425063871394, 0.95287195408884, -0.3003801693908],
      "ImagePositionPatient": [-790.98401787032, -864.81544733989, 191.0473476556],
      "ImageType": [
        "ORIGINAL",
        "PRIMARY",
        "M",
        "MB",
        "ND",
        "MOSAIC"
],
      "ImagedNucleus": "1H",
      "ImagingFrequency": 123.259155,
      "InPlanePhaseEncodingDirection": "COL",
      "MRAcquisitionType": "2D",
      "MagneticFieldStrength": 3.0,
      "Manufacturer": "SIEMENS",
      "ManufacturerModelName": "Prisma_fit",
      "Modality": "MR",
      "NumberOfAverages": 1.0,
      "NumberOfPhaseEncodingSteps": 104,
      "PercentPhaseFieldOfView": 100.0,
      "PercentSampling": 100.0,
      "PerformedProcedureStepStartTime": "092649.252000",
      "PhotometricInterpretation": "MONOCHROME2",
      "PixelBandwidth": 2290.0,
      "PixelRepresentation": 0,
      "PixelSpacing": [2.0, 2.0],
      "ProtocolName": "func_task-s01e03b",
      "RepetitionTime": 1490.0,
      "Rows": 832,
      "SAR": 0.03729839608856,
      "SamplesPerPixel": 1,
      "ScanOptions": "FS",
      "ScanningSequence": "EP",
      "SequenceName": "epfid2d1_104",
      "SequenceVariant": [
        "SK",
        "SS"
],
      "SeriesDescription": "func_task-s01e03b",
      "SeriesNumber": 10,
      "SeriesTime": "101329.965000",
      "SliceLocation": -31.289625410948,
      "SliceThickness": 2.0,
      "SmallestImagePixelValue": 0,
      "SoftwareVersions": "syngo MR E11",
      "SpacingBetweenSlices": 2.0000000069546,
      "SpecificCharacterSet": "ISO_IR 100",
      "StudyID": "1",
      "StudyTime": "092649.056000",
      "TransmitCoilName": "Body",
      "VariableFlipAngleFlag": "N",
      "WindowCenterWidthExplanation": "Algo1",
      "dBdt": 0.0},
    "slices": {}
  },
  "time": {
    "samples": {
      "AcquisitionNumber": [1, 2, 3, 4, 5, 6, 7, 8, 9, 10, 11, 12, 13, 14, 15, 16, 17, 18, 19, 20, 21, 22, 23, 24, 25, 26, 27, 28, 29, 30, 31, 32, 33, 34, 35, 36, 37, 38, 39, 40, 41, 42, 43, 44, 45, 46, 47, 48, 49, 50, 51, 52, 53, 54, 55, 56, 57, 58, 59, 60, 61, 62, 63, 64, 65, 66, 67, 68, 69, 70, 71, 72, 73, 74, 75, 76, 77, 78, 79, 80, 81, 82, 83, 84, 85, 86, 87, 88, 89, 90, 91, 92, 93, 94, 95, 96, 97, 98, 99, 100, 101, 102, 103, 104, 105, 106, 107, 108, 109, 110, 111, 112, 113, 114, 115, 116, 117, 118, 119, 120, 121, 122, 123, 124, 125, 126, 127, 128, 129, 130, 131, 132, 133, 134, 135, 136, 137, 138, 139, 140, 141, 142, 143, 144, 145, 146, 147, 148, 149, 150, 151, 152, 153, 154, 155, 156, 157, 158, 159, 160, 161, 162, 163, 164, 165, 166, 167, 168, 169, 170, 171, 172, 173, 174, 175, 176, 177, 178, 179, 180, 181, 182, 183, 184, 185, 186, 187, 188, 189, 190, 191, 192, 193, 194, 195, 196, 197, 198, 199, 200, 201, 202, 203, 204, 205, 206, 207, 208, 209, 210, 211, 212, 213, 214, 215, 216, 217, 218, 219, 220, 221, 222, 223, 224, 225, 226, 227, 228, 229, 230, 231, 232, 233, 234, 235, 236, 237, 238, 239, 240, 241, 242, 243, 244, 245, 246, 247, 248, 249, 250, 251, 252, 253, 254, 255, 256, 257, 258, 259, 260, 261, 262, 263, 264, 265, 266, 267, 268, 269, 270, 271, 272, 273, 274, 275, 276, 277, 278, 279, 280, 281, 282, 283, 284, 285, 286, 287, 288, 289, 290, 291, 292, 293, 294, 295, 296, 297, 298, 299, 300, 301, 302, 303, 304, 305, 306, 307, 308, 309, 310, 311, 312, 313, 314, 315, 316, 317, 318, 319, 320, 321, 322, 323, 324, 325, 326, 327, 328, 329, 330, 331, 332, 333, 334, 335, 336, 337, 338, 339, 340, 341, 342, 343, 344, 345, 346, 347, 348, 349, 350, 351, 352, 353, 354, 355, 356, 357, 358, 359, 360, 361, 362, 363, 364, 365, 366, 367, 368, 369, 370, 371, 372, 373, 374, 375, 376, 377, 378, 379, 380, 381, 382, 383, 384, 385, 386, 387, 388, 389, 390, 391, 392, 393, 394, 395, 396, 397, 398, 399, 400, 401, 402, 403, 404, 405, 406, 407, 408, 409, 410, 411, 412, 413, 414, 415, 416, 417, 418, 419, 420, 421, 422, 423, 424, 425, 426, 427, 428, 429, 430, 431, 432, 433, 434, 435, 436, 437, 438, 439, 440, 441, 442, 443, 444, 445, 446, 447, 448, 449, 450, 451, 452, 453, 454, 455, 456, 457, 458, 459, 460, 461, 462, 463, 464, 465, 466, 467, 468, 469, 470, 471, 472, 473, 474, 475, 476, 477, 478, 479, 480, 481, 482, 483, 484, 485, 486, 487, 488, 489, 490, 491, 492, 493, 494, 495, 496, 497, 498, 499, 500, 501, 502, 503],
      "AcquisitionTime": ["101158.725000", "101200.215000", "101201.705000", "101203.195000", "101204.685000", "101206.175000", "101207.665000", "101209.155000", "101210.645000", "101212.135000", "101213.625000", "101215.115000", "101216.605000", "101218.095000", "101219.585000", "101221.075000", "101222.565000", "101224.055000", "101225.545000", "101227.035000", "101228.525000", "101230.015000", "101231.505000", "101232.995000", "101234.485000", "101235.975000", "101237.465000", "101238.955000", "101240.445000", "101241.935000", "101243.425000", "101244.915000", "101246.405000", "101247.895000", "101249.385000", "101250.875000", "101252.365000", "101253.855000", "101255.345000", "101256.835000", "101258.325000", "101259.815000", "101301.305000", "101302.795000", "101304.285000", "101305.775000", "101307.265000", "101308.755000", "101310.245000", "101311.735000", "101313.225000", "101314.715000", "101316.205000", "101317.695000", "101319.185000", "101320.675000", "101322.165000", "101323.655000", "101325.145000", "101326.635000", "101328.125000", "101329.615000", "101331.105000", "101332.595000", "101334.085000", "101335.575000", "101337.065000", "101338.555000", "101340.045000", "101341.535000", "101343.025000", "101344.515000", "101346.005000", "101347.495000", "101348.985000", "101350.475000", "101351.965000", "101353.455000", "101354.945000", "101356.435000", "101357.925000", "101359.415000", "101400.905000", "101402.395000", "101403.885000", "101405.375000", "101406.865000", "101408.355000", "101409.845000", "101411.335000", "101412.825000", "101414.315000", "101415.805000", "101417.295000", "101418.785000", "101420.275000", "101421.765000", "101423.255000", "101424.745000", "101426.235000", "101427.725000", "101429.215000", "101430.705000", "101432.195000", "101433.685000", "101435.175000", "101436.665000", "101438.155000", "101439.645000", "101441.135000", "101442.625000", "101444.115000", "101445.605000", "101447.095000", "101448.585000", "101450.075000", "101451.565000", "101453.055000", "101454.545000", "101456.035000", "101457.525000", "101459.015000", "101500.505000", "101501.995000", "101503.485000", "101504.975000", "101506.465000", "101507.955000", "101509.445000", "101510.935000", "101512.425000", "101513.915000", "101515.405000", "101516.895000", "101518.385000", "101519.875000", "101521.365000", "101522.855000", "101524.345000", "101525.835000", "101527.325000", "101528.815000", "101530.305000", "101531.795000", "101533.285000", "101534.775000", "101536.265000", "101537.755000", "101539.245000", "101540.735000", "101542.225000", "101543.715000", "101545.205000", "101546.695000", "101548.185000", "101549.675000", "101551.165000", "101552.655000", "101554.145000", "101555.635000", "101557.125000", "101558.615000", "101600.105000", "101601.595000", "101603.085000", "101604.575000", "101606.065000", "101607.555000", "101609.045000", "101610.535000", "101612.025000", "101613.515000", "101615.005000", "101616.495000", "101617.985000", "101619.475000", "101620.965000", "101622.455000", "101623.945000", "101625.435000", "101626.925000", "101628.415000", "101629.905000", "101631.395000", "101632.885000", "101634.375000", "101635.865000", "101637.355000", "101638.845000", "101640.335000", "101641.825000", "101643.315000", "101644.805000", "101646.295000", "101647.785000", "101649.275000", "101650.765000", "101652.255000", "101653.745000", "101655.235000", "101656.725000", "101658.215000", "101659.705000", "101701.195000", "101702.685000", "101704.175000", "101705.665000", "101707.155000", "101708.645000", "101710.135000", "101711.625000", "101713.115000", "101714.605000", "101716.095000", "101717.585000", "101719.075000", "101720.565000", "101722.055000", "101723.545000", "101725.035000", "101726.525000", "101728.015000", "101729.505000", "101730.995000", "101732.485000", "101733.975000", "101735.465000", "101736.955000", "101738.445000", "101739.935000", "101741.425000", "101742.915000", "101744.405000", "101745.895000", "101747.385000", "101748.875000", "101750.365000", "101751.855000", "101753.345000", "101754.835000", "101756.325000", "101757.815000", "101759.305000", "101800.795000", "101802.285000", "101803.775000", "101805.265000", "101806.755000", "101808.245000", "101809.735000", "101811.225000", "101812.715000", "101814.205000", "101815.695000", "101817.185000", "101818.675000", "101820.165000", "101821.655000", "101823.145000", "101824.635000", "101826.125000", "101827.615000", "101829.105000", "101830.595000", "101832.085000", "101833.575000", "101835.065000", "101836.555000", "101838.045000", "101839.535000", "101841.025000", "101842.515000", "101844.005000", "101845.495000", "101846.985000", "101848.475000", "101849.965000", "101851.455000", "101852.945000", "101854.435000", "101855.925000", "101857.415000", "101858.905000", "101900.395000", "101901.885000", "101903.375000", "101904.865000", "101906.355000", "101907.845000", "101909.335000", "101910.825000", "101912.315000", "101913.805000", "101915.295000", "101916.785000", "101918.275000", "101919.765000", "101921.255000", "101922.745000", "101924.235000", "101925.725000", "101927.215000", "101928.705000", "101930.195000", "101931.685000", "101933.175000", "101934.665000", "101936.155000", "101937.645000", "101939.135000", "101940.625000", "101942.115000", "101943.605000", "101945.095000", "101946.585000", "101948.075000", "101949.565000", "101951.055000", "101952.545000", "101954.035000", "101955.525000", "101957.015000", "101958.505000", "101959.995000", "102001.485000", "102002.975000", "102004.465000", "102005.955000", "102007.445000", "102008.935000", "102010.425000", "102011.915000", "102013.405000", "102014.895000", "102016.385000", "102017.875000", "102019.365000", "102020.855000", "102022.345000", "102023.835000", "102025.325000", "102026.815000", "102028.305000", "102029.795000", "102031.285000", "102032.775000", "102034.265000", "102035.755000", "102037.245000", "102038.735000", "102040.225000", "102041.715000", "102043.205000", "102044.695000", "102046.185000", "102047.675000", "102049.165000", "102050.655000", "102052.145000", "102053.635000", "102055.125000", "102056.615000", "102058.105000", "102059.595000", "102101.085000", "102102.575000", "102104.065000", "102105.555000", "102107.045000", "102108.535000", "102110.025000", "102111.515000", "102113.005000", "102114.495000", "102115.985000", "102117.475000", "102118.965000", "102120.455000", "102121.945000", "102123.435000", "102124.925000", "102126.415000", "102127.905000", "102129.395000", "102130.885000", "102132.375000", "102133.865000", "102135.355000", "102136.845000", "102138.335000", "102139.825000", "102141.315000", "102142.805000", "102144.295000", "102145.785000", "102147.275000", "102148.765000", "102150.255000", "102151.745000", "102153.235000", "102154.725000", "102156.215000", "102157.705000", "102159.195000", "102200.685000", "102202.175000", "102203.665000", "102205.155000", "102206.645000", "102208.135000", "102209.625000", "102211.115000", "102212.605000", "102214.095000", "102215.585000", "102217.075000", "102218.565000", "102220.055000", "102221.545000", "102223.035000", "102224.525000", "102226.015000", "102227.505000", "102228.995000", "102230.485000", "102231.975000", "102233.465000", "102234.955000", "102236.445000", "102237.935000", "102239.425000", "102240.915000", "102242.405000", "102243.895000", "102245.385000", "102246.875000", "102248.365000", "102249.855000", "102251.345000", "102252.835000", "102254.325000", "102255.815000", "102257.305000", "102258.795000", "102300.285000", "102301.775000", "102303.265000", "102304.755000", "102306.245000", "102307.735000", "102309.225000", "102310.715000", "102312.205000", "102313.695000", "102315.185000", "102316.675000", "102318.165000", "102319.655000", "102321.145000", "102322.635000", "102324.125000", "102325.615000", "102327.105000", "102328.595000", "102330.085000", "102331.575000", "102333.065000", "102334.555000", "102336.045000", "102337.535000", "102339.025000", "102340.515000", "102342.005000", "102343.495000", "102344.985000", "102346.475000", "102347.965000", "102349.455000", "102350.945000", "102352.435000", "102353.925000", "102355.415000", "102356.905000", "102358.395000", "102359.885000", "102401.375000", "102402.865000", "102404.355000", "102405.845000", "102407.335000", "102408.825000", "102410.315000", "102411.805000", "102413.295000", "102414.785000", "102416.275000", "102417.765000", "102419.255000", "102420.745000", "102422.235000", "102423.725000", "102425.215000", "102426.705000"],
      "ContentTime": ["101329.967000", "101329.970000", "101329.973000", "101329.976000", "101329.979000", "101329.982000", "101329.985000", "101329.988000", "101329.991000", "101329.994000", "101329.996000", "101330.000000", "101330.018000", "101330.021000", "101330.024000", "101330.027000", "101330.030000", "101330.033000", "101330.036000", "101330.038000", "101330.041000", "101330.044000", "101330.047000", "101330.050000", "101330.053000", "101330.056000", "101330.059000", "101330.062000", "101330.064000", "101330.067000", "101330.070000", "101330.073000", "101330.076000", "101330.079000", "101330.082000", "101330.085000", "101330.088000", "101330.090000", "101330.093000", "101349.934000", "101349.937000", "101349.940000", "101349.942000", "101349.945000", "101349.948000", "101349.951000", "101349.954000", "101349.957000", "101349.960000", "101349.962000", "101349.965000", "101349.968000", "101349.971000", "101349.974000", "101349.977000", "101349.980000", "101349.983000", "101349.986000", "101349.989000", "101409.934000", "101409.937000", "101409.940000", "101409.943000", "101409.945000", "101409.948000", "101409.951000", "101409.954000", "101409.957000", "101409.960000", "101409.963000", "101409.966000", "101409.969000", "101409.972000", "101409.974000", "101409.977000", "101409.980000", "101409.983000", "101409.986000", "101409.992000", "101429.935000", "101429.938000", "101429.941000", "101429.944000", "101429.947000", "101429.952000", "101429.955000", "101429.958000", "101429.961000", "101429.964000", "101429.967000", "101429.970000", "101429.973000", "101429.976000", "101429.978000", "101429.981000", "101429.984000", "101429.987000", "101429.990000", "101429.993000", "101509.934000", "101509.937000", "101509.940000", "101509.943000", "101509.946000", "101509.948000", "101509.951000", "101509.954000", "101509.957000", "101509.960000", "101509.963000", "101509.966000", "101509.969000", "101509.971000", "101509.974000", "101509.977000", "101509.980000", "101509.983000", "101509.986000", "101509.989000", "101509.992000", "101509.995000", "101509.998000", "101510.002000", "101510.004000", "101510.007000", "101510.010000", "101510.013000", "101549.934000", "101549.937000", "101549.940000", "101549.943000", "101549.946000", "101549.948000", "101549.951000", "101549.954000", "101549.957000", "101549.960000", "101549.963000", "101549.966000", "101549.969000", "101549.972000", "101549.974000", "101549.977000", "101549.980000", "101549.983000", "101549.986000", "101549.989000", "101549.992000", "101549.995000", "101549.998000", "101550.002000", "101550.004000", "101550.007000", "101550.010000", "101629.934000", "101629.937000", "101629.940000", "101629.953000", "101629.956000", "101629.959000", "101629.962000", "101629.965000", "101629.968000", "101629.971000", "101629.974000", "101629.977000", "101629.980000", "101629.982000", "101629.985000", "101629.988000", "101629.991000", "101629.994000", "101629.997000", "101630.001000", "101630.004000", "101630.007000", "101630.009000", "101630.012000", "101630.015000", "101630.018000", "101630.021000", "101709.935000", "101709.938000", "101709.941000", "101709.944000", "101709.947000", "101709.950000", "101709.952000", "101709.955000", "101709.958000", "101709.961000", "101709.964000", "101709.967000", "101709.970000", "101709.973000", "101709.976000", "101709.978000", "101709.981000", "101709.984000", "101709.987000", "101709.990000", "101709.993000", "101709.996000", "101710.000000", "101710.003000", "101710.006000", "101710.009000", "101710.011000", "101749.934000", "101749.937000", "101749.940000", "101749.943000", "101749.946000", "101749.959000", "101749.962000", "101749.965000", "101749.968000", "101749.971000", "101749.973000", "101749.976000", "101749.979000", "101749.982000", "101749.985000", "101749.988000", "101749.991000", "101749.994000", "101749.996000", "101750.000000", "101750.003000", "101750.006000", "101750.009000", "101750.012000", "101750.015000", "101750.018000", "101750.021000", "101829.934000", "101829.937000", "101829.940000", "101829.943000", "101829.946000", "101829.949000", "101829.952000", "101829.955000", "101829.957000", "101829.960000", "101829.963000", "101829.966000", "101829.969000", "101829.972000", "101829.975000", "101829.978000", "101829.981000", "101829.983000", "101829.986000", "101829.989000", "101829.992000", "101829.995000", "101829.998000", "101830.002000", "101830.005000", "101830.007000", "101830.010000", "101909.935000", "101909.938000", "101909.941000", "101909.944000", "101909.947000", "101909.950000", "101909.952000", "101909.955000", "101909.958000", "101909.961000", "101909.964000", "101909.968000", "101909.971000", "101909.974000", "101909.977000", "101909.980000", "101909.983000", "101909.986000", "101909.989000", "101909.992000", "101909.994000", "101909.997000", "101910.001000", "101910.004000", "101910.007000", "101910.010000", "101949.934000", "101949.937000", "101949.940000", "101949.943000", "101949.946000", "101949.949000", "101949.952000", "101949.955000", "101949.957000", "101949.960000", "101949.963000", "101949.966000", "101949.969000", "101949.972000", "101949.975000", "101949.978000", "101949.981000", "101949.983000", "101949.986000", "101949.989000", "101949.992000", "101949.995000", "101949.998000", "101950.002000", "101950.005000", "101950.007000", "101950.010000", "102009.934000", "102009.937000", "102009.940000", "102009.943000", "102009.946000", "102009.948000", "102009.951000", "102009.954000", "102009.957000", "102009.960000", "102009.963000", "102009.966000", "102009.969000", "102009.972000", "102049.934000", "102049.937000", "102049.940000", "102049.943000", "102049.946000", "102049.949000", "102049.952000", "102049.955000", "102049.958000", "102049.961000", "102049.964000", "102049.967000", "102049.970000", "102049.973000", "102049.976000", "102049.979000", "102049.982000", "102049.985000", "102049.987000", "102049.991000", "102049.993000", "102049.996000", "102050.000000", "102050.003000", "102050.006000", "102050.009000", "102050.012000", "102129.935000", "102129.938000", "102129.941000", "102129.944000", "102129.957000", "102129.960000", "102129.963000", "102129.966000", "102129.969000", "102129.972000", "102129.974000", "102129.977000", "102129.980000", "102129.983000", "102129.986000", "102129.989000", "102129.992000", "102129.995000", "102129.998000", "102130.002000", "102130.005000", "102130.007000", "102130.010000", "102130.013000", "102130.016000", "102130.019000", "102209.934000", "102209.937000", "102209.940000", "102209.943000", "102209.946000", "102209.949000", "102209.952000", "102209.955000", "102209.958000", "102209.961000", "102209.964000", "102209.967000", "102209.969000", "102209.972000", "102209.975000", "102209.978000", "102209.981000", "102209.984000", "102209.987000", "102209.990000", "102210.007000", "102210.010000", "102210.013000", "102210.016000", "102210.019000", "102210.021000", "102210.025000", "102249.934000", "102249.937000", "102249.940000", "102249.943000", "102249.946000", "102249.949000", "102249.952000", "102249.955000", "102249.957000", "102249.960000", "102249.963000", "102249.966000", "102249.969000", "102249.972000", "102249.975000", "102249.978000", "102249.981000", "102249.984000", "102249.986000", "102249.989000", "102249.992000", "102249.995000", "102249.998000", "102250.002000", "102250.005000", "102250.008000", "102250.010000", "102329.935000", "102329.938000", "102329.941000", "102329.944000", "102329.947000", "102329.950000", "102329.953000", "102329.956000", "102329.958000", "102329.961000", "102329.964000", "102329.967000", "102329.970000", "102329.973000", "102329.976000", "102329.978000", "102329.981000", "102329.984000", "102329.987000", "102329.990000", "102329.993000", "102329.996000", "102329.999000", "102330.002000", "102330.005000", "102330.008000", "102330.010000", "102409.935000", "102409.938000", "102409.941000", "102409.944000", "102409.947000", "102409.949000", "102409.952000", "102409.955000", "102409.958000", "102409.961000", "102409.964000", "102409.967000", "102409.970000", "102409.975000", "102409.978000", "102409.981000", "102409.984000", "102409.987000", "102409.990000", "102409.993000", "102409.996000", "102410.000000", "102410.003000", "102410.006000", "102410.008000", "102410.011000", "102410.014000", "102429.023000", "102429.026000", "102429.029000", "102429.032000", "102429.035000", "102429.038000", "102429.041000", "102429.044000", "102429.047000", "102429.049000", "102429.053000", "102429.055000", "102429.058000"],
