{
  "AcquisitionMatrixPE": 104,
  "AcquisitionNumber": 1,
  "AcquisitionTime": "13:52:37.480000",
  "BandwidthPerPixelPhaseEncode": 17.17,
  "BaseResolution": 104,
  "BodyPartExamined": "BRAIN",
  "CoilString": "HC1-7;NC1_2",
  "ConsistencyInfo": "N4_VE11C_LATEST_20160120",
  "ConversionSoftware": "dcm2niix",
  "ConversionSoftwareVersion": "v1.0.20190720  (JP2:OpenJPEG) GCC7.3.0",
  "DerivedVendorReportedEchoSpacing": 0.000560011,
  "DeviceSerialNumber": "167006",
  "DwellTime": 2.1e-06,
  "EchoTime": 0.037,
  "EchoTrainLength": 104,
  "EffectiveEchoSpacing": 0.000560011,
  "FlipAngle": 52,
  "ImageComments": "Unaliased_MB4_PE3_LB",
  "ImageOrientationPatientDICOM": [0.999813, -0.0162818, 0.0104426, 0.0186737, 0.953247, -0.301614],
  "ImageType": [
    "ORIGINAL",
    "PRIMARY",
    "M",
    "MB",
    "ND",
    "MOSAIC"
],
  "ImagingFrequency": 123.259,
  "InPlanePhaseEncodingDirectionDICOM": "COL",
  "InstitutionAddress": "Chemin_Queen-Mary_4565_Montreal_District_CA_H3W_1W5",
  "InstitutionName": "IUGM",
  "InstitutionalDepartmentName": "Department",
  "MRAcquisitionType": "2D",
  "MagneticFieldStrength": 3,
  "Manufacturer": "Siemens",
  "ManufacturersModelName": "Prisma_fit",
  "Modality": "MR",
  "MultibandAccelerationFactor": 4,
  "PartialFourier": 1,
  "PatientPosition": "HFS",
  "PercentPhaseFOV": 100,
  "PhaseEncodingDirection": "j",
  "PhaseEncodingSteps": 104,
  "PhaseResolution": 1,
  "PixelBandwidth": 2290,
  "ProcedureStepDescription": "video_friends",
  "ProtocolName": "func_task-s01e18a",
  "PulseSequenceDetails": "%CustomerSeq%_cmrr_mbep2d_bold",
  "ReceiveCoilActiveElements": "HC1-7;NC1,2",
  "ReceiveCoilName": "HeadNeck_64",
  "ReconMatrixPE": 104,
  "RepetitionTime": 1.49,
  "SAR": 0.0300346,
  "ScanOptions": "FS",
  "ScanningSequence": "EP",
  "SequenceName": "epfid2d1_104",
  "SequenceVariant": "SK_SS",
  "SeriesDescription": "func_task-s01e18a",
  "SeriesNumber": 12,
  "ShimSetting": [620, -7209, -8788, 750, 65, -66, -32, 38],
  "SliceThickness": 2,
  "SliceTiming": [0, 0.785, 0.0975, 0.8825, 0.195, 0.98, 0.295, 1.0775, 0.3925, 1.175, 0.49, 1.275, 0.5875, 1.3725, 0.685, 0, 0.785, 0.0975, 0.8825, 0.195, 0.98, 0.295, 1.0775, 0.3925, 1.175, 0.49, 1.275, 0.5875, 1.3725, 0.685, 0, 0.785, 0.0975, 0.8825, 0.195, 0.98, 0.295, 1.0775, 0.3925, 1.175, 0.49, 1.275, 0.5875, 1.3725, 0.685, 0, 0.785, 0.0975, 0.8825, 0.195, 0.98, 0.295, 1.0775, 0.3925, 1.175, 0.49, 1.275, 0.5875, 1.3725, 0.685],
  "SoftwareVersions": "syngo_MR_E11",
  "SpacingBetweenSlices": 2,
  "StationName": "MRC35049",
  "TaskName": "friends",
  "TotalReadoutTime": 0.0576811,
  "TxRefAmp": 206.538,
  "WipMemBlock": "505f547e-29b8-438f-95dd-6ec6206d9ec0||Sequence: R016 ve11c/master r/e634e98; Dec 19 2017 11:00:25 by eja",
  "dcmmeta_affine": [
    [-1.9996258020401, 0.03734740614891052, 0.010087043046951294, 102.98420715332031],
    [0.03256360813975334, 1.9064942598342896, -0.6035056710243225, -81.2923355102539],
    [0.020885130390524864, 0.6032285094261169, 1.9067456722259521, -68.34098052978516],
    [0.0, 0.0, 0.0, 1.0]
],
  "dcmmeta_reorient_transform": [
    [0.0, -1.0, 0.0, 103.0],
    [1.0, 0.0, 0.0, 0.0],
    [0.0, 0.0, 1.0, 0.0],
    [0.0, 0.0, 0.0, 1.0]
],
  "dcmmeta_shape": [104, 104, 60, 497],
  "dcmmeta_slice_dim": 2,
  "dcmmeta_version": 0.6,
  "global": {
    "const": {
      "AcquisitionMatrix": [104, 0, 0, 104],
      "AngioFlag": "N",
      "BitsAllocated": 16,
      "BitsStored": 16,
      "BodyPartExamined": "BRAIN",
      "Columns": 832,
      "EchoNumbers": 1,
      "EchoTime": 37.0,
      "EchoTrainLength": 104,
      "FlipAngle": 52.0,
      "HighBit": 15,
      "ImageOrientationPatient": [0.99981291035774, -0.0162818033226, 0.01044256494075, 0.01867370276566, 0.95324715219617, -0.3016142563854],
      "ImagePositionPatient": [-848.28924519009, -797.18734952303, 205.76454805708],
      "ImageType": [
        "ORIGINAL",
        "PRIMARY",
        "M",
        "MB",
        "ND",
        "MOSAIC"
],
      "ImagedNucleus": "1H",
      "ImagingFrequency": 123.259161,
      "InPlanePhaseEncodingDirection": "COL",
      "MRAcquisitionType": "2D",
      "MagneticFieldStrength": 3.0,
      "Manufacturer": "SIEMENS",
      "ManufacturerModelName": "Prisma_fit",
      "Modality": "MR",
      "NumberOfAverages": 1.0,
      "NumberOfPhaseEncodingSteps": 104,
      "PercentPhaseFieldOfView": 100.0,
      "PercentSampling": 100.0,
      "PerformedProcedureStepStartTime": "131937.771000",
      "PhotometricInterpretation": "MONOCHROME2",
      "PixelBandwidth": 2290.0,
      "PixelRepresentation": 0,
      "PixelSpacing": [2.0, 2.0],
      "ProtocolName": "func_task-s01e18a",
      "RepetitionTime": 1490.0,
      "Rows": 832,
      "SAR": 0.03003455609429,
      "SamplesPerPixel": 1,
      "ScanOptions": "FS",
      "ScanningSequence": "EP",
      "SequenceName": "epfid2d1_104",
      "SequenceVariant": [
        "SK",
        "SS"
],
      "SeriesDescription": "func_task-s01e18a",
      "SeriesNumber": 12,
      "SeriesTime": "135359.319000",
      "SliceLocation": -40.104839129841,
      "SliceThickness": 2.0,
      "SmallestImagePixelValue": 0,
      "SoftwareVersions": "syngo MR E11",
      "SpacingBetweenSlices": 2.0000000169483,
      "SpecificCharacterSet": "ISO_IR 100",
      "StudyID": "1",
      "StudyTime": "131937.711000",
      "TransmitCoilName": "Body",
      "VariableFlipAngleFlag": "N",
      "WindowCenterWidthExplanation": "Algo1",
      "dBdt": 0.0},
    "slices": {}
  },
  "time": {
    "samples": {
      "AcquisitionNumber": [1, 2, 3, 4, 5, 6, 7, 8, 9, 10, 11, 12, 13, 14, 15, 16, 17, 18, 19, 20, 21, 22, 23, 24, 25, 26, 27, 28, 29, 30, 31, 32, 33, 34, 35, 36, 37, 38, 39, 40, 41, 42, 43, 44, 45, 46, 47, 48, 49, 50, 51, 52, 53, 54, 55, 56, 57, 58, 59, 60, 61, 62, 63, 64, 65, 66, 67, 68, 69, 70, 71, 72, 73, 74, 75, 76, 77, 78, 79, 80, 81, 82, 83, 84, 85, 86, 87, 88, 89, 90, 91, 92, 93, 94, 95, 96, 97, 98, 99, 100, 101, 102, 103, 104, 105, 106, 107, 108, 109, 110, 111, 112, 113, 114, 115, 116, 117, 118, 119, 120, 121, 122, 123, 124, 125, 126, 127, 128, 129, 130, 131, 132, 133, 134, 135, 136, 137, 138, 139, 140, 141, 142, 143, 144, 145, 146, 147, 148, 149, 150, 151, 152, 153, 154, 155, 156, 157, 158, 159, 160, 161, 162, 163, 164, 165, 166, 167, 168, 169, 170, 171, 172, 173, 174, 175, 176, 177, 178, 179, 180, 181, 182, 183, 184, 185, 186, 187, 188, 189, 190, 191, 192, 193, 194, 195, 196, 197, 198, 199, 200, 201, 202, 203, 204, 205, 206, 207, 208, 209, 210, 211, 212, 213, 214, 215, 216, 217, 218, 219, 220, 221, 222, 223, 224, 225, 226, 227, 228, 229, 230, 231, 232, 233, 234, 235, 236, 237, 238, 239, 240, 241, 242, 243, 244, 245, 246, 247, 248, 249, 250, 251, 252, 253, 254, 255, 256, 257, 258, 259, 260, 261, 262, 263, 264, 265, 266, 267, 268, 269, 270, 271, 272, 273, 274, 275, 276, 277, 278, 279, 280, 281, 282, 283, 284, 285, 286, 287, 288, 289, 290, 291, 292, 293, 294, 295, 296, 297, 298, 299, 300, 301, 302, 303, 304, 305, 306, 307, 308, 309, 310, 311, 312, 313, 314, 315, 316, 317, 318, 319, 320, 321, 322, 323, 324, 325, 326, 327, 328, 329, 330, 331, 332, 333, 334, 335, 336, 337, 338, 339, 340, 341, 342, 343, 344, 345, 346, 347, 348, 349, 350, 351, 352, 353, 354, 355, 356, 357, 358, 359, 360, 361, 362, 363, 364, 365, 366, 367, 368, 369, 370, 371, 372, 373, 374, 375, 376, 377, 378, 379, 380, 381, 382, 383, 384, 385, 386, 387, 388, 389, 390, 391, 392, 393, 394, 395, 396, 397, 398, 399, 400, 401, 402, 403, 404, 405, 406, 407, 408, 409, 410, 411, 412, 413, 414, 415, 416, 417, 418, 419, 420, 421, 422, 423, 424, 425, 426, 427, 428, 429, 430, 431, 432, 433, 434, 435, 436, 437, 438, 439, 440, 441, 442, 443, 444, 445, 446, 447, 448, 449, 450, 451, 452, 453, 454, 455, 456, 457, 458, 459, 460, 461, 462, 463, 464, 465, 466, 467, 468, 469, 470, 471, 472, 473, 474, 475, 476, 477, 478, 479, 480, 481, 482, 483, 484, 485, 486, 487, 488, 489, 490, 491, 492, 493, 494, 495, 496, 497],
      "AcquisitionTime": ["135237.480000", "135238.970000", "135240.460000", "135241.950000", "135243.440000", "135244.930000", "135246.420000", "135247.910000", "135249.400000", "135250.890000", "135252.380000", "135253.870000", "135255.360000", "135256.850000", "135258.340000", "135259.830000", "135301.320000", "135302.810000", "135304.300000", "135305.790000", "135307.280000", "135308.770000", "135310.260000", "135311.750000", "135313.240000", "135314.730000", "135316.220000", "135317.710000", "135319.200000", "135320.690000", "135322.180000", "135323.670000", "135325.160000", "135326.650000", "135328.140000", "135329.630000", "135331.120000", "135332.610000", "135334.100000", "135335.590000", "135337.080000", "135338.570000", "135340.060000", "135341.550000", "135343.040000", "135344.530000", "135346.020000", "135347.510000", "135349.000000", "135350.490000", "135351.980000", "135353.470000", "135354.960000", "135356.450000", "135357.940000", "135359.430000", "135400.920000", "135402.410000", "135403.900000", "135405.390000", "135406.880000", "135408.370000", "135409.860000", "135411.350000", "135412.840000", "135414.330000", "135415.820000", "135417.310000", "135418.800000", "135420.290000", "135421.780000", "135423.270000", "135424.760000", "135426.250000", "135427.740000", "135429.230000", "135430.720000", "135432.210000", "135433.700000", "135435.190000", "135436.680000", "135438.170000", "135439.660000", "135441.150000", "135442.640000", "135444.130000", "135445.620000", "135447.110000", "135448.600000", "135450.090000", "135451.580000", "135453.070000", "135454.560000", "135456.050000", "135457.540000", "135459.030000", "135500.520000", "135502.010000", "135503.500000", "135504.990000", "135506.480000", "135507.970000", "135509.460000", "135510.950000", "135512.440000", "135513.930000", "135515.420000", "135516.910000", "135518.400000", "135519.890000", "135521.380000", "135522.870000", "135524.360000", "135525.850000", "135527.340000", "135528.830000", "135530.320000", "135531.810000", "135533.300000", "135534.790000", "135536.280000", "135537.770000", "135539.260000", "135540.750000", "135542.240000", "135543.730000", "135545.220000", "135546.710000", "135548.200000", "135549.690000", "135551.180000", "135552.670000", "135554.160000", "135555.650000", "135557.140000", "135558.630000", "135600.120000", "135601.610000", "135603.100000", "135604.590000", "135606.080000", "135607.570000", "135609.060000", "135610.550000", "135612.040000", "135613.530000", "135615.020000", "135616.510000", "135618.000000", "135619.490000", "135620.980000", "135622.470000", "135623.960000", "135625.450000", "135626.940000", "135628.430000", "135629.920000", "135631.410000", "135632.900000", "135634.390000", "135635.880000", "135637.370000", "135638.860000", "135640.350000", "135641.840000", "135643.330000", "135644.820000", "135646.310000", "135647.800000", "135649.290000", "135650.780000", "135652.270000", "135653.760000", "135655.250000", "135656.740000", "135658.230000", "135659.720000", "135701.210000", "135702.700000", "135704.190000", "135705.680000", "135707.170000", "135708.660000", "135710.150000", "135711.640000", "135713.130000", "135714.620000", "135716.110000", "135717.600000", "135719.090000", "135720.580000", "135722.070000", "135723.560000", "135725.050000", "135726.540000", "135728.030000", "135729.520000", "135731.010000", "135732.500000", "135733.990000", "135735.480000", "135736.970000", "135738.460000", "135739.950000", "135741.440000", "135742.930000", "135744.420000", "135745.910000", "135747.400000", "135748.890000", "135750.380000", "135751.870000", "135753.360000", "135754.850000", "135756.340000", "135757.830000", "135759.320000", "135800.810000", "135802.300000", "135803.790000", "135805.280000", "135806.770000", "135808.260000", "135809.750000", "135811.240000", "135812.730000", "135814.220000", "135815.710000", "135817.200000", "135818.690000", "135820.180000", "135821.670000", "135823.160000", "135824.650000", "135826.140000", "135827.630000", "135829.120000", "135830.610000", "135832.100000", "135833.590000", "135835.080000", "135836.570000", "135838.060000", "135839.550000", "135841.040000", "135842.530000", "135844.020000", "135845.510000", "135847.000000", "135848.490000", "135849.980000", "135851.470000", "135852.960000", "135854.450000", "135855.940000", "135857.430000", "135858.920000", "135900.410000", "135901.900000", "135903.390000", "135904.880000", "135906.370000", "135907.860000", "135909.350000", "135910.840000", "135912.330000", "135913.820000", "135915.310000", "135916.800000", "135918.290000", "135919.780000", "135921.270000", "135922.760000", "135924.250000", "135925.740000", "135927.230000", "135928.720000", "135930.210000", "135931.700000", "135933.190000", "135934.680000", "135936.170000", "135937.660000", "135939.150000", "135940.640000", "135942.130000", "135943.620000", "135945.110000", "135946.600000", "135948.090000", "135949.580000", "135951.070000", "135952.560000", "135954.050000", "135955.540000", "135957.030000", "135958.520000", "140000.010000", "140001.500000", "140002.990000", "140004.480000", "140005.970000", "140007.460000", "140008.950000", "140010.440000", "140011.930000", "140013.420000", "140014.910000", "140016.400000", "140017.890000", "140019.380000", "140020.870000", "140022.360000", "140023.850000", "140025.340000", "140026.830000", "140028.320000", "140029.810000", "140031.300000", "140032.790000", "140034.280000", "140035.770000", "140037.260000", "140038.750000", "140040.240000", "140041.730000", "140043.220000", "140044.710000", "140046.200000", "140047.690000", "140049.180000", "140050.670000", "140052.160000", "140053.650000", "140055.140000", "140056.630000", "140058.120000", "140059.610000", "140101.100000", "140102.590000", "140104.080000", "140105.570000", "140107.060000", "140108.550000", "140110.040000", "140111.530000", "140113.020000", "140114.510000", "140116.000000", "140117.490000", "140118.980000", "140120.470000", "140121.960000", "140123.450000", "140124.940000", "140126.430000", "140127.920000", "140129.410000", "140130.900000", "140132.390000", "140133.880000", "140135.370000", "140136.860000", "140138.350000", "140139.840000", "140141.330000", "140142.820000", "140144.310000", "140145.800000", "140147.290000", "140148.780000", "140150.270000", "140151.760000", "140153.250000", "140154.740000", "140156.230000", "140157.720000", "140159.210000", "140200.700000", "140202.190000", "140203.680000", "140205.170000", "140206.660000", "140208.150000", "140209.640000", "140211.130000", "140212.620000", "140214.110000", "140215.600000", "140217.090000", "140218.580000", "140220.070000", "140221.560000", "140223.050000", "140224.540000", "140226.030000", "140227.520000", "140229.010000", "140230.500000", "140231.990000", "140233.480000", "140234.970000", "140236.460000", "140237.950000", "140239.440000", "140240.930000", "140242.420000", "140243.910000", "140245.400000", "140246.890000", "140248.380000", "140249.870000", "140251.360000", "140252.850000", "140254.340000", "140255.830000", "140257.320000", "140258.810000", "140300.300000", "140301.790000", "140303.280000", "140304.770000", "140306.260000", "140307.750000", "140309.240000", "140310.730000", "140312.220000", "140313.710000", "140315.200000", "140316.690000", "140318.180000", "140319.670000", "140321.160000", "140322.650000", "140324.140000", "140325.630000", "140327.120000", "140328.610000", "140330.100000", "140331.590000", "140333.080000", "140334.570000", "140336.060000", "140337.550000", "140339.040000", "140340.530000", "140342.020000", "140343.510000", "140345.000000", "140346.490000", "140347.980000", "140349.470000", "140350.960000", "140352.450000", "140353.940000", "140355.430000", "140356.920000", "140358.410000", "140359.900000", "140401.390000", "140402.880000", "140404.370000", "140405.860000", "140407.350000", "140408.840000", "140410.330000", "140411.820000", "140413.310000", "140414.800000", "140416.290000", "140417.780000", "140419.270000", "140420.760000", "140422.250000", "140423.740000", "140425.230000", "140426.720000", "140428.210000", "140429.700000", "140431.190000", "140432.680000", "140434.170000", "140435.660000", "140437.150000", "140438.640000", "140440.130000", "140441.620000", "140443.110000", "140444.600000", "140446.090000", "140447.580000", "140449.070000", "140450.560000", "140452.050000", "140453.540000", "140455.030000", "140456.520000"],
      "ContentTime": ["135359.321000", "135359.325000", "135359.327000", "135359.330000", "135359.333000", "135359.336000", "135359.339000", "135359.341000", "135359.344000", "135359.363000", "135359.365000", "135359.368000", "135359.371000", "135359.374000", "135359.377000", "135359.380000", "135359.382000", "135359.385000", "135359.388000", "135359.391000", "135359.393000", "135359.396000", "135359.399000", "135359.402000", "135359.405000", "135359.408000", "135419.291000", "135419.294000", "135419.296000", "135419.299000", "135419.302000", "135419.305000", "135419.308000", "135419.310000", "135419.313000", "135419.316000", "135419.319000", "135419.321000", "135419.324000", "135419.327000", "135419.330000", "135419.333000", "135419.336000", "135419.338000", "135419.341000", "135419.344000", "135439.291000", "135439.294000", "135439.297000", "135439.299000", "135439.302000", "135439.305000", "135439.317000", "135439.319000", "135439.332000", "135439.334000", "135439.337000", "135439.340000", "135439.343000", "135439.346000", "135439.348000", "135439.351000", "135439.354000", "135439.357000", "135439.359000", "135439.362000", "135459.291000", "135459.294000", "135459.296000", "135459.299000", "135459.302000", "135459.305000", "135459.308000", "135459.310000", "135459.313000", "135459.316000", "135459.319000", "135459.321000", "135459.324000", "135459.327000", "135459.330000", "135459.338000", "135459.341000", "135459.344000", "135459.347000", "135459.349000", "135519.291000", "135519.294000", "135519.296000", "135519.299000", "135519.302000", "135519.305000", "135519.308000", "135519.310000", "135519.313000", "135519.316000", "135519.319000", "135519.322000", "135519.324000", "135519.327000", "135519.330000", "135519.333000", "135519.335000", "135519.338000", "135519.341000", "135519.344000", "135519.347000", "135559.292000", "135559.295000", "135559.298000", "135559.301000", "135559.303000", "135559.306000", "135559.309000", "135559.312000", "135559.315000", "135559.317000", "135559.320000", "135559.323000", "135559.326000", "135559.339000", "135559.341000", "135559.344000", "135559.347000", "135559.350000", "135559.353000", "135559.356000", "135559.358000", "135559.361000", "135559.364000", "135559.367000", "135559.370000", "135559.372000", "135559.375000", "135559.378000", "135639.291000", "135639.294000", "135639.297000", "135639.299000", "135639.302000", "135639.305000", "135639.308000", "135639.311000", "135639.313000", "135639.316000", "135639.319000", "135639.322000", "135639.325000", "135639.327000", "135639.330000", "135639.333000", "135639.336000", "135639.339000", "135639.341000", "135639.344000", "135639.347000", "135639.350000", "135639.353000", "135639.355000", "135639.358000", "135639.361000", "135639.364000", "135719.291000", "135719.294000", "135719.296000", "135719.299000", "135719.302000", "135719.305000", "135719.308000", "135719.310000", "135719.313000", "135719.316000", "135719.319000", "135719.322000", "135719.325000", "135719.327000", "135719.330000", "135719.333000", "135719.336000", "135719.339000", "135719.342000", "135719.344000", "135719.347000", "135719.350000", "135719.353000", "135719.355000", "135719.358000", "135719.361000", "135719.364000", "135759.292000", "135759.295000", "135759.298000", "135759.300000", "135759.303000", "135759.306000", "135759.309000", "135759.312000", "135759.314000", "135759.317000", "135759.320000", "135759.323000", "135759.326000", "135759.328000", "135759.331000", "135759.334000", "135759.337000", "135759.340000", "135759.342000", "135759.345000", "135759.348000", "135759.351000", "135759.353000", "135759.356000", "135759.359000", "135759.362000", "135839.292000", "135839.295000", "135839.298000", "135839.301000", "135839.303000", "135839.306000", "135839.309000", "135839.312000", "135839.315000", "135839.318000", "135839.321000", "135839.323000", "135839.326000", "135839.329000", "135839.332000", "135839.335000", "135839.338000", "135839.341000", "135839.343000", "135839.346000", "135839.349000", "135839.352000", "135839.355000", "135839.358000", "135839.360000", "135839.379000", "135839.382000", "135919.291000", "135919.294000", "135919.296000", "135919.299000", "135919.302000", "135919.305000", "135919.308000", "135919.311000", "135919.314000", "135919.316000", "135919.319000", "135919.322000", "135919.325000", "135919.328000", "135919.331000", "135919.334000", "135919.336000", "135919.339000", "135919.342000", "135919.345000", "135919.348000", "135919.351000", "135919.353000", "135919.356000", "135919.359000", "135919.362000", "135919.365000", "135959.291000", "135959.294000", "135959.297000", "135959.300000", "135959.302000", "135959.305000", "135959.308000", "135959.311000", "135959.314000", "135959.316000", "135959.319000", "135959.322000", "135959.325000", "135959.328000", "135959.330000", "135959.333000", "135959.336000", "135959.339000", "135959.342000", "135959.344000", "135959.347000", "135959.350000", "135959.353000", "135959.356000", "135959.358000", "135959.361000", "135959.364000", "140039.292000", "140039.295000", "140039.298000", "140039.300000", "140039.303000", "140039.306000", "140039.309000", "140039.312000", "140039.315000", "140039.317000", "140039.320000", "140039.323000", "140039.326000", "140039.329000", "140039.332000", "140039.334000", "140039.337000", "140039.340000", "140039.343000", "140039.345000", "140039.348000", "140039.351000", "140039.354000", "140039.357000", "140039.359000", "140039.362000", "140039.365000", "140119.291000", "140119.294000", "140119.297000", "140119.300000", "140119.302000", "140119.305000", "140119.308000", "140119.311000", "140119.314000", "140119.316000", "140119.319000", "140119.322000", "140119.325000", "140119.328000", "140119.333000", "140119.336000", "140119.339000", "140119.342000", "140119.345000", "140119.347000", "140119.350000", "140119.353000", "140119.356000", "140119.359000", "140119.361000", "140119.364000", "140119.367000", "140139.291000", "140139.294000", "140139.297000", "140139.299000", "140139.302000", "140139.305000", "140139.308000", "140139.311000", "140139.314000", "140139.316000", "140139.319000", "140139.322000", "140139.325000", "140219.291000", "140219.294000", "140219.297000", "140219.300000", "140219.302000", "140219.305000", "140219.308000", "140219.311000", "140219.314000", "140219.316000", "140219.319000", "140219.322000", "140219.325000", "140219.328000", "140219.331000", "140219.334000", "140219.336000", "140219.339000", "140219.342000", "140219.345000", "140219.348000", "140219.350000", "140219.353000", "140219.356000", "140219.359000", "140219.362000", "140219.365000", "140259.292000", "140259.295000", "140259.298000", "140259.300000", "140259.303000", "140259.306000", "140259.309000", "140259.312000", "140259.314000", "140259.317000", "140259.320000", "140259.323000", "140259.333000", "140259.336000", "140259.339000", "140259.342000", "140259.345000", "140259.348000", "140259.350000", "140259.353000", "140259.356000", "140259.359000", "140259.362000", "140259.365000", "140259.367000", "140259.370000", "140259.373000", "140339.291000", "140339.294000", "140339.297000", "140339.300000", "140339.302000", "140339.305000", "140339.308000", "140339.311000", "140339.314000", "140339.316000", "140339.319000", "140339.322000", "140339.342000", "140339.345000", "140339.348000", "140339.351000", "140339.354000", "140339.357000", "140339.359000", "140339.362000", "140339.365000", "140339.368000", "140339.371000", "140339.374000", "140339.377000", "140339.379000", "140339.382000", "140419.291000", "140419.294000", "140419.297000", "140419.299000", "140419.302000", "140419.305000", "140419.308000", "140419.311000", "140419.313000", "140419.317000", "140419.320000", "140419.323000", "140419.326000", "140419.329000", "140419.332000", "140419.335000", "140419.338000", "140419.340000", "140419.343000", "140419.346000", "140419.349000", "140419.352000", "140419.360000", "140419.362000", "140419.365000", "140419.368000", "140458.251000", "140458.254000", "140458.257000", "140458.260000", "140458.263000", "140458.266000", "140458.269000", "140458.271000", "140458.274000", "140458.277000", "140458.280000", "140458.283000", "140458.286000", "140458.289000", "140458.292000", "140458.295000", "140458.298000", "140458.300000", "140458.303000", "140458.306000", "140458.309000", "140458.312000", "140458.314000", "140458.317000", "140458.320000", "140458.323000", "140458.326000"],
