{
  "AcquisitionMatrixPE": 104,
  "AcquisitionNumber": 1,
  "AcquisitionTime": "11:33:19.257500",
  "BandwidthPerPixelPhaseEncode": 17.17,
  "BaseResolution": 104,
  "BodyPartExamined": "BRAIN",
  "CoilString": "HC1-7;NC1_2",
  "ConsistencyInfo": "N4_VE11C_LATEST_20160120",
  "ConversionSoftware": "dcm2niix",
  "ConversionSoftwareVersion": "v1.0.20200427",
  "DerivedVendorReportedEchoSpacing": 0.000560011,
  "DeviceSerialNumber": "167006",
  "DwellTime": 2.1e-06,
  "EchoTime": 0.037,
  "EchoTrainLength": 104,
  "EffectiveEchoSpacing": 0.000560011,
  "FlipAngle": 52,
  "ImageComments": "Unaliased_MB4_PE3_LB",
  "ImageOrientationPatientDICOM": [0.998368, -0.0548281, 0.0159489, 0.0566914, 0.918382, -0.391612],
  "ImageType": [
    "ORIGINAL",
    "PRIMARY",
    "M",
    "MB",
    "ND",
    "MOSAIC"
],
  "ImagingFrequency": 123.259,
  "InPlanePhaseEncodingDirectionDICOM": "COL",
  "InstitutionAddress": "Chemin_Queen-Mary_4565_Montreal_District_CA_H3W_1W5",
  "InstitutionName": "IUGM",
  "InstitutionalDepartmentName": "Department",
  "MRAcquisitionType": "2D",
  "MagneticFieldStrength": 3,
  "Manufacturer": "Siemens",
  "ManufacturersModelName": "Prisma_fit",
  "Modality": "MR",
  "MultibandAccelerationFactor": 4,
  "PartialFourier": 1,
  "PatientPosition": "HFS",
  "PercentPhaseFOV": 100,
  "PercentSampling": 100,
  "PhaseEncodingDirection": "j",
  "PhaseEncodingSteps": 104,
  "PhaseResolution": 1,
  "PixelBandwidth": 2290,
  "ProcedureStepDescription": "video_friends",
  "ProtocolName": "func_task-friends-s03e13a",
  "PulseSequenceDetails": "%CustomerSeq%_cmrr_mbep2d_bold",
  "ReceiveCoilActiveElements": "HC1-7;NC1,2",
  "ReceiveCoilName": "HeadNeck_64",
  "ReconMatrixPE": 104,
  "RepetitionTime": 1.49,
  "SAR": 0.0312228,
  "ScanOptions": "FS",
  "ScanningSequence": "EP",
  "SequenceName": "epfid2d1_104",
  "SequenceVariant": "SK_SS",
  "SeriesDescription": "func_task-friends-s03e13a",
  "SeriesNumber": 16,
  "ShimSetting": [638, -7251, -8880, 575, -6, -236, -72, -5],
  "SliceThickness": 2,
  "SliceTiming": [0, 0.785, 0.0975, 0.8825, 0.195, 0.98, 0.295, 1.0775, 0.3925, 1.175, 0.49, 1.275, 0.5875, 1.3725, 0.685, 0, 0.785, 0.0975, 0.8825, 0.195, 0.98, 0.295, 1.0775, 0.3925, 1.175, 0.49, 1.275, 0.5875, 1.3725, 0.685, 0, 0.785, 0.0975, 0.8825, 0.195, 0.98, 0.295, 1.0775, 0.3925, 1.175, 0.49, 1.275, 0.5875, 1.3725, 0.685, 0, 0.785, 0.0975, 0.8825, 0.195, 0.98, 0.295, 1.0775, 0.3925, 1.175, 0.49, 1.275, 0.5875, 1.3725, 0.685],
  "SoftwareVersions": "syngo_MR_E11",
  "SpacingBetweenSlices": 2,
  "StationName": "MRC35049",
  "TaskName": "s03e13a",
  "TotalReadoutTime": 0.0576811,
  "TxRefAmp": 221.41,
  "WipMemBlock": "b685fc0a-0f07-4d1f-a721-c8207bd7ab45||Sequence: R016 ve11c/master r/e634e98; Dec 19 2017 11:00:25 by eja",
  "dcmmeta_affine": [
    [-1.9967368841171265, 0.11338288336992264, -0.013648352585732937, 96.6815185546875],
    [0.10965622961521149, 1.8367646932601929, -0.7837544083595276, -74.668701171875],
    [0.031897760927677155, 0.7832239270210266, 1.8399845361709595, -84.74482727050781],
    [0.0, 0.0, 0.0, 1.0]
],
  "dcmmeta_reorient_transform": [
    [0.0, -1.0, 0.0, 103.0],
    [1.0, 0.0, 0.0, 0.0],
    [0.0, 0.0, 1.0, 0.0],
    [0.0, 0.0, 0.0, 1.0]
],
  "dcmmeta_shape": [104, 104, 60, 474],
  "dcmmeta_slice_dim": 2,
  "dcmmeta_version": 0.6,
  "global": {
    "const": {
      "AcquisitionMatrix": [104, 0, 0, 104],
      "AngioFlag": "N",
      "BitsAllocated": 16,
      "BitsStored": 16,
      "BodyPartExamined": "BRAIN",
      "Columns": 832,
      "EchoNumbers": 1,
      "EchoTime": 37.0,
      "EchoTrainLength": 104,
      "FlipAngle": 52.0,
      "HighBit": 15,
      "ImageOrientationPatient": [0.99836842457468, -0.0548281135853, 0.01594887999054, 0.0566914405631, 0.91838234957576, -0.3916119770316],
      "ImagePositionPatient": [-876.44354035193, -743.18554605118, 269.40997692003],
      "ImageType": [
        "ORIGINAL",
        "PRIMARY",
        "M",
        "MB",
        "ND",
        "MOSAIC"
],
      "ImagedNucleus": "1H",
      "ImagingFrequency": 123.259144,
      "InPlanePhaseEncodingDirection": "COL",
      "MRAcquisitionType": "2D",
      "MagneticFieldStrength": 3.0,
      "Manufacturer": "SIEMENS",
      "ManufacturerModelName": "Prisma_fit",
      "Modality": "MR",
      "NumberOfAverages": 1.0,
      "NumberOfPhaseEncodingSteps": 104,
      "PercentPhaseFieldOfView": 100.0,
      "PercentSampling": 100.0,
      "PerformedProcedureStepStartTime": "102718.413000",
      "PhotometricInterpretation": "MONOCHROME2",
      "PixelBandwidth": 2290.0,
      "PixelRepresentation": 0,
      "PixelSpacing": [2.0, 2.0],
      "ProtocolName": "func_task-friends-s03e13a",
      "RepetitionTime": 1490.0,
      "Rows": 832,
      "SAR": 0.0312227807682,
      "SamplesPerPixel": 1,
      "ScanOptions": "FS",
      "ScanningSequence": "EP",
      "SequenceName": "epfid2d1_104",
      "SequenceVariant": [
        "SK",
        "SS"
],
      "SeriesDescription": "func_task-friends-s03e13a",
      "SeriesNumber": 16,
      "SeriesTime": "113443.461000",
      "SliceLocation": -49.363390177778,
      "SliceThickness": 2.0,
      "SmallestImagePixelValue": 0,
      "SoftwareVersions": "syngo MR E11",
      "SpacingBetweenSlices": 2.0000000473018,
      "SpecificCharacterSet": "ISO_IR 100",
      "StudyID": "1",
      "StudyTime": "102718.334000",
      "TransmitCoilName": "Body",
      "VariableFlipAngleFlag": "N",
      "WindowCenterWidthExplanation": "Algo1",
      "dBdt": 0.0},
    "slices": {}
  },
  "time": {
    "samples": {
      "AcquisitionNumber": [1, 2, 3, 4, 5, 6, 7, 8, 9, 10, 11, 12, 13, 14, 15, 16, 17, 18, 19, 20, 21, 22, 23, 24, 25, 26, 27, 28, 29, 30, 31, 32, 33, 34, 35, 36, 37, 38, 39, 40, 41, 42, 43, 44, 45, 46, 47, 48, 49, 50, 51, 52, 53, 54, 55, 56, 57, 58, 59, 60, 61, 62, 63, 64, 65, 66, 67, 68, 69, 70, 71, 72, 73, 74, 75, 76, 77, 78, 79, 80, 81, 82, 83, 84, 85, 86, 87, 88, 89, 90, 91, 92, 93, 94, 95, 96, 97, 98, 99, 100, 101, 102, 103, 104, 105, 106, 107, 108, 109, 110, 111, 112, 113, 114, 115, 116, 117, 118, 119, 120, 121, 122, 123, 124, 125, 126, 127, 128, 129, 130, 131, 132, 133, 134, 135, 136, 137, 138, 139, 140, 141, 142, 143, 144, 145, 146, 147, 148, 149, 150, 151, 152, 153, 154, 155, 156, 157, 158, 159, 160, 161, 162, 163, 164, 165, 166, 167, 168, 169, 170, 171, 172, 173, 174, 175, 176, 177, 178, 179, 180, 181, 182, 183, 184, 185, 186, 187, 188, 189, 190, 191, 192, 193, 194, 195, 196, 197, 198, 199, 200, 201, 202, 203, 204, 205, 206, 207, 208, 209, 210, 211, 212, 213, 214, 215, 216, 217, 218, 219, 220, 221, 222, 223, 224, 225, 226, 227, 228, 229, 230, 231, 232, 233, 234, 235, 236, 237, 238, 239, 240, 241, 242, 243, 244, 245, 246, 247, 248, 249, 250, 251, 252, 253, 254, 255, 256, 257, 258, 259, 260, 261, 262, 263, 264, 265, 266, 267, 268, 269, 270, 271, 272, 273, 274, 275, 276, 277, 278, 279, 280, 281, 282, 283, 284, 285, 286, 287, 288, 289, 290, 291, 292, 293, 294, 295, 296, 297, 298, 299, 300, 301, 302, 303, 304, 305, 306, 307, 308, 309, 310, 311, 312, 313, 314, 315, 316, 317, 318, 319, 320, 321, 322, 323, 324, 325, 326, 327, 328, 329, 330, 331, 332, 333, 334, 335, 336, 337, 338, 339, 340, 341, 342, 343, 344, 345, 346, 347, 348, 349, 350, 351, 352, 353, 354, 355, 356, 357, 358, 359, 360, 361, 362, 363, 364, 365, 366, 367, 368, 369, 370, 371, 372, 373, 374, 375, 376, 377, 378, 379, 380, 381, 382, 383, 384, 385, 386, 387, 388, 389, 390, 391, 392, 393, 394, 395, 396, 397, 398, 399, 400, 401, 402, 403, 404, 405, 406, 407, 408, 409, 410, 411, 412, 413, 414, 415, 416, 417, 418, 419, 420, 421, 422, 423, 424, 425, 426, 427, 428, 429, 430, 431, 432, 433, 434, 435, 436, 437, 438, 439, 440, 441, 442, 443, 444, 445, 446, 447, 448, 449, 450, 451, 452, 453, 454, 455, 456, 457, 458, 459, 460, 461, 462, 463, 464, 465, 466, 467, 468, 469, 470, 471, 472, 473, 474],
      "AcquisitionTime": ["113319.257500", "113320.747500", "113322.237500", "113323.727500", "113325.217500", "113326.707500", "113328.197500", "113329.687500", "113331.177500", "113332.667500", "113334.157500", "113335.647500", "113337.137500", "113338.627500", "113340.117500", "113341.607500", "113343.097500", "113344.587500", "113346.077500", "113347.567500", "113349.057500", "113350.547500", "113352.037500", "113353.527500", "113355.017500", "113356.507500", "113357.997500", "113359.487500", "113400.977500", "113402.467500", "113403.957500", "113405.447500", "113406.937500", "113408.427500", "113409.917500", "113411.407500", "113412.897500", "113414.387500", "113415.877500", "113417.367500", "113418.857500", "113420.347500", "113421.837500", "113423.327500", "113424.817500", "113426.307500", "113427.797500", "113429.287500", "113430.777500", "113432.267500", "113433.757500", "113435.247500", "113436.737500", "113438.227500", "113439.717500", "113441.207500", "113442.697500", "113444.187500", "113445.677500", "113447.167500", "113448.657500", "113450.147500", "113451.637500", "113453.127500", "113454.617500", "113456.107500", "113457.597500", "113459.087500", "113500.577500", "113502.067500", "113503.557500", "113505.047500", "113506.537500", "113508.027500", "113509.517500", "113511.007500", "113512.497500", "113513.987500", "113515.477500", "113516.967500", "113518.457500", "113519.947500", "113521.437500", "113522.927500", "113524.417500", "113525.907500", "113527.397500", "113528.887500", "113530.377500", "113531.867500", "113533.357500", "113534.847500", "113536.337500", "113537.827500", "113539.317500", "113540.807500", "113542.297500", "113543.787500", "113545.277500", "113546.767500", "113548.257500", "113549.747500", "113551.237500", "113552.727500", "113554.217500", "113555.707500", "113557.197500", "113558.687500", "113600.177500", "113601.667500", "113603.157500", "113604.647500", "113606.137500", "113607.627500", "113609.117500", "113610.607500", "113612.097500", "113613.587500", "113615.077500", "113616.567500", "113618.057500", "113619.547500", "113621.037500", "113622.527500", "113624.017500", "113625.507500", "113626.997500", "113628.487500", "113629.977500", "113631.467500", "113632.957500", "113634.447500", "113635.937500", "113637.427500", "113638.917500", "113640.407500", "113641.897500", "113643.387500", "113644.877500", "113646.367500", "113647.857500", "113649.347500", "113650.837500", "113652.327500", "113653.817500", "113655.307500", "113656.797500", "113658.287500", "113659.777500", "113701.267500", "113702.757500", "113704.247500", "113705.737500", "113707.227500", "113708.717500", "113710.207500", "113711.697500", "113713.187500", "113714.677500", "113716.167500", "113717.657500", "113719.147500", "113720.637500", "113722.127500", "113723.617500", "113725.107500", "113726.597500", "113728.087500", "113729.577500", "113731.067500", "113732.557500", "113734.047500", "113735.537500", "113737.027500", "113738.517500", "113740.007500", "113741.497500", "113742.987500", "113744.477500", "113745.967500", "113747.457500", "113748.947500", "113750.437500", "113751.927500", "113753.417500", "113754.907500", "113756.397500", "113757.887500", "113759.377500", "113800.867500", "113802.357500", "113803.847500", "113805.337500", "113806.827500", "113808.317500", "113809.807500", "113811.297500", "113812.787500", "113814.277500", "113815.767500", "113817.257500", "113818.747500", "113820.237500", "113821.727500", "113823.217500", "113824.707500", "113826.197500", "113827.687500", "113829.177500", "113830.667500", "113832.157500", "113833.647500", "113835.137500", "113836.627500", "113838.117500", "113839.607500", "113841.097500", "113842.587500", "113844.077500", "113845.567500", "113847.057500", "113848.547500", "113850.037500", "113851.527500", "113853.017500", "113854.507500", "113855.997500", "113857.487500", "113858.977500", "113900.467500", "113901.957500", "113903.447500", "113904.937500", "113906.427500", "113907.917500", "113909.407500", "113910.897500", "113912.387500", "113913.877500", "113915.367500", "113916.857500", "113918.347500", "113919.837500", "113921.327500", "113922.817500", "113924.307500", "113925.797500", "113927.287500", "113928.777500", "113930.267500", "113931.757500", "113933.247500", "113934.737500", "113936.227500", "113937.717500", "113939.207500", "113940.697500", "113942.187500", "113943.677500", "113945.167500", "113946.657500", "113948.147500", "113949.637500", "113951.127500", "113952.617500", "113954.107500", "113955.597500", "113957.087500", "113958.577500", "114000.067500", "114001.557500", "114003.047500", "114004.537500", "114006.027500", "114007.517500", "114009.007500", "114010.497500", "114011.987500", "114013.477500", "114014.967500", "114016.457500", "114017.947500", "114019.437500", "114020.927500", "114022.417500", "114023.907500", "114025.397500", "114026.887500", "114028.377500", "114029.867500", "114031.357500", "114032.847500", "114034.337500", "114035.827500", "114037.317500", "114038.807500", "114040.297500", "114041.787500", "114043.277500", "114044.767500", "114046.257500", "114047.747500", "114049.237500", "114050.727500", "114052.217500", "114053.707500", "114055.197500", "114056.687500", "114058.177500", "114059.667500", "114101.157500", "114102.647500", "114104.137500", "114105.627500", "114107.117500", "114108.607500", "114110.097500", "114111.587500", "114113.077500", "114114.567500", "114116.057500", "114117.547500", "114119.037500", "114120.527500", "114122.017500", "114123.507500", "114124.997500", "114126.487500", "114127.977500", "114129.467500", "114130.957500", "114132.447500", "114133.937500", "114135.427500", "114136.917500", "114138.407500", "114139.897500", "114141.387500", "114142.877500", "114144.367500", "114145.857500", "114147.347500", "114148.837500", "114150.327500", "114151.817500", "114153.307500", "114154.797500", "114156.287500", "114157.777500", "114159.267500", "114200.757500", "114202.247500", "114203.737500", "114205.227500", "114206.717500", "114208.207500", "114209.697500", "114211.187500", "114212.677500", "114214.167500", "114215.657500", "114217.147500", "114218.637500", "114220.127500", "114221.617500", "114223.107500", "114224.597500", "114226.087500", "114227.577500", "114229.067500", "114230.557500", "114232.047500", "114233.537500", "114235.027500", "114236.517500", "114238.007500", "114239.497500", "114240.987500", "114242.477500", "114243.967500", "114245.457500", "114246.947500", "114248.437500", "114249.927500", "114251.417500", "114252.907500", "114254.397500", "114255.887500", "114257.377500", "114258.867500", "114300.357500", "114301.847500", "114303.337500", "114304.827500", "114306.317500", "114307.807500", "114309.297500", "114310.787500", "114312.277500", "114313.767500", "114315.257500", "114316.747500", "114318.237500", "114319.727500", "114321.217500", "114322.707500", "114324.197500", "114325.687500", "114327.177500", "114328.667500", "114330.157500", "114331.647500", "114333.137500", "114334.627500", "114336.117500", "114337.607500", "114339.097500", "114340.587500", "114342.077500", "114343.567500", "114345.057500", "114346.547500", "114348.037500", "114349.527500", "114351.017500", "114352.507500", "114353.997500", "114355.487500", "114356.977500", "114358.467500", "114359.957500", "114401.447500", "114402.937500", "114404.427500", "114405.917500", "114407.407500", "114408.897500", "114410.387500", "114411.877500", "114413.367500", "114414.857500", "114416.347500", "114417.837500", "114419.327500", "114420.817500", "114422.307500", "114423.797500", "114425.287500", "114426.777500", "114428.267500", "114429.757500", "114431.247500", "114432.737500", "114434.227500", "114435.717500", "114437.207500", "114438.697500", "114440.187500", "114441.677500", "114443.167500", "114444.657500", "114446.147500", "114447.637500", "114449.127500", "114450.617500", "114452.107500", "114453.597500", "114455.087500", "114456.577500", "114458.067500", "114459.557500", "114501.047500", "114502.537500", "114504.027500"],
      "ContentTime": ["113443.464000", "113443.467000", "113443.470000", "113443.474000", "113443.476000", "113443.479000", "113443.482000", "113443.485000", "113443.488000", "113443.497000", "113443.500000", "113443.503000", "113443.505000", "113443.508000", "113443.511000", "113443.514000", "113443.520000", "113443.523000", "113443.526000", "113443.529000", "113443.532000", "113443.534000", "113443.537000", "113443.540000", "113443.543000", "113443.546000", "113443.549000", "113443.552000", "113443.554000", "113443.557000", "113443.560000", "113503.435000", "113503.438000", "113503.447000", "113503.450000", "113503.452000", "113503.455000", "113503.458000", "113503.461000", "113503.464000", "113503.467000", "113503.470000", "113503.473000", "113503.475000", "113503.478000", "113503.481000", "113503.484000", "113503.487000", "113503.490000", "113503.492000", "113503.496000", "113523.434000", "113523.437000", "113523.440000", "113523.443000", "113523.445000", "113523.448000", "113523.451000", "113523.454000", "113523.457000", "113523.468000", "113523.471000", "113523.474000", "113523.477000", "113523.480000", "113523.482000", "113523.485000", "113523.488000", "113523.491000", "113523.494000", "113523.497000", "113543.434000", "113543.437000", "113543.440000", "113543.443000", "113543.445000", "113543.448000", "113543.451000", "113543.454000", "113543.457000", "113543.460000", "113543.463000", "113543.466000", "113543.468000", "113543.471000", "113543.474000", "113543.477000", "113543.480000", "113543.483000", "113543.485000", "113543.488000", "113623.434000", "113623.437000", "113623.440000", "113623.443000", "113623.445000", "113623.448000", "113623.451000", "113623.454000", "113623.457000", "113623.460000", "113623.463000", "113623.466000", "113623.468000", "113623.471000", "113623.474000", "113623.477000", "113623.480000", "113623.483000", "113623.486000", "113623.489000", "113623.491000", "113623.494000", "113623.497000", "113623.500000", "113623.503000", "113623.520000", "113623.523000", "113623.526000", "113623.529000", "113623.531000", "113623.534000", "113623.537000", "113703.434000", "113703.437000", "113703.440000", "113703.443000", "113703.446000", "113703.448000", "113703.451000", "113703.454000", "113703.457000", "113703.460000", "113703.463000", "113703.466000", "113703.468000", "113703.471000", "113703.474000", "113703.478000", "113703.481000", "113703.484000", "113703.487000", "113703.490000", "113703.493000", "113703.496000", "113703.498000", "113703.501000", "113703.504000", "113703.507000", "113743.434000", "113743.437000", "113743.440000", "113743.443000", "113743.446000", "113743.448000", "113743.451000", "113743.454000", "113743.457000", "113743.460000", "113743.463000", "113743.466000", "113743.468000", "113743.471000", "113743.474000", "113743.477000", "113743.480000", "113743.483000", "113743.486000", "113743.497000", "113743.500000", "113743.502000", "113743.505000", "113743.508000", "113743.511000", "113743.514000", "113743.517000", "113823.434000", "113823.437000", "113823.440000", "113823.443000", "113823.446000", "113823.448000", "113823.452000", "113823.454000", "113823.457000", "113823.460000", "113823.463000", "113823.466000", "113823.469000", "113823.471000", "113823.474000", "113823.477000", "113823.480000", "113823.483000", "113823.486000", "113823.489000", "113823.492000", "113823.494000", "113823.497000", "113823.500000", "113823.504000", "113823.506000", "113823.509000", "113903.434000", "113903.437000", "113903.440000", "113903.443000", "113903.446000", "113903.449000", "113903.452000", "113903.454000", "113903.457000", "113903.460000", "113903.463000", "113903.466000", "113903.469000", "113903.472000", "113903.474000", "113903.477000", "113903.480000", "113903.483000", "113903.486000", "113903.489000", "113903.492000", "113903.495000", "113903.497000", "113903.500000", "113903.503000", "113903.506000", "113903.509000", "113943.435000", "113943.438000", "113943.441000", "113943.444000", "113943.447000", "113943.450000", "113943.452000", "113943.455000", "113943.458000", "113943.461000", "113943.464000", "113943.467000", "113943.470000", "113943.472000", "113943.475000", "113943.478000", "113943.481000", "113943.484000", "113943.487000", "113943.490000", "113943.493000", "113943.495000", "113943.498000", "113943.501000", "113943.504000", "113943.507000", "113943.510000", "114003.434000", "114003.437000", "114003.440000", "114003.443000", "114003.446000", "114003.449000", "114003.451000", "114003.454000", "114003.457000", "114003.460000", "114003.463000", "114003.466000", "114003.469000", "114043.434000", "114043.437000", "114043.440000", "114043.443000", "114043.446000", "114043.449000", "114043.451000", "114043.454000", "114043.457000", "114043.460000", "114043.463000", "114043.466000", "114043.468000", "114043.471000", "114043.474000", "114043.477000", "114043.480000", "114043.483000", "114043.486000", "114043.488000", "114043.491000", "114043.494000", "114043.497000", "114043.500000", "114043.503000", "114043.506000", "114043.508000", "114123.434000", "114123.437000", "114123.440000", "114123.443000", "114123.446000", "114123.449000", "114123.452000", "114123.455000", "114123.457000", "114123.460000", "114123.463000", "114123.466000", "114123.469000", "114123.472000", "114123.475000", "114123.477000", "114123.480000", "114123.483000", "114123.486000", "114123.489000", "114123.492000", "114123.495000", "114123.497000", "114123.500000", "114123.503000", "114123.506000", "114123.509000", "114203.435000", "114203.438000", "114203.441000", "114203.444000", "114203.447000", "114203.450000", "114203.453000", "114203.455000", "114203.458000", "114203.461000", "114203.464000", "114203.467000", "114203.470000", "114203.473000", "114203.476000", "114203.478000", "114203.481000", "114203.484000", "114203.487000", "114203.490000", "114203.493000", "114203.496000", "114203.499000", "114203.501000", "114203.504000", "114203.507000", "114203.510000", "114243.434000", "114243.437000", "114243.440000", "114243.443000", "114243.446000", "114243.449000", "114243.451000", "114243.454000", "114243.457000", "114243.460000", "114243.463000", "114243.466000", "114243.469000", "114243.472000", "114243.475000", "114243.477000", "114243.480000", "114243.483000", "114243.486000", "114243.489000", "114243.492000", "114243.495000", "114243.498000", "114243.500000", "114243.503000", "114243.506000", "114243.509000", "114323.435000", "114323.438000", "114323.441000", "114323.444000", "114323.447000", "114323.450000", "114323.460000", "114323.463000", "114323.466000", "114323.469000", "114323.472000", "114323.475000", "114323.478000", "114323.480000", "114323.483000", "114323.486000", "114323.489000", "114323.492000", "114323.495000", "114323.498000", "114323.501000", "114323.503000", "114323.506000", "114323.509000", "114323.512000", "114323.515000", "114403.434000", "114403.437000", "114403.440000", "114403.443000", "114403.446000", "114403.449000", "114403.452000", "114403.455000", "114403.457000", "114403.460000", "114403.463000", "114403.466000", "114403.469000", "114403.472000", "114403.475000", "114403.477000", "114403.480000", "114403.483000", "114403.486000", "114403.489000", "114403.492000", "114403.495000", "114403.498000", "114403.500000", "114403.503000", "114403.506000", "114403.509000", "114443.434000", "114443.437000", "114443.440000", "114443.443000", "114443.446000", "114443.449000", "114443.452000", "114443.455000", "114443.458000", "114443.461000", "114443.463000", "114443.466000", "114443.469000", "114443.472000", "114443.475000", "114443.478000", "114443.481000", "114443.484000", "114443.486000", "114443.489000", "114443.492000", "114443.495000", "114443.498000", "114443.501000", "114443.503000", "114443.506000", "114443.509000", "114506.405000", "114506.408000", "114506.411000", "114506.414000", "114506.417000", "114506.420000", "114506.423000", "114506.426000", "114506.429000", "114506.432000", "114506.435000", "114506.438000", "114506.441000", "114506.444000", "114506.447000", "114506.450000"],
