{
  "AcquisitionMatrixPE": 104,
  "AcquisitionNumber": 1,
  "AcquisitionTime": "10:45:22.260000",
  "BandwidthPerPixelPhaseEncode": 17.17,
  "BaseResolution": 104,
  "BodyPartExamined": "BRAIN",
  "CoilString": "HC1-7;NC1_2",
  "ConsistencyInfo": "N4_VE11C_LATEST_20160120",
  "ConversionSoftware": "dcm2niix",
  "ConversionSoftwareVersion": "v1.0.20200427",
  "DerivedVendorReportedEchoSpacing": 0.000560011,
  "DeviceSerialNumber": "167006",
  "DwellTime": 2.1e-06,
  "EchoTime": 0.037,
  "EchoTrainLength": 104,
  "EffectiveEchoSpacing": 0.000560011,
  "FlipAngle": 52,
  "ImageComments": "Unaliased_MB4_PE3_LB",
  "ImageOrientationPatientDICOM": [0.998368, -0.0548281, 0.0159489, 0.0566914, 0.918382, -0.391612],
  "ImageType": [
    "ORIGINAL",
    "PRIMARY",
    "M",
    "MB",
    "ND",
    "MOSAIC"
],
  "ImagingFrequency": 123.259,
  "InPlanePhaseEncodingDirectionDICOM": "COL",
  "InstitutionAddress": "Chemin_Queen-Mary_4565_Montreal_District_CA_H3W_1W5",
  "InstitutionName": "IUGM",
  "InstitutionalDepartmentName": "Department",
  "MRAcquisitionType": "2D",
  "MagneticFieldStrength": 3,
  "Manufacturer": "Siemens",
  "ManufacturersModelName": "Prisma_fit",
  "Modality": "MR",
  "MultibandAccelerationFactor": 4,
  "PartialFourier": 1,
  "PatientPosition": "HFS",
  "PercentPhaseFOV": 100,
  "PercentSampling": 100,
  "PhaseEncodingDirection": "j",
  "PhaseEncodingSteps": 104,
  "PhaseResolution": 1,
  "PixelBandwidth": 2290,
  "ProcedureStepDescription": "video_friends",
  "ProtocolName": "func_task-friends-s03e11a",
  "PulseSequenceDetails": "%CustomerSeq%_cmrr_mbep2d_bold",
  "ReceiveCoilActiveElements": "HC1-7;NC1,2",
  "ReceiveCoilName": "HeadNeck_64",
  "ReconMatrixPE": 104,
  "RepetitionTime": 1.49,
  "SAR": 0.0312179,
  "ScanOptions": "FS",
  "ScanningSequence": "EP",
  "SequenceName": "epfid2d1_104",
  "SequenceVariant": "SK_SS",
  "SeriesDescription": "func_task-friends-s03e11a",
  "SeriesNumber": 8,
  "ShimSetting": [638, -7251, -8880, 575, -6, -236, -72, -5],
  "SliceThickness": 2,
  "SliceTiming": [0, 0.7825, 0.0975, 0.8825, 0.195, 0.98, 0.2925, 1.0775, 0.3925, 1.175, 0.49, 1.2725, 0.5875, 1.3725, 0.685, 0, 0.7825, 0.0975, 0.8825, 0.195, 0.98, 0.2925, 1.0775, 0.3925, 1.175, 0.49, 1.2725, 0.5875, 1.3725, 0.685, 0, 0.7825, 0.0975, 0.8825, 0.195, 0.98, 0.2925, 1.0775, 0.3925, 1.175, 0.49, 1.2725, 0.5875, 1.3725, 0.685, 0, 0.7825, 0.0975, 0.8825, 0.195, 0.98, 0.2925, 1.0775, 0.3925, 1.175, 0.49, 1.2725, 0.5875, 1.3725, 0.685],
  "SoftwareVersions": "syngo_MR_E11",
  "SpacingBetweenSlices": 2,
  "StationName": "MRC35049",
  "TaskName": "s03e11a",
  "TotalReadoutTime": 0.0576811,
  "TxRefAmp": 221.41,
  "WipMemBlock": "16474b0a-32b8-4d56-9280-09db7b8acfb3||Sequence: R016 ve11c/master r/e634e98; Dec 19 2017 11:00:25 by eja",
  "dcmmeta_affine": [
    [-1.9967368841171265, 0.11338288336992264, -0.013648352585732937, 96.6815185546875],
    [0.10965622961521149, 1.8367646932601929, -0.7837544083595276, -74.668701171875],
    [0.031897760927677155, 0.7832239270210266, 1.8399845361709595, -84.74482727050781],
    [0.0, 0.0, 0.0, 1.0]
],
  "dcmmeta_reorient_transform": [
    [0.0, -1.0, 0.0, 103.0],
    [1.0, 0.0, 0.0, 0.0],
    [0.0, 0.0, 1.0, 0.0],
    [0.0, 0.0, 0.0, 1.0]
],
  "dcmmeta_shape": [104, 104, 60, 457],
  "dcmmeta_slice_dim": 2,
  "dcmmeta_version": 0.6,
  "global": {
    "const": {
      "AcquisitionMatrix": [104, 0, 0, 104],
      "AngioFlag": "N",
      "BitsAllocated": 16,
      "BitsStored": 16,
      "BodyPartExamined": "BRAIN",
      "Columns": 832,
      "EchoNumbers": 1,
      "EchoTime": 37.0,
      "EchoTrainLength": 104,
      "FlipAngle": 52.0,
      "HighBit": 15,
      "ImageOrientationPatient": [0.99836842457468, -0.0548281135853, 0.01594887999054, 0.0566914405631, 0.91838234957576, -0.3916119770316],
      "ImagePositionPatient": [-876.44354035193, -743.18554605118, 269.40997692003],
      "ImageType": [
        "ORIGINAL",
        "PRIMARY",
        "M",
        "MB",
        "ND",
        "MOSAIC"
],
      "ImagedNucleus": "1H",
      "ImagingFrequency": 123.259129,
      "InPlanePhaseEncodingDirection": "COL",
      "MRAcquisitionType": "2D",
      "MagneticFieldStrength": 3.0,
      "Manufacturer": "SIEMENS",
      "ManufacturerModelName": "Prisma_fit",
      "Modality": "MR",
      "NumberOfAverages": 1.0,
      "NumberOfPhaseEncodingSteps": 104,
      "PercentPhaseFieldOfView": 100.0,
      "PercentSampling": 100.0,
      "PerformedProcedureStepStartTime": "102718.413000",
      "PhotometricInterpretation": "MONOCHROME2",
      "PixelBandwidth": 2290.0,
      "PixelRepresentation": 0,
      "PixelSpacing": [2.0, 2.0],
      "ProtocolName": "func_task-friends-s03e11a",
      "RepetitionTime": 1490.0,
      "Rows": 832,
      "SAR": 0.03121793778708,
      "SamplesPerPixel": 1,
      "ScanOptions": "FS",
      "ScanningSequence": "EP",
      "SequenceName": "epfid2d1_104",
      "SequenceVariant": [
        "SK",
        "SS"
],
      "SeriesDescription": "func_task-friends-s03e11a",
      "SeriesNumber": 8,
      "SeriesTime": "104704.563000",
      "SliceLocation": -49.363390177778,
      "SliceThickness": 2.0,
      "SmallestImagePixelValue": 0,
      "SoftwareVersions": "syngo MR E11",
      "SpacingBetweenSlices": 2.0000000473018,
      "SpecificCharacterSet": "ISO_IR 100",
      "StudyID": "1",
      "StudyTime": "102718.334000",
      "TransmitCoilName": "Body",
      "VariableFlipAngleFlag": "N",
      "WindowCenterWidthExplanation": "Algo1",
      "dBdt": 0.0},
    "slices": {}
  },
  "time": {
    "samples": {
      "AcquisitionNumber": [1, 2, 3, 4, 5, 6, 7, 8, 9, 10, 11, 12, 13, 14, 15, 16, 17, 18, 19, 20, 21, 22, 23, 24, 25, 26, 27, 28, 29, 30, 31, 32, 33, 34, 35, 36, 37, 38, 39, 40, 41, 42, 43, 44, 45, 46, 47, 48, 49, 50, 51, 52, 53, 54, 55, 56, 57, 58, 59, 60, 61, 62, 63, 64, 65, 66, 67, 68, 69, 70, 71, 72, 73, 74, 75, 76, 77, 78, 79, 80, 81, 82, 83, 84, 85, 86, 87, 88, 89, 90, 91, 92, 93, 94, 95, 96, 97, 98, 99, 100, 101, 102, 103, 104, 105, 106, 107, 108, 109, 110, 111, 112, 113, 114, 115, 116, 117, 118, 119, 120, 121, 122, 123, 124, 125, 126, 127, 128, 129, 130, 131, 132, 133, 134, 135, 136, 137, 138, 139, 140, 141, 142, 143, 144, 145, 146, 147, 148, 149, 150, 151, 152, 153, 154, 155, 156, 157, 158, 159, 160, 161, 162, 163, 164, 165, 166, 167, 168, 169, 170, 171, 172, 173, 174, 175, 176, 177, 178, 179, 180, 181, 182, 183, 184, 185, 186, 187, 188, 189, 190, 191, 192, 193, 194, 195, 196, 197, 198, 199, 200, 201, 202, 203, 204, 205, 206, 207, 208, 209, 210, 211, 212, 213, 214, 215, 216, 217, 218, 219, 220, 221, 222, 223, 224, 225, 226, 227, 228, 229, 230, 231, 232, 233, 234, 235, 236, 237, 238, 239, 240, 241, 242, 243, 244, 245, 246, 247, 248, 249, 250, 251, 252, 253, 254, 255, 256, 257, 258, 259, 260, 261, 262, 263, 264, 265, 266, 267, 268, 269, 270, 271, 272, 273, 274, 275, 276, 277, 278, 279, 280, 281, 282, 283, 284, 285, 286, 287, 288, 289, 290, 291, 292, 293, 294, 295, 296, 297, 298, 299, 300, 301, 302, 303, 304, 305, 306, 307, 308, 309, 310, 311, 312, 313, 314, 315, 316, 317, 318, 319, 320, 321, 322, 323, 324, 325, 326, 327, 328, 329, 330, 331, 332, 333, 334, 335, 336, 337, 338, 339, 340, 341, 342, 343, 344, 345, 346, 347, 348, 349, 350, 351, 352, 353, 354, 355, 356, 357, 358, 359, 360, 361, 362, 363, 364, 365, 366, 367, 368, 369, 370, 371, 372, 373, 374, 375, 376, 377, 378, 379, 380, 381, 382, 383, 384, 385, 386, 387, 388, 389, 390, 391, 392, 393, 394, 395, 396, 397, 398, 399, 400, 401, 402, 403, 404, 405, 406, 407, 408, 409, 410, 411, 412, 413, 414, 415, 416, 417, 418, 419, 420, 421, 422, 423, 424, 425, 426, 427, 428, 429, 430, 431, 432, 433, 434, 435, 436, 437, 438, 439, 440, 441, 442, 443, 444, 445, 446, 447, 448, 449, 450, 451, 452, 453, 454, 455, 456, 457],
      "AcquisitionTime": ["104522.260000", "104523.750000", "104525.240000", "104526.730000", "104528.220000", "104529.710000", "104531.200000", "104532.690000", "104534.180000", "104535.670000", "104537.160000", "104538.650000", "104540.140000", "104541.630000", "104543.120000", "104544.610000", "104546.100000", "104547.590000", "104549.080000", "104550.570000", "104552.060000", "104553.550000", "104555.040000", "104556.530000", "104558.020000", "104559.510000", "104601.000000", "104602.490000", "104603.980000", "104605.470000", "104606.960000", "104608.450000", "104609.940000", "104611.430000", "104612.920000", "104614.410000", "104615.900000", "104617.390000", "104618.880000", "104620.370000", "104621.860000", "104623.350000", "104624.840000", "104626.330000", "104627.820000", "104629.310000", "104630.800000", "104632.290000", "104633.780000", "104635.270000", "104636.760000", "104638.250000", "104639.740000", "104641.230000", "104642.720000", "104644.210000", "104645.700000", "104647.190000", "104648.680000", "104650.170000", "104651.660000", "104653.150000", "104654.640000", "104656.130000", "104657.620000", "104659.110000", "104700.600000", "104702.090000", "104703.580000", "104705.070000", "104706.560000", "104708.050000", "104709.540000", "104711.030000", "104712.520000", "104714.010000", "104715.500000", "104716.990000", "104718.480000", "104719.970000", "104721.460000", "104722.950000", "104724.440000", "104725.930000", "104727.420000", "104728.910000", "104730.400000", "104731.890000", "104733.380000", "104734.870000", "104736.360000", "104737.850000", "104739.340000", "104740.830000", "104742.320000", "104743.810000", "104745.300000", "104746.790000", "104748.280000", "104749.770000", "104751.260000", "104752.750000", "104754.240000", "104755.730000", "104757.220000", "104758.710000", "104800.200000", "104801.690000", "104803.180000", "104804.670000", "104806.160000", "104807.650000", "104809.140000", "104810.630000", "104812.120000", "104813.610000", "104815.100000", "104816.590000", "104818.080000", "104819.570000", "104821.060000", "104822.550000", "104824.040000", "104825.530000", "104827.020000", "104828.510000", "104830.000000", "104831.490000", "104832.980000", "104834.470000", "104835.960000", "104837.450000", "104838.940000", "104840.430000", "104841.920000", "104843.410000", "104844.900000", "104846.390000", "104847.880000", "104849.370000", "104850.860000", "104852.350000", "104853.840000", "104855.330000", "104856.820000", "104858.310000", "104859.800000", "104901.290000", "104902.780000", "104904.270000", "104905.760000", "104907.250000", "104908.740000", "104910.230000", "104911.720000", "104913.210000", "104914.700000", "104916.190000", "104917.680000", "104919.170000", "104920.660000", "104922.150000", "104923.640000", "104925.130000", "104926.620000", "104928.110000", "104929.600000", "104931.090000", "104932.580000", "104934.070000", "104935.560000", "104937.050000", "104938.540000", "104940.030000", "104941.520000", "104943.010000", "104944.500000", "104945.990000", "104947.480000", "104948.970000", "104950.460000", "104951.950000", "104953.440000", "104954.930000", "104956.420000", "104957.910000", "104959.400000", "105000.890000", "105002.380000", "105003.870000", "105005.360000", "105006.850000", "105008.340000", "105009.830000", "105011.320000", "105012.810000", "105014.300000", "105015.790000", "105017.280000", "105018.770000", "105020.260000", "105021.750000", "105023.240000", "105024.730000", "105026.220000", "105027.710000", "105029.200000", "105030.690000", "105032.180000", "105033.670000", "105035.160000", "105036.650000", "105038.140000", "105039.630000", "105041.120000", "105042.610000", "105044.100000", "105045.590000", "105047.080000", "105048.570000", "105050.060000", "105051.550000", "105053.040000", "105054.530000", "105056.020000", "105057.510000", "105059.000000", "105100.490000", "105101.980000", "105103.470000", "105104.960000", "105106.450000", "105107.940000", "105109.430000", "105110.920000", "105112.410000", "105113.900000", "105115.390000", "105116.880000", "105118.370000", "105119.860000", "105121.350000", "105122.840000", "105124.330000", "105125.820000", "105127.310000", "105128.800000", "105130.290000", "105131.780000", "105133.270000", "105134.760000", "105136.250000", "105137.740000", "105139.230000", "105140.720000", "105142.210000", "105143.700000", "105145.190000", "105146.680000", "105148.170000", "105149.660000", "105151.150000", "105152.640000", "105154.130000", "105155.620000", "105157.110000", "105158.600000", "105200.090000", "105201.580000", "105203.070000", "105204.560000", "105206.050000", "105207.540000", "105209.030000", "105210.520000", "105212.010000", "105213.500000", "105214.990000", "105216.480000", "105217.970000", "105219.460000", "105220.950000", "105222.440000", "105223.930000", "105225.420000", "105226.910000", "105228.400000", "105229.890000", "105231.380000", "105232.870000", "105234.360000", "105235.850000", "105237.340000", "105238.830000", "105240.320000", "105241.810000", "105243.300000", "105244.790000", "105246.280000", "105247.770000", "105249.260000", "105250.750000", "105252.240000", "105253.730000", "105255.220000", "105256.710000", "105258.200000", "105259.690000", "105301.180000", "105302.670000", "105304.160000", "105305.650000", "105307.140000", "105308.630000", "105310.120000", "105311.610000", "105313.100000", "105314.590000", "105316.080000", "105317.570000", "105319.060000", "105320.550000", "105322.040000", "105323.530000", "105325.020000", "105326.510000", "105328.000000", "105329.490000", "105330.980000", "105332.470000", "105333.960000", "105335.450000", "105336.940000", "105338.430000", "105339.920000", "105341.410000", "105342.900000", "105344.390000", "105345.880000", "105347.370000", "105348.860000", "105350.350000", "105351.840000", "105353.330000", "105354.820000", "105356.310000", "105357.800000", "105359.290000", "105400.780000", "105402.270000", "105403.760000", "105405.250000", "105406.740000", "105408.230000", "105409.720000", "105411.210000", "105412.700000", "105414.190000", "105415.680000", "105417.170000", "105418.660000", "105420.150000", "105421.640000", "105423.130000", "105424.620000", "105426.110000", "105427.600000", "105429.090000", "105430.580000", "105432.070000", "105433.560000", "105435.050000", "105436.540000", "105438.030000", "105439.520000", "105441.010000", "105442.500000", "105443.990000", "105445.480000", "105446.970000", "105448.460000", "105449.950000", "105451.440000", "105452.930000", "105454.420000", "105455.910000", "105457.400000", "105458.890000", "105500.380000", "105501.870000", "105503.360000", "105504.850000", "105506.340000", "105507.830000", "105509.320000", "105510.810000", "105512.300000", "105513.790000", "105515.280000", "105516.770000", "105518.260000", "105519.750000", "105521.240000", "105522.730000", "105524.220000", "105525.710000", "105527.200000", "105528.690000", "105530.180000", "105531.670000", "105533.160000", "105534.650000", "105536.140000", "105537.630000", "105539.120000", "105540.610000", "105542.100000", "105543.590000", "105545.080000", "105546.570000", "105548.060000", "105549.550000", "105551.040000", "105552.530000", "105554.020000", "105555.510000", "105557.000000", "105558.490000", "105559.980000", "105601.470000", "105602.960000", "105604.450000", "105605.940000", "105607.430000", "105608.920000", "105610.410000", "105611.900000", "105613.390000", "105614.880000", "105616.370000", "105617.860000", "105619.350000", "105620.840000", "105622.330000", "105623.820000", "105625.310000", "105626.800000", "105628.290000", "105629.780000", "105631.270000", "105632.760000", "105634.250000", "105635.740000", "105637.230000", "105638.720000", "105640.210000", "105641.700000"],
      "ContentTime": ["104704.565000", "104704.569000", "104704.571000", "104704.574000", "104704.581000", "104704.584000", "104704.587000", "104704.590000", "104704.593000", "104704.596000", "104704.599000", "104704.602000", "104704.605000", "104704.608000", "104704.610000", "104704.613000", "104704.616000", "104704.619000", "104704.627000", "104704.629000", "104704.633000", "104704.635000", "104704.638000", "104704.641000", "104704.644000", "104704.650000", "104704.653000", "104704.656000", "104704.659000", "104704.662000", "104704.665000", "104704.668000", "104704.671000", "104704.674000", "104704.676000", "104704.679000", "104724.532000", "104724.535000", "104724.537000", "104724.540000", "104724.543000", "104724.546000", "104724.549000", "104724.552000", "104724.555000", "104724.558000", "104724.560000", "104724.566000", "104724.569000", "104724.572000", "104724.575000", "104724.578000", "104724.581000", "104724.584000", "104724.586000", "104724.589000", "104744.532000", "104744.535000", "104744.537000", "104744.540000", "104744.543000", "104744.546000", "104744.549000", "104744.552000", "104744.555000", "104744.558000", "104744.560000", "104744.563000", "104744.566000", "104744.569000", "104744.572000", "104744.575000", "104744.578000", "104744.580000", "104744.583000", "104744.586000", "104804.532000", "104804.553000", "104804.556000", "104804.559000", "104804.562000", "104804.564000", "104804.567000", "104804.570000", "104804.573000", "104804.576000", "104804.579000", "104804.582000", "104804.585000", "104804.588000", "104804.591000", "104804.593000", "104804.596000", "104804.599000", "104804.602000", "104804.605000", "104824.533000", "104824.536000", "104824.539000", "104824.552000", "104824.554000", "104824.557000", "104824.560000", "104824.563000", "104824.566000", "104824.569000", "104824.572000", "104824.575000", "104824.577000", "104824.580000", "104824.583000", "104824.586000", "104824.589000", "104824.592000", "104824.594000", "104824.597000", "104904.533000", "104904.536000", "104904.539000", "104904.542000", "104904.544000", "104904.547000", "104904.551000", "104904.554000", "104904.557000", "104904.560000", "104904.563000", "104904.566000", "104904.568000", "104904.571000", "104904.574000", "104904.577000", "104904.580000", "104904.583000", "104904.585000", "104904.588000", "104904.591000", "104904.594000", "104904.597000", "104904.600000", "104904.603000", "104904.606000", "104904.609000", "104904.612000", "104904.615000", "104904.617000", "104904.620000", "104904.623000", "104944.532000", "104944.535000", "104944.538000", "104944.541000", "104944.544000", "104944.546000", "104944.549000", "104944.552000", "104944.555000", "104944.558000", "104944.561000", "104944.563000", "104944.566000", "104944.569000", "104944.572000", "104944.575000", "104944.578000", "104944.581000", "104944.584000", "104944.586000", "104944.589000", "104944.592000", "104944.595000", "104944.598000", "104944.601000", "104944.604000", "104944.607000", "105024.532000", "105024.535000", "105024.538000", "105024.541000", "105024.544000", "105024.546000", "105024.549000", "105024.552000", "105024.555000", "105024.558000", "105024.561000", "105024.564000", "105024.567000", "105024.570000", "105024.573000", "105024.576000", "105024.579000", "105024.581000", "105024.584000", "105024.587000", "105024.590000", "105024.593000", "105024.596000", "105024.598000", "105024.601000", "105024.604000", "105024.607000", "105104.533000", "105104.536000", "105104.539000", "105104.542000", "105104.545000", "105104.547000", "105104.550000", "105104.553000", "105104.556000", "105104.559000", "105104.562000", "105104.565000", "105104.567000", "105104.570000", "105104.573000", "105104.576000", "105104.579000", "105104.582000", "105104.585000", "105104.588000", "105104.591000", "105104.593000", "105104.596000", "105104.599000", "105104.611000", "105104.614000", "105104.617000", "105144.533000", "105144.536000", "105144.539000", "105144.542000", "105144.544000", "105144.547000", "105144.550000", "105144.553000", "105144.556000", "105144.559000", "105144.562000", "105144.565000", "105144.567000", "105144.570000", "105144.573000", "105144.576000", "105144.579000", "105144.582000", "105144.585000", "105144.588000", "105144.590000", "105144.593000", "105144.596000", "105144.599000", "105144.602000", "105144.605000", "105144.608000", "105224.532000", "105224.535000", "105224.538000", "105224.541000", "105224.544000", "105224.547000", "105224.549000", "105224.552000", "105224.555000", "105224.558000", "105224.561000", "105224.564000", "105224.567000", "105224.570000", "105224.572000", "105224.575000", "105224.578000", "105224.581000", "105224.592000", "105224.595000", "105224.598000", "105224.601000", "105224.604000", "105224.606000", "105224.609000", "105224.612000", "105224.615000", "105304.533000", "105304.536000", "105304.539000", "105304.542000", "105304.544000", "105304.547000", "105304.550000", "105304.553000", "105304.556000", "105304.559000", "105304.562000", "105304.565000", "105304.568000", "105304.571000", "105304.574000", "105304.577000", "105304.580000", "105304.582000", "105304.585000", "105304.588000", "105304.591000", "105304.594000", "105304.597000", "105304.600000", "105304.603000", "105304.605000", "105344.533000", "105344.536000", "105344.539000", "105344.542000", "105344.545000", "105344.548000", "105344.551000", "105344.553000", "105344.556000", "105344.559000", "105344.562000", "105344.565000", "105344.568000", "105344.571000", "105344.574000", "105344.576000", "105344.579000", "105344.582000", "105344.585000", "105344.588000", "105344.591000", "105344.594000", "105344.597000", "105344.599000", "105344.602000", "105344.605000", "105344.608000", "105424.532000", "105424.535000", "105424.538000", "105424.541000", "105424.544000", "105424.547000", "105424.549000", "105424.552000", "105424.555000", "105424.558000", "105424.561000", "105424.564000", "105424.567000", "105424.570000", "105424.572000", "105424.575000", "105424.578000", "105424.581000", "105424.584000", "105424.587000", "105424.590000", "105424.593000", "105424.595000", "105424.598000", "105424.601000", "105424.604000", "105424.607000", "105504.532000", "105504.535000", "105504.538000", "105504.541000", "105504.544000", "105504.547000", "105504.549000", "105504.552000", "105504.555000", "105504.558000", "105504.561000", "105504.564000", "105504.567000", "105504.570000", "105504.573000", "105504.576000", "105504.579000", "105504.582000", "105504.584000", "105504.587000", "105504.590000", "105504.593000", "105504.596000", "105504.599000", "105504.602000", "105504.605000", "105504.608000", "105544.533000", "105544.536000", "105544.539000", "105544.542000", "105544.545000", "105544.548000", "105544.550000", "105544.553000", "105544.556000", "105544.559000", "105544.562000", "105544.565000", "105544.568000", "105544.571000", "105544.574000", "105544.577000", "105544.580000", "105544.583000", "105544.585000", "105544.588000", "105544.591000", "105544.594000", "105544.604000", "105544.607000", "105544.609000", "105544.612000", "105544.615000", "105624.533000", "105624.536000", "105624.539000", "105624.542000", "105624.545000", "105624.547000", "105624.550000", "105624.553000", "105624.556000", "105624.559000", "105624.562000", "105624.565000", "105624.568000", "105624.571000", "105624.574000", "105624.577000", "105624.580000", "105624.583000", "105624.586000", "105624.588000", "105624.591000", "105624.594000", "105624.597000", "105624.600000", "105624.603000", "105624.606000", "105624.609000", "105643.652000", "105643.656000", "105643.659000", "105643.662000", "105643.665000", "105643.669000", "105643.672000", "105643.674000", "105643.677000", "105643.680000", "105643.683000", "105643.686000", "105643.689000"],
