{
  "AcquisitionMatrixPE": 104,
  "AcquisitionNumber": 1,
  "AcquisitionTime": "11:21:1.047500",
  "BandwidthPerPixelPhaseEncode": 17.17,
  "BaseResolution": 104,
  "BodyPartExamined": "BRAIN",
  "CoilString": "HC1-7;NC1_2",
  "ConsistencyInfo": "N4_VE11C_LATEST_20160120",
  "ConversionSoftware": "dcm2niix",
  "ConversionSoftwareVersion": "v1.0.20200427",
  "DerivedVendorReportedEchoSpacing": 0.000560011,
  "DeviceSerialNumber": "167006",
  "DwellTime": 2.1e-06,
  "EchoTime": 0.037,
  "EchoTrainLength": 104,
  "EffectiveEchoSpacing": 0.000560011,
  "FlipAngle": 52,
  "ImageComments": "Unaliased_MB4_PE3_LB",
  "ImageOrientationPatientDICOM": [0.998368, -0.0548281, 0.0159489, 0.0566914, 0.918382, -0.391612],
  "ImageType": [
    "ORIGINAL",
    "PRIMARY",
    "M",
    "MB",
    "ND",
    "MOSAIC"
],
  "ImagingFrequency": 123.259,
  "InPlanePhaseEncodingDirectionDICOM": "COL",
  "InstitutionAddress": "Chemin_Queen-Mary_4565_Montreal_District_CA_H3W_1W5",
  "InstitutionName": "IUGM",
  "InstitutionalDepartmentName": "Department",
  "MRAcquisitionType": "2D",
  "MagneticFieldStrength": 3,
  "Manufacturer": "Siemens",
  "ManufacturersModelName": "Prisma_fit",
  "Modality": "MR",
  "MultibandAccelerationFactor": 4,
  "PartialFourier": 1,
  "PatientPosition": "HFS",
  "PercentPhaseFOV": 100,
  "PercentSampling": 100,
  "PhaseEncodingDirection": "j",
  "PhaseEncodingSteps": 104,
  "PhaseResolution": 1,
  "PixelBandwidth": 2290,
  "ProcedureStepDescription": "video_friends",
  "ProtocolName": "func_task-friends-s03e12b",
  "PulseSequenceDetails": "%CustomerSeq%_cmrr_mbep2d_bold",
  "ReceiveCoilActiveElements": "HC1-7;NC1,2",
  "ReceiveCoilName": "HeadNeck_64",
  "ReconMatrixPE": 104,
  "RepetitionTime": 1.49,
  "SAR": 0.03122,
  "ScanOptions": "FS",
  "ScanningSequence": "EP",
  "SequenceName": "epfid2d1_104",
  "SequenceVariant": "SK_SS",
  "SeriesDescription": "func_task-friends-s03e12b",
  "SeriesNumber": 14,
  "ShimSetting": [638, -7251, -8880, 575, -6, -236, -72, -5],
  "SliceThickness": 2,
  "SliceTiming": [0, 0.785, 0.0975, 0.8825, 0.195, 0.98, 0.295, 1.0775, 0.3925, 1.175, 0.49, 1.275, 0.5875, 1.3725, 0.685, 0, 0.785, 0.0975, 0.8825, 0.195, 0.98, 0.295, 1.0775, 0.3925, 1.175, 0.49, 1.275, 0.5875, 1.3725, 0.685, 0, 0.785, 0.0975, 0.8825, 0.195, 0.98, 0.295, 1.0775, 0.3925, 1.175, 0.49, 1.275, 0.5875, 1.3725, 0.685, 0, 0.785, 0.0975, 0.8825, 0.195, 0.98, 0.295, 1.0775, 0.3925, 1.175, 0.49, 1.275, 0.5875, 1.3725, 0.685],
  "SoftwareVersions": "syngo_MR_E11",
  "SpacingBetweenSlices": 2,
  "StationName": "MRC35049",
  "TaskName": "s03e12b",
  "TotalReadoutTime": 0.0576811,
  "TxRefAmp": 221.41,
  "WipMemBlock": "2bebf101-7c86-4910-bfbc-36e02fbc2568||Sequence: R016 ve11c/master r/e634e98; Dec 19 2017 11:00:25 by eja",
  "dcmmeta_affine": [
    [-1.9967368841171265, 0.11338288336992264, -0.013648352585732937, 96.6815185546875],
    [0.10965622961521149, 1.8367646932601929, -0.7837544083595276, -74.668701171875],
    [0.031897760927677155, 0.7832239270210266, 1.8399845361709595, -84.74482727050781],
    [0.0, 0.0, 0.0, 1.0]
],
  "dcmmeta_reorient_transform": [
    [0.0, -1.0, 0.0, 103.0],
    [1.0, 0.0, 0.0, 0.0],
    [0.0, 0.0, 1.0, 0.0],
    [0.0, 0.0, 0.0, 1.0]
],
  "dcmmeta_shape": [104, 104, 60, 464],
  "dcmmeta_slice_dim": 2,
  "dcmmeta_version": 0.6,
  "global": {
    "const": {
      "AcquisitionMatrix": [104, 0, 0, 104],
      "AngioFlag": "N",
      "BitsAllocated": 16,
      "BitsStored": 16,
      "BodyPartExamined": "BRAIN",
      "Columns": 832,
      "EchoNumbers": 1,
      "EchoTime": 37.0,
      "EchoTrainLength": 104,
      "FlipAngle": 52.0,
      "HighBit": 15,
      "ImageOrientationPatient": [0.99836842457468, -0.0548281135853, 0.01594887999054, 0.0566914405631, 0.91838234957576, -0.3916119770316],
      "ImagePositionPatient": [-876.44354035193, -743.18554605118, 269.40997692003],
      "ImageType": [
        "ORIGINAL",
        "PRIMARY",
        "M",
        "MB",
        "ND",
        "MOSAIC"
],
      "ImagedNucleus": "1H",
      "ImagingFrequency": 123.259148,
      "InPlanePhaseEncodingDirection": "COL",
      "MRAcquisitionType": "2D",
      "MagneticFieldStrength": 3.0,
      "Manufacturer": "SIEMENS",
      "ManufacturerModelName": "Prisma_fit",
      "Modality": "MR",
      "NumberOfAverages": 1.0,
      "NumberOfPhaseEncodingSteps": 104,
      "PercentPhaseFieldOfView": 100.0,
      "PercentSampling": 100.0,
      "PerformedProcedureStepStartTime": "102718.413000",
      "PhotometricInterpretation": "MONOCHROME2",
      "PixelBandwidth": 2290.0,
      "PixelRepresentation": 0,
      "PixelSpacing": [2.0, 2.0],
      "ProtocolName": "func_task-friends-s03e12b",
      "RepetitionTime": 1490.0,
      "Rows": 832,
      "SAR": 0.03121997433643,
      "SamplesPerPixel": 1,
      "ScanOptions": "FS",
      "ScanningSequence": "EP",
      "SequenceName": "epfid2d1_104",
      "SequenceVariant": [
        "SK",
        "SS"
],
      "SeriesDescription": "func_task-friends-s03e12b",
      "SeriesNumber": 14,
      "SeriesTime": "112224.559000",
      "SliceLocation": -49.363390177778,
      "SliceThickness": 2.0,
      "SmallestImagePixelValue": 0,
      "SoftwareVersions": "syngo MR E11",
      "SpacingBetweenSlices": 2.0000000473018,
      "SpecificCharacterSet": "ISO_IR 100",
      "StudyID": "1",
      "StudyTime": "102718.334000",
      "TransmitCoilName": "Body",
      "VariableFlipAngleFlag": "N",
      "WindowCenterWidthExplanation": "Algo1",
      "dBdt": 0.0},
    "slices": {}
  },
  "time": {
    "samples": {
      "AcquisitionNumber": [1, 2, 3, 4, 5, 6, 7, 8, 9, 10, 11, 12, 13, 14, 15, 16, 17, 18, 19, 20, 21, 22, 23, 24, 25, 26, 27, 28, 29, 30, 31, 32, 33, 34, 35, 36, 37, 38, 39, 40, 41, 42, 43, 44, 45, 46, 47, 48, 49, 50, 51, 52, 53, 54, 55, 56, 57, 58, 59, 60, 61, 62, 63, 64, 65, 66, 67, 68, 69, 70, 71, 72, 73, 74, 75, 76, 77, 78, 79, 80, 81, 82, 83, 84, 85, 86, 87, 88, 89, 90, 91, 92, 93, 94, 95, 96, 97, 98, 99, 100, 101, 102, 103, 104, 105, 106, 107, 108, 109, 110, 111, 112, 113, 114, 115, 116, 117, 118, 119, 120, 121, 122, 123, 124, 125, 126, 127, 128, 129, 130, 131, 132, 133, 134, 135, 136, 137, 138, 139, 140, 141, 142, 143, 144, 145, 146, 147, 148, 149, 150, 151, 152, 153, 154, 155, 156, 157, 158, 159, 160, 161, 162, 163, 164, 165, 166, 167, 168, 169, 170, 171, 172, 173, 174, 175, 176, 177, 178, 179, 180, 181, 182, 183, 184, 185, 186, 187, 188, 189, 190, 191, 192, 193, 194, 195, 196, 197, 198, 199, 200, 201, 202, 203, 204, 205, 206, 207, 208, 209, 210, 211, 212, 213, 214, 215, 216, 217, 218, 219, 220, 221, 222, 223, 224, 225, 226, 227, 228, 229, 230, 231, 232, 233, 234, 235, 236, 237, 238, 239, 240, 241, 242, 243, 244, 245, 246, 247, 248, 249, 250, 251, 252, 253, 254, 255, 256, 257, 258, 259, 260, 261, 262, 263, 264, 265, 266, 267, 268, 269, 270, 271, 272, 273, 274, 275, 276, 277, 278, 279, 280, 281, 282, 283, 284, 285, 286, 287, 288, 289, 290, 291, 292, 293, 294, 295, 296, 297, 298, 299, 300, 301, 302, 303, 304, 305, 306, 307, 308, 309, 310, 311, 312, 313, 314, 315, 316, 317, 318, 319, 320, 321, 322, 323, 324, 325, 326, 327, 328, 329, 330, 331, 332, 333, 334, 335, 336, 337, 338, 339, 340, 341, 342, 343, 344, 345, 346, 347, 348, 349, 350, 351, 352, 353, 354, 355, 356, 357, 358, 359, 360, 361, 362, 363, 364, 365, 366, 367, 368, 369, 370, 371, 372, 373, 374, 375, 376, 377, 378, 379, 380, 381, 382, 383, 384, 385, 386, 387, 388, 389, 390, 391, 392, 393, 394, 395, 396, 397, 398, 399, 400, 401, 402, 403, 404, 405, 406, 407, 408, 409, 410, 411, 412, 413, 414, 415, 416, 417, 418, 419, 420, 421, 422, 423, 424, 425, 426, 427, 428, 429, 430, 431, 432, 433, 434, 435, 436, 437, 438, 439, 440, 441, 442, 443, 444, 445, 446, 447, 448, 449, 450, 451, 452, 453, 454, 455, 456, 457, 458, 459, 460, 461, 462, 463, 464],
      "AcquisitionTime": ["112101.047500", "112102.537500", "112104.027500", "112105.517500", "112107.007500", "112108.497500", "112109.987500", "112111.477500", "112112.967500", "112114.457500", "112115.947500", "112117.437500", "112118.927500", "112120.417500", "112121.907500", "112123.397500", "112124.887500", "112126.377500", "112127.867500", "112129.357500", "112130.847500", "112132.337500", "112133.827500", "112135.317500", "112136.807500", "112138.297500", "112139.787500", "112141.277500", "112142.767500", "112144.257500", "112145.747500", "112147.237500", "112148.727500", "112150.217500", "112151.707500", "112153.197500", "112154.687500", "112156.177500", "112157.667500", "112159.157500", "112200.647500", "112202.137500", "112203.627500", "112205.117500", "112206.607500", "112208.097500", "112209.587500", "112211.077500", "112212.567500", "112214.057500", "112215.547500", "112217.037500", "112218.527500", "112220.017500", "112221.507500", "112222.997500", "112224.487500", "112225.977500", "112227.467500", "112228.957500", "112230.447500", "112231.937500", "112233.427500", "112234.917500", "112236.407500", "112237.897500", "112239.387500", "112240.877500", "112242.367500", "112243.857500", "112245.347500", "112246.837500", "112248.327500", "112249.817500", "112251.307500", "112252.797500", "112254.287500", "112255.777500", "112257.267500", "112258.757500", "112300.247500", "112301.737500", "112303.227500", "112304.717500", "112306.207500", "112307.697500", "112309.187500", "112310.677500", "112312.167500", "112313.657500", "112315.147500", "112316.637500", "112318.127500", "112319.617500", "112321.107500", "112322.597500", "112324.087500", "112325.577500", "112327.067500", "112328.557500", "112330.047500", "112331.537500", "112333.027500", "112334.517500", "112336.007500", "112337.497500", "112338.987500", "112340.477500", "112341.967500", "112343.457500", "112344.947500", "112346.437500", "112347.927500", "112349.417500", "112350.907500", "112352.397500", "112353.887500", "112355.377500", "112356.867500", "112358.357500", "112359.847500", "112401.337500", "112402.827500", "112404.317500", "112405.807500", "112407.297500", "112408.787500", "112410.277500", "112411.767500", "112413.257500", "112414.747500", "112416.237500", "112417.727500", "112419.217500", "112420.707500", "112422.197500", "112423.687500", "112425.177500", "112426.667500", "112428.157500", "112429.647500", "112431.137500", "112432.627500", "112434.117500", "112435.607500", "112437.097500", "112438.587500", "112440.077500", "112441.567500", "112443.057500", "112444.547500", "112446.037500", "112447.527500", "112449.017500", "112450.507500", "112451.997500", "112453.487500", "112454.977500", "112456.467500", "112457.957500", "112459.447500", "112500.937500", "112502.427500", "112503.917500", "112505.407500", "112506.897500", "112508.387500", "112509.877500", "112511.367500", "112512.857500", "112514.347500", "112515.837500", "112517.327500", "112518.817500", "112520.307500", "112521.797500", "112523.287500", "112524.777500", "112526.267500", "112527.757500", "112529.247500", "112530.737500", "112532.227500", "112533.717500", "112535.207500", "112536.697500", "112538.187500", "112539.677500", "112541.167500", "112542.657500", "112544.147500", "112545.637500", "112547.127500", "112548.617500", "112550.107500", "112551.597500", "112553.087500", "112554.577500", "112556.067500", "112557.557500", "112559.047500", "112600.537500", "112602.027500", "112603.517500", "112605.007500", "112606.497500", "112607.987500", "112609.477500", "112610.967500", "112612.457500", "112613.947500", "112615.437500", "112616.927500", "112618.417500", "112619.907500", "112621.397500", "112622.887500", "112624.377500", "112625.867500", "112627.357500", "112628.847500", "112630.337500", "112631.827500", "112633.317500", "112634.807500", "112636.297500", "112637.787500", "112639.277500", "112640.767500", "112642.257500", "112643.747500", "112645.237500", "112646.727500", "112648.217500", "112649.707500", "112651.197500", "112652.687500", "112654.177500", "112655.667500", "112657.157500", "112658.647500", "112700.137500", "112701.627500", "112703.117500", "112704.607500", "112706.097500", "112707.587500", "112709.077500", "112710.567500", "112712.057500", "112713.547500", "112715.037500", "112716.527500", "112718.017500", "112719.507500", "112720.997500", "112722.487500", "112723.977500", "112725.467500", "112726.957500", "112728.447500", "112729.937500", "112731.427500", "112732.917500", "112734.407500", "112735.897500", "112737.387500", "112738.877500", "112740.367500", "112741.857500", "112743.347500", "112744.837500", "112746.327500", "112747.817500", "112749.307500", "112750.797500", "112752.287500", "112753.777500", "112755.267500", "112756.757500", "112758.247500", "112759.737500", "112801.227500", "112802.717500", "112804.207500", "112805.697500", "112807.187500", "112808.677500", "112810.167500", "112811.657500", "112813.147500", "112814.637500", "112816.127500", "112817.617500", "112819.107500", "112820.597500", "112822.087500", "112823.577500", "112825.067500", "112826.557500", "112828.047500", "112829.537500", "112831.027500", "112832.517500", "112834.007500", "112835.497500", "112836.987500", "112838.477500", "112839.967500", "112841.457500", "112842.947500", "112844.437500", "112845.927500", "112847.417500", "112848.907500", "112850.397500", "112851.887500", "112853.377500", "112854.867500", "112856.357500", "112857.847500", "112859.337500", "112900.827500", "112902.317500", "112903.807500", "112905.297500", "112906.787500", "112908.277500", "112909.767500", "112911.257500", "112912.747500", "112914.237500", "112915.727500", "112917.217500", "112918.707500", "112920.197500", "112921.687500", "112923.177500", "112924.667500", "112926.157500", "112927.647500", "112929.137500", "112930.627500", "112932.117500", "112933.607500", "112935.097500", "112936.587500", "112938.077500", "112939.567500", "112941.057500", "112942.547500", "112944.037500", "112945.527500", "112947.017500", "112948.507500", "112949.997500", "112951.487500", "112952.977500", "112954.467500", "112955.957500", "112957.447500", "112958.937500", "113000.427500", "113001.917500", "113003.407500", "113004.897500", "113006.387500", "113007.877500", "113009.367500", "113010.857500", "113012.347500", "113013.837500", "113015.327500", "113016.817500", "113018.307500", "113019.797500", "113021.287500", "113022.777500", "113024.267500", "113025.757500", "113027.247500", "113028.737500", "113030.227500", "113031.717500", "113033.207500", "113034.697500", "113036.187500", "113037.677500", "113039.167500", "113040.657500", "113042.147500", "113043.637500", "113045.127500", "113046.617500", "113048.107500", "113049.597500", "113051.087500", "113052.577500", "113054.067500", "113055.557500", "113057.047500", "113058.537500", "113100.027500", "113101.517500", "113103.007500", "113104.497500", "113105.987500", "113107.477500", "113108.967500", "113110.457500", "113111.947500", "113113.437500", "113114.927500", "113116.417500", "113117.907500", "113119.397500", "113120.887500", "113122.377500", "113123.867500", "113125.357500", "113126.847500", "113128.337500", "113129.827500", "113131.317500", "113132.807500", "113134.297500", "113135.787500", "113137.277500", "113138.767500", "113140.257500", "113141.747500", "113143.237500", "113144.727500", "113146.217500", "113147.707500", "113149.197500", "113150.687500", "113152.177500", "113153.667500", "113155.157500", "113156.647500", "113158.137500", "113159.627500", "113201.117500", "113202.607500", "113204.097500", "113205.587500", "113207.077500", "113208.567500", "113210.057500", "113211.547500", "113213.037500", "113214.527500", "113216.017500", "113217.507500", "113218.997500", "113220.487500", "113221.977500", "113223.467500", "113224.957500", "113226.447500", "113227.937500", "113229.427500", "113230.917500"],
      "ContentTime": ["112224.561000", "112224.565000", "112224.568000", "112224.571000", "112224.573000", "112224.576000", "112224.579000", "112224.582000", "112224.585000", "112224.588000", "112224.591000", "112224.594000", "112224.602000", "112224.606000", "112224.609000", "112224.612000", "112224.615000", "112224.618000", "112224.621000", "112224.624000", "112224.627000", "112224.630000", "112224.632000", "112224.635000", "112224.638000", "112224.653000", "112224.656000", "112224.659000", "112244.532000", "112244.535000", "112244.538000", "112244.540000", "112244.543000", "112244.546000", "112244.549000", "112244.552000", "112244.555000", "112244.558000", "112244.560000", "112244.563000", "112244.566000", "112244.569000", "112244.572000", "112244.575000", "112244.578000", "112244.581000", "112244.583000", "112244.586000", "112244.589000", "112304.532000", "112304.535000", "112304.538000", "112304.541000", "112304.543000", "112304.546000", "112304.549000", "112304.552000", "112304.555000", "112304.558000", "112304.562000", "112304.565000", "112304.567000", "112304.570000", "112304.573000", "112304.576000", "112304.579000", "112304.582000", "112304.585000", "112304.587000", "112324.533000", "112324.536000", "112324.539000", "112324.542000", "112324.544000", "112324.547000", "112324.550000", "112324.553000", "112324.556000", "112324.559000", "112324.561000", "112324.564000", "112324.567000", "112324.570000", "112324.573000", "112324.576000", "112324.579000", "112324.581000", "112324.584000", "112324.587000", "112344.533000", "112344.536000", "112344.538000", "112344.542000", "112344.544000", "112344.547000", "112344.550000", "112344.553000", "112344.556000", "112344.559000", "112344.561000", "112344.564000", "112344.567000", "112344.570000", "112344.573000", "112344.576000", "112344.579000", "112344.582000", "112344.584000", "112344.587000", "112424.532000", "112424.535000", "112424.538000", "112424.541000", "112424.544000", "112424.547000", "112424.550000", "112424.553000", "112424.556000", "112424.559000", "112424.561000", "112424.564000", "112424.567000", "112424.570000", "112424.573000", "112424.576000", "112424.579000", "112424.582000", "112424.585000", "112424.588000", "112424.591000", "112424.594000", "112424.597000", "112424.600000", "112424.603000", "112424.606000", "112424.608000", "112504.532000", "112504.535000", "112504.538000", "112504.541000", "112504.544000", "112504.546000", "112504.550000", "112504.552000", "112504.555000", "112504.558000", "112504.561000", "112504.564000", "112504.567000", "112504.570000", "112504.573000", "112504.576000", "112504.578000", "112504.581000", "112504.584000", "112504.587000", "112504.591000", "112504.594000", "112504.597000", "112504.600000", "112504.603000", "112504.606000", "112544.533000", "112544.536000", "112544.539000", "112544.542000", "112544.544000", "112544.547000", "112544.550000", "112544.553000", "112544.556000", "112544.559000", "112544.562000", "112544.565000", "112544.568000", "112544.571000", "112544.574000", "112544.576000", "112544.579000", "112544.582000", "112544.585000", "112544.588000", "112544.591000", "112544.593000", "112544.596000", "112544.599000", "112544.602000", "112544.605000", "112544.612000", "112624.533000", "112624.544000", "112624.547000", "112624.549000", "112624.552000", "112624.555000", "112624.558000", "112624.561000", "112624.564000", "112624.567000", "112624.570000", "112624.573000", "112624.576000", "112624.579000", "112624.581000", "112624.584000", "112624.587000", "112624.590000", "112624.593000", "112624.596000", "112624.599000", "112624.602000", "112624.604000", "112624.607000", "112624.610000", "112624.613000", "112624.616000", "112704.532000", "112704.535000", "112704.538000", "112704.541000", "112704.544000", "112704.560000", "112704.563000", "112704.566000", "112704.569000", "112704.572000", "112704.575000", "112704.578000", "112704.581000", "112704.584000", "112704.586000", "112704.589000", "112704.592000", "112704.595000", "112704.598000", "112704.601000", "112704.604000", "112704.607000", "112704.609000", "112704.612000", "112704.615000", "112704.618000", "112704.621000", "112744.533000", "112744.536000", "112744.539000", "112744.542000", "112744.545000", "112744.547000", "112744.550000", "112744.553000", "112744.556000", "112744.559000", "112744.562000", "112744.565000", "112744.567000", "112744.570000", "112744.573000", "112744.576000", "112744.579000", "112744.582000", "112744.585000", "112744.588000", "112744.591000", "112744.593000", "112744.596000", "112744.599000", "112744.602000", "112744.605000", "112744.608000", "112824.533000", "112824.536000", "112824.539000", "112824.542000", "112824.544000", "112824.547000", "112824.550000", "112824.553000", "112824.556000", "112824.559000", "112824.562000", "112824.565000", "112824.567000", "112824.570000", "112824.573000", "112824.576000", "112824.579000", "112824.582000", "112824.585000", "112824.588000", "112824.590000", "112824.593000", "112824.596000", "112824.599000", "112824.602000", "112824.605000", "112824.608000", "112904.532000", "112904.535000", "112904.538000", "112904.541000", "112904.543000", "112904.547000", "112904.549000", "112904.552000", "112904.555000", "112904.558000", "112904.561000", "112904.564000", "112904.567000", "112904.570000", "112904.573000", "112904.575000", "112904.578000", "112904.581000", "112904.584000", "112904.587000", "112904.590000", "112904.593000", "112904.596000", "112904.598000", "112904.601000", "112904.604000", "112904.607000", "112944.532000", "112944.535000", "112944.538000", "112944.541000", "112944.544000", "112944.546000", "112944.549000", "112944.552000", "112944.555000", "112944.558000", "112944.561000", "112944.564000", "112944.567000", "112944.570000", "112944.572000", "112944.575000", "112944.578000", "112944.581000", "112944.585000", "112944.588000", "112944.591000", "112944.594000", "112944.597000", "112944.600000", "112944.603000", "112944.605000", "113024.533000", "113024.536000", "113024.539000", "113024.542000", "113024.545000", "113024.548000", "113024.551000", "113024.554000", "113024.556000", "113024.559000", "113024.562000", "113024.565000", "113024.568000", "113024.571000", "113024.574000", "113024.577000", "113024.580000", "113024.583000", "113024.586000", "113024.588000", "113024.591000", "113024.594000", "113024.597000", "113024.600000", "113024.603000", "113024.606000", "113024.609000", "113104.533000", "113104.536000", "113104.539000", "113104.542000", "113104.545000", "113104.548000", "113104.550000", "113104.553000", "113104.556000", "113104.559000", "113104.562000", "113104.565000", "113104.568000", "113104.571000", "113104.574000", "113104.577000", "113104.580000", "113104.582000", "113104.585000", "113104.588000", "113104.591000", "113104.594000", "113104.597000", "113104.600000", "113104.602000", "113104.605000", "113104.609000", "113144.532000", "113144.535000", "113144.538000", "113144.541000", "113144.544000", "113144.546000", "113144.549000", "113144.552000", "113144.555000", "113144.558000", "113144.561000", "113144.564000", "113144.567000", "113144.570000", "113144.572000", "113144.575000", "113144.578000", "113144.581000", "113144.584000", "113144.587000", "113144.590000", "113144.592000", "113144.595000", "113144.598000", "113144.601000", "113144.604000", "113144.607000", "113224.533000", "113224.536000", "113224.539000", "113224.542000", "113224.545000", "113224.547000", "113224.550000", "113224.553000", "113224.556000", "113224.559000", "113224.562000", "113224.565000", "113224.568000", "113224.571000", "113224.574000", "113224.577000", "113224.580000", "113224.582000", "113224.585000", "113224.588000", "113224.591000", "113224.594000", "113224.597000", "113224.600000", "113224.603000", "113224.606000", "113224.608000", "113233.133000", "113233.136000", "113233.139000", "113233.142000", "113233.145000", "113233.148000"],
