{
  "AcquisitionMatrixPE": 104,
  "AcquisitionNumber": 1,
  "AcquisitionTime": "14:00:53.980000",
  "BandwidthPerPixelPhaseEncode": 17.17,
  "BaseResolution": 104,
  "BodyPartExamined": "BRAIN",
  "CoilString": "HC1-7;NC1_2",
  "ConsistencyInfo": "N4_VE11C_LATEST_20160120",
  "ConversionSoftware": "dcm2niix",
  "ConversionSoftwareVersion": "v1.0.20190902",
  "DerivedVendorReportedEchoSpacing": 0.000560011,
  "DeviceSerialNumber": "167006",
  "DwellTime": 2.1e-06,
  "EchoTime": 0.037,
  "EchoTrainLength": 104,
  "EffectiveEchoSpacing": 0.000560011,
  "FlipAngle": 52,
  "ImageComments": "Unaliased_MB4_PE3_LB",
  "ImageOrientationPatientDICOM": [0.999975, -0.00120998, 0.00690794, 0.00453771, 0.862658, -0.505767],
  "ImageType": [
    "ORIGINAL",
    "PRIMARY",
    "M",
    "MB",
    "ND",
    "MOSAIC"
],
  "ImagingFrequency": 123.259,
  "InPlanePhaseEncodingDirectionDICOM": "COL",
  "InstitutionAddress": "Chemin_Queen-Mary_4565_Montreal_District_CA_H3W_1W5",
  "InstitutionName": "IUGM",
  "InstitutionalDepartmentName": "Department",
  "MRAcquisitionType": "2D",
  "MagneticFieldStrength": 3,
  "Manufacturer": "Siemens",
  "ManufacturersModelName": "Prisma_fit",
  "Modality": "MR",
  "MultibandAccelerationFactor": 4,
  "PartialFourier": 1,
  "PatientPosition": "HFS",
  "PercentPhaseFOV": 100,
  "PhaseEncodingDirection": "j",
  "PhaseEncodingSteps": 104,
  "PhaseResolution": 1,
  "PixelBandwidth": 2290,
  "ProcedureStepDescription": "video_friends",
  "ProtocolName": "func_task-friends-s05e21b",
  "PulseSequenceDetails": "%CustomerSeq%_cmrr_mbep2d_bold",
  "ReceiveCoilActiveElements": "HC1-7;NC1,2",
  "ReceiveCoilName": "HeadNeck_64",
  "ReconMatrixPE": 104,
  "RepetitionTime": 1.49,
  "SAR": 0.0393904,
  "ScanOptions": "FS",
  "ScanningSequence": "EP",
  "SequenceName": "epfid2d1_104",
  "SequenceVariant": "SK_SS",
  "SeriesDescription": "func_task-friends-s05e21b",
  "SeriesNumber": 11,
  "ShimSetting": [628, -7199, -8872, 410, -25, -204, -16, -12],
  "SliceThickness": 2,
  "SliceTiming": [0, 0.785, 0.0975, 0.8825, 0.195, 0.98, 0.295, 1.0775, 0.3925, 1.175, 0.49, 1.275, 0.5875, 1.3725, 0.685, 0, 0.785, 0.0975, 0.8825, 0.195, 0.98, 0.295, 1.0775, 0.3925, 1.175, 0.49, 1.275, 0.5875, 1.3725, 0.685, 0, 0.785, 0.0975, 0.8825, 0.195, 0.98, 0.295, 1.0775, 0.3925, 1.175, 0.49, 1.275, 0.5875, 1.3725, 0.685, 0, 0.785, 0.0975, 0.8825, 0.195, 0.98, 0.295, 1.0775, 0.3925, 1.175, 0.49, 1.275, 0.5875, 1.3725, 0.685],
  "SoftwareVersions": "syngo_MR_E11",
  "SpacingBetweenSlices": 2,
  "StationName": "MRC35049",
  "TaskName": "s05e21b",
  "TotalReadoutTime": 0.0576811,
  "TxRefAmp": 249.75,
  "WipMemBlock": "83663e6f-f104-4c1f-9880-41b062ef98a3||Sequence: R016 ve11c/master r/e634e98; Dec 19 2017 11:00:25 by eja",
  "dcmmeta_affine": [
    [-1.9999507665634155, 0.009075428359210491, 0.010694454424083233, 102.4235610961914],
    [0.0024199539329856634, 1.7253168821334839, -1.0115710496902466, -60.6043586730957],
    [0.013815880753099918, 1.011533260345459, 1.7252854108810425, -102.2707290649414],
    [0.0, 0.0, 0.0, 1.0]
],
  "dcmmeta_reorient_transform": [
    [0.0, -1.0, 0.0, 103.0],
    [1.0, 0.0, 0.0, 0.0],
    [0.0, 0.0, 1.0, 0.0],
    [0.0, 0.0, 0.0, 1.0]
],
  "dcmmeta_shape": [104, 104, 60, 478],
  "dcmmeta_slice_dim": 2,
  "dcmmeta_version": 0.6,
  "global": {
    "const": {
      "AcquisitionMatrix": [104, 0, 0, 104],
      "AngioFlag": "N",
      "BitsAllocated": 16,
      "BitsStored": 16,
      "BodyPartExamined": "BRAIN",
      "Columns": 832,
      "EchoNumbers": 1,
      "EchoTime": 37.0,
      "EchoTrainLength": 104,
      "FlipAngle": 52.0,
      "HighBit": 15,
      "ImageOrientationPatient": [0.99997540785402, -0.0012099769157, 0.00690794057918, 0.00453771401655, 0.86265842092625, -0.5057666042322],
      "ImagePositionPatient": [-834.64388514877, -744.23774160147, 365.08630064586],
      "ImageType": [
        "ORIGINAL",
        "PRIMARY",
        "M",
        "MB",
        "ND",
        "MOSAIC"
],
      "ImagedNucleus": "1H",
      "ImagingFrequency": 123.258978,
      "InPlanePhaseEncodingDirection": "COL",
      "MRAcquisitionType": "2D",
      "MagneticFieldStrength": 3.0,
      "Manufacturer": "SIEMENS",
      "ManufacturerModelName": "Prisma_fit",
      "Modality": "MR",
      "NumberOfAverages": 1.0,
      "NumberOfPhaseEncodingSteps": 104,
      "PercentPhaseFieldOfView": 100.0,
      "PercentSampling": 100.0,
      "PerformedProcedureStepStartTime": "132941.077000",
      "PhotometricInterpretation": "MONOCHROME2",
      "PixelBandwidth": 2290.0,
      "PixelRepresentation": 0,
      "PixelSpacing": [2.0, 2.0],
      "ProtocolName": "func_task-friends-s05e21b",
      "RepetitionTime": 1490.0,
      "Rows": 832,
      "SAR": 0.03939042288352,
      "SamplesPerPixel": 1,
      "ScanOptions": "FS",
      "ScanningSequence": "EP",
      "SequenceName": "epfid2d1_104",
      "SequenceVariant": [
        "SK",
        "SS"
],
      "SeriesDescription": "func_task-friends-s05e21b",
      "SeriesNumber": 11,
      "SeriesTime": "140206.505000",
      "SliceLocation": -57.022606187903,
      "SliceThickness": 2.0,
      "SmallestImagePixelValue": 0,
      "SoftwareVersions": "syngo MR E11",
      "SpacingBetweenSlices": 2.0000000292452,
      "SpecificCharacterSet": "ISO_IR 100",
      "StudyID": "1",
      "StudyTime": "132940.989000",
      "TransmitCoilName": "Body",
      "VariableFlipAngleFlag": "N",
      "WindowCenterWidthExplanation": "Algo1",
      "dBdt": 0.0},
    "slices": {}
  },
  "time": {
    "samples": {
      "AcquisitionNumber": [1, 2, 3, 4, 5, 6, 7, 8, 9, 10, 11, 12, 13, 14, 15, 16, 17, 18, 19, 20, 21, 22, 23, 24, 25, 26, 27, 28, 29, 30, 31, 32, 33, 34, 35, 36, 37, 38, 39, 40, 41, 42, 43, 44, 45, 46, 47, 48, 49, 50, 51, 52, 53, 54, 55, 56, 57, 58, 59, 60, 61, 62, 63, 64, 65, 66, 67, 68, 69, 70, 71, 72, 73, 74, 75, 76, 77, 78, 79, 80, 81, 82, 83, 84, 85, 86, 87, 88, 89, 90, 91, 92, 93, 94, 95, 96, 97, 98, 99, 100, 101, 102, 103, 104, 105, 106, 107, 108, 109, 110, 111, 112, 113, 114, 115, 116, 117, 118, 119, 120, 121, 122, 123, 124, 125, 126, 127, 128, 129, 130, 131, 132, 133, 134, 135, 136, 137, 138, 139, 140, 141, 142, 143, 144, 145, 146, 147, 148, 149, 150, 151, 152, 153, 154, 155, 156, 157, 158, 159, 160, 161, 162, 163, 164, 165, 166, 167, 168, 169, 170, 171, 172, 173, 174, 175, 176, 177, 178, 179, 180, 181, 182, 183, 184, 185, 186, 187, 188, 189, 190, 191, 192, 193, 194, 195, 196, 197, 198, 199, 200, 201, 202, 203, 204, 205, 206, 207, 208, 209, 210, 211, 212, 213, 214, 215, 216, 217, 218, 219, 220, 221, 222, 223, 224, 225, 226, 227, 228, 229, 230, 231, 232, 233, 234, 235, 236, 237, 238, 239, 240, 241, 242, 243, 244, 245, 246, 247, 248, 249, 250, 251, 252, 253, 254, 255, 256, 257, 258, 259, 260, 261, 262, 263, 264, 265, 266, 267, 268, 269, 270, 271, 272, 273, 274, 275, 276, 277, 278, 279, 280, 281, 282, 283, 284, 285, 286, 287, 288, 289, 290, 291, 292, 293, 294, 295, 296, 297, 298, 299, 300, 301, 302, 303, 304, 305, 306, 307, 308, 309, 310, 311, 312, 313, 314, 315, 316, 317, 318, 319, 320, 321, 322, 323, 324, 325, 326, 327, 328, 329, 330, 331, 332, 333, 334, 335, 336, 337, 338, 339, 340, 341, 342, 343, 344, 345, 346, 347, 348, 349, 350, 351, 352, 353, 354, 355, 356, 357, 358, 359, 360, 361, 362, 363, 364, 365, 366, 367, 368, 369, 370, 371, 372, 373, 374, 375, 376, 377, 378, 379, 380, 381, 382, 383, 384, 385, 386, 387, 388, 389, 390, 391, 392, 393, 394, 395, 396, 397, 398, 399, 400, 401, 402, 403, 404, 405, 406, 407, 408, 409, 410, 411, 412, 413, 414, 415, 416, 417, 418, 419, 420, 421, 422, 423, 424, 425, 426, 427, 428, 429, 430, 431, 432, 433, 434, 435, 436, 437, 438, 439, 440, 441, 442, 443, 444, 445, 446, 447, 448, 449, 450, 451, 452, 453, 454, 455, 456, 457, 458, 459, 460, 461, 462, 463, 464, 465, 466, 467, 468, 469, 470, 471, 472, 473, 474, 475, 476, 477, 478],
      "AcquisitionTime": ["140053.980000", "140055.470000", "140056.960000", "140058.450000", "140059.940000", "140101.430000", "140102.920000", "140104.410000", "140105.900000", "140107.390000", "140108.880000", "140110.370000", "140111.860000", "140113.350000", "140114.840000", "140116.330000", "140117.820000", "140119.310000", "140120.800000", "140122.290000", "140123.780000", "140125.270000", "140126.760000", "140128.250000", "140129.740000", "140131.230000", "140132.720000", "140134.210000", "140135.700000", "140137.190000", "140138.680000", "140140.170000", "140141.660000", "140143.150000", "140144.640000", "140146.130000", "140147.620000", "140149.110000", "140150.600000", "140152.090000", "140153.580000", "140155.070000", "140156.560000", "140158.050000", "140159.540000", "140201.030000", "140202.520000", "140204.010000", "140205.500000", "140206.990000", "140208.480000", "140209.970000", "140211.460000", "140212.950000", "140214.440000", "140215.930000", "140217.420000", "140218.910000", "140220.400000", "140221.890000", "140223.380000", "140224.870000", "140226.360000", "140227.850000", "140229.340000", "140230.830000", "140232.320000", "140233.810000", "140235.300000", "140236.790000", "140238.280000", "140239.770000", "140241.260000", "140242.750000", "140244.240000", "140245.730000", "140247.220000", "140248.710000", "140250.200000", "140251.690000", "140253.180000", "140254.670000", "140256.160000", "140257.650000", "140259.140000", "140300.630000", "140302.120000", "140303.610000", "140305.100000", "140306.590000", "140308.080000", "140309.570000", "140311.060000", "140312.550000", "140314.040000", "140315.530000", "140317.020000", "140318.510000", "140320.000000", "140321.490000", "140322.980000", "140324.470000", "140325.960000", "140327.450000", "140328.940000", "140330.430000", "140331.920000", "140333.410000", "140334.900000", "140336.390000", "140337.880000", "140339.370000", "140340.860000", "140342.350000", "140343.840000", "140345.330000", "140346.820000", "140348.310000", "140349.800000", "140351.290000", "140352.780000", "140354.270000", "140355.760000", "140357.250000", "140358.740000", "140400.230000", "140401.720000", "140403.210000", "140404.700000", "140406.190000", "140407.680000", "140409.170000", "140410.660000", "140412.150000", "140413.640000", "140415.130000", "140416.620000", "140418.110000", "140419.600000", "140421.090000", "140422.580000", "140424.070000", "140425.560000", "140427.050000", "140428.540000", "140430.030000", "140431.520000", "140433.010000", "140434.500000", "140435.990000", "140437.480000", "140438.970000", "140440.460000", "140441.950000", "140443.440000", "140444.930000", "140446.420000", "140447.910000", "140449.400000", "140450.890000", "140452.380000", "140453.870000", "140455.360000", "140456.850000", "140458.340000", "140459.830000", "140501.320000", "140502.810000", "140504.300000", "140505.790000", "140507.280000", "140508.770000", "140510.260000", "140511.750000", "140513.240000", "140514.730000", "140516.220000", "140517.710000", "140519.200000", "140520.690000", "140522.180000", "140523.670000", "140525.160000", "140526.650000", "140528.140000", "140529.630000", "140531.120000", "140532.610000", "140534.100000", "140535.590000", "140537.080000", "140538.570000", "140540.060000", "140541.550000", "140543.040000", "140544.530000", "140546.020000", "140547.510000", "140549.000000", "140550.490000", "140551.980000", "140553.470000", "140554.960000", "140556.450000", "140557.940000", "140559.430000", "140600.920000", "140602.410000", "140603.900000", "140605.390000", "140606.880000", "140608.370000", "140609.860000", "140611.350000", "140612.840000", "140614.330000", "140615.820000", "140617.310000", "140618.800000", "140620.290000", "140621.780000", "140623.270000", "140624.760000", "140626.250000", "140627.740000", "140629.230000", "140630.720000", "140632.210000", "140633.700000", "140635.190000", "140636.680000", "140638.170000", "140639.660000", "140641.150000", "140642.640000", "140644.130000", "140645.620000", "140647.110000", "140648.600000", "140650.090000", "140651.580000", "140653.070000", "140654.560000", "140656.050000", "140657.540000", "140659.030000", "140700.520000", "140702.010000", "140703.500000", "140704.990000", "140706.480000", "140707.970000", "140709.460000", "140710.950000", "140712.440000", "140713.930000", "140715.420000", "140716.910000", "140718.400000", "140719.890000", "140721.380000", "140722.870000", "140724.360000", "140725.850000", "140727.340000", "140728.830000", "140730.320000", "140731.810000", "140733.300000", "140734.790000", "140736.280000", "140737.770000", "140739.260000", "140740.750000", "140742.240000", "140743.730000", "140745.220000", "140746.710000", "140748.200000", "140749.690000", "140751.180000", "140752.670000", "140754.160000", "140755.650000", "140757.140000", "140758.630000", "140800.120000", "140801.610000", "140803.100000", "140804.590000", "140806.080000", "140807.570000", "140809.060000", "140810.550000", "140812.040000", "140813.530000", "140815.020000", "140816.510000", "140818.000000", "140819.490000", "140820.980000", "140822.470000", "140823.960000", "140825.450000", "140826.940000", "140828.430000", "140829.920000", "140831.410000", "140832.900000", "140834.390000", "140835.880000", "140837.370000", "140838.860000", "140840.350000", "140841.840000", "140843.330000", "140844.820000", "140846.310000", "140847.800000", "140849.290000", "140850.780000", "140852.270000", "140853.760000", "140855.250000", "140856.740000", "140858.230000", "140859.720000", "140901.210000", "140902.700000", "140904.190000", "140905.680000", "140907.170000", "140908.660000", "140910.150000", "140911.640000", "140913.130000", "140914.620000", "140916.110000", "140917.600000", "140919.090000", "140920.580000", "140922.070000", "140923.560000", "140925.050000", "140926.540000", "140928.030000", "140929.520000", "140931.010000", "140932.500000", "140933.990000", "140935.480000", "140936.970000", "140938.460000", "140939.950000", "140941.440000", "140942.930000", "140944.420000", "140945.910000", "140947.400000", "140948.890000", "140950.380000", "140951.870000", "140953.360000", "140954.850000", "140956.340000", "140957.830000", "140959.320000", "141000.810000", "141002.300000", "141003.790000", "141005.280000", "141006.770000", "141008.260000", "141009.750000", "141011.240000", "141012.730000", "141014.220000", "141015.710000", "141017.200000", "141018.690000", "141020.180000", "141021.670000", "141023.160000", "141024.650000", "141026.140000", "141027.630000", "141029.120000", "141030.610000", "141032.100000", "141033.590000", "141035.080000", "141036.570000", "141038.060000", "141039.550000", "141041.040000", "141042.530000", "141044.020000", "141045.510000", "141047.000000", "141048.490000", "141049.980000", "141051.470000", "141052.960000", "141054.450000", "141055.940000", "141057.430000", "141058.920000", "141100.410000", "141101.900000", "141103.390000", "141104.880000", "141106.370000", "141107.860000", "141109.350000", "141110.840000", "141112.330000", "141113.820000", "141115.310000", "141116.800000", "141118.290000", "141119.780000", "141121.270000", "141122.760000", "141124.250000", "141125.740000", "141127.230000", "141128.720000", "141130.210000", "141131.700000", "141133.190000", "141134.680000", "141136.170000", "141137.660000", "141139.150000", "141140.640000", "141142.130000", "141143.620000", "141145.110000", "141146.600000", "141148.090000", "141149.580000", "141151.070000", "141152.560000", "141154.050000", "141155.540000", "141157.030000", "141158.520000", "141200.010000", "141201.500000", "141202.990000", "141204.480000", "141205.970000", "141207.460000", "141208.950000", "141210.440000", "141211.930000", "141213.420000", "141214.910000", "141216.400000", "141217.890000", "141219.380000", "141220.870000", "141222.360000", "141223.850000", "141225.340000", "141226.830000", "141228.320000", "141229.810000", "141231.300000", "141232.790000", "141234.280000", "141235.770000", "141237.260000", "141238.750000", "141240.240000", "141241.730000", "141243.220000", "141244.710000"],
      "ContentTime": ["140206.508000", "140206.511000", "140206.520000", "140206.523000", "140206.526000", "140206.528000", "140206.531000", "140206.534000", "140206.537000", "140206.540000", "140206.543000", "140206.546000", "140206.548000", "140206.551000", "140206.554000", "140206.557000", "140226.476000", "140226.479000", "140226.482000", "140226.485000", "140226.488000", "140226.491000", "140226.494000", "140226.497000", "140226.500000", "140226.502000", "140226.505000", "140226.508000", "140226.511000", "140226.514000", "140226.517000", "140226.520000", "140226.523000", "140226.525000", "140226.530000", "140226.532000", "140226.535000", "140246.475000", "140246.478000", "140246.481000", "140246.484000", "140246.487000", "140246.490000", "140246.493000", "140246.496000", "140246.498000", "140246.539000", "140246.542000", "140246.549000", "140246.552000", "140246.555000", "140246.558000", "140246.562000", "140246.564000", "140246.567000", "140246.570000", "140246.573000", "140306.475000", "140306.478000", "140306.481000", "140306.483000", "140306.486000", "140306.489000", "140306.492000", "140306.495000", "140306.498000", "140306.501000", "140306.504000", "140306.507000", "140306.510000", "140306.513000", "140306.516000", "140306.519000", "140306.521000", "140306.524000", "140306.527000", "140306.530000", "140326.486000", "140326.489000", "140326.492000", "140326.494000", "140326.497000", "140326.500000", "140326.503000", "140326.506000", "140326.509000", "140326.512000", "140326.514000", "140326.517000", "140326.520000", "140326.523000", "140326.526000", "140326.529000", "140326.532000", "140326.535000", "140326.537000", "140326.540000", "140406.476000", "140406.479000", "140406.482000", "140406.485000", "140406.488000", "140406.490000", "140406.493000", "140406.496000", "140406.499000", "140406.507000", "140406.510000", "140406.513000", "140406.515000", "140406.518000", "140406.521000", "140406.524000", "140406.527000", "140406.530000", "140406.533000", "140406.535000", "140406.538000", "140406.541000", "140406.544000", "140406.547000", "140406.550000", "140406.553000", "140406.556000", "140406.559000", "140406.561000", "140406.564000", "140406.567000", "140446.476000", "140446.479000", "140446.482000", "140446.485000", "140446.488000", "140446.491000", "140446.493000", "140446.496000", "140446.499000", "140446.502000", "140446.505000", "140446.508000", "140446.511000", "140446.514000", "140446.517000", "140446.519000", "140446.523000", "140446.526000", "140446.529000", "140446.540000", "140446.543000", "140446.546000", "140446.549000", "140446.551000", "140446.554000", "140446.557000", "140446.560000", "140526.475000", "140526.478000", "140526.481000", "140526.484000", "140526.487000", "140526.496000", "140526.498000", "140526.501000", "140526.504000", "140526.507000", "140526.510000", "140526.513000", "140526.516000", "140526.518000", "140526.521000", "140526.524000", "140526.527000", "140526.530000", "140526.533000", "140526.536000", "140526.539000", "140526.542000", "140526.544000", "140526.547000", "140526.550000", "140526.553000", "140526.556000", "140606.475000", "140606.478000", "140606.481000", "140606.484000", "140606.487000", "140606.490000", "140606.493000", "140606.495000", "140606.498000", "140606.501000", "140606.504000", "140606.507000", "140606.510000", "140606.513000", "140606.516000", "140606.518000", "140606.521000", "140606.524000", "140606.527000", "140606.530000", "140606.533000", "140606.536000", "140606.539000", "140606.541000", "140606.544000", "140606.547000", "140606.550000", "140646.476000", "140646.479000", "140646.482000", "140646.485000", "140646.488000", "140646.491000", "140646.493000", "140646.496000", "140646.499000", "140646.502000", "140646.505000", "140646.509000", "140646.512000", "140646.515000", "140646.518000", "140646.521000", "140646.524000", "140646.527000", "140646.530000", "140646.532000", "140646.535000", "140646.538000", "140646.541000", "140646.544000", "140646.547000", "140646.550000", "140726.475000", "140726.478000", "140726.481000", "140726.484000", "140726.487000", "140726.490000", "140726.493000", "140726.495000", "140726.498000", "140726.501000", "140726.504000", "140726.507000", "140726.510000", "140726.513000", "140726.516000", "140726.519000", "140726.522000", "140726.524000", "140726.527000", "140726.530000", "140726.533000", "140726.536000", "140726.539000", "140726.542000", "140726.545000", "140726.559000", "140726.562000", "140806.475000", "140806.478000", "140806.481000", "140806.484000", "140806.487000", "140806.490000", "140806.492000", "140806.495000", "140806.498000", "140806.501000", "140806.504000", "140806.507000", "140806.510000", "140806.513000", "140806.516000", "140806.519000", "140806.521000", "140806.524000", "140806.527000", "140806.530000", "140806.533000", "140806.536000", "140806.539000", "140806.542000", "140806.545000", "140806.548000", "140806.551000", "140846.476000", "140846.479000", "140846.482000", "140846.485000", "140846.488000", "140846.491000", "140846.493000", "140846.496000", "140846.499000", "140846.502000", "140846.505000", "140846.508000", "140846.511000", "140846.514000", "140846.517000", "140846.519000", "140846.522000", "140846.525000", "140846.528000", "140846.531000", "140846.534000", "140846.537000", "140846.540000", "140846.542000", "140846.545000", "140846.548000", "140846.551000", "140926.476000", "140926.479000", "140926.482000", "140926.485000", "140926.488000", "140926.491000", "140926.494000", "140926.497000", "140926.501000", "140926.504000", "140926.507000", "140926.510000", "140926.512000", "140926.515000", "140926.518000", "140926.521000", "140926.524000", "140926.527000", "140926.530000", "140926.533000", "140926.536000", "140926.538000", "140926.541000", "140926.544000", "140926.547000", "140926.550000", "140926.553000", "141006.475000", "141006.478000", "141006.481000", "141006.484000", "141006.487000", "141006.490000", "141006.493000", "141006.495000", "141006.498000", "141006.501000", "141006.504000", "141006.507000", "141006.510000", "141006.513000", "141006.516000", "141006.519000", "141006.522000", "141006.524000", "141006.527000", "141006.530000", "141006.533000", "141006.536000", "141006.539000", "141006.542000", "141006.545000", "141006.548000", "141006.551000", "141046.475000", "141046.478000", "141046.481000", "141046.484000", "141046.487000", "141046.490000", "141046.493000", "141046.495000", "141046.498000", "141046.501000", "141046.504000", "141046.507000", "141046.510000", "141046.513000", "141046.516000", "141046.519000", "141046.522000", "141046.526000", "141046.529000", "141046.532000", "141046.535000", "141046.538000", "141046.541000", "141046.544000", "141046.547000", "141046.549000", "141106.476000", "141106.479000", "141106.482000", "141106.485000", "141106.488000", "141106.491000", "141106.494000", "141106.497000", "141106.517000", "141106.520000", "141106.523000", "141106.526000", "141106.529000", "141106.531000", "141146.476000", "141146.479000", "141146.482000", "141146.485000", "141146.488000", "141146.491000", "141146.494000", "141146.497000", "141146.499000", "141146.502000", "141146.505000", "141146.508000", "141146.511000", "141146.514000", "141146.517000", "141146.520000", "141146.523000", "141146.526000", "141146.528000", "141146.531000", "141146.534000", "141146.537000", "141146.540000", "141146.543000", "141146.546000", "141146.549000", "141146.552000", "141226.475000", "141226.478000", "141226.481000", "141226.484000", "141226.487000", "141226.490000", "141226.493000", "141226.510000", "141226.513000", "141226.516000", "141226.519000", "141226.522000", "141226.525000", "141226.528000", "141226.531000", "141226.534000", "141226.537000", "141226.612000", "141226.615000", "141226.618000", "141226.621000", "141226.624000", "141226.627000", "141226.630000", "141226.633000", "141226.636000", "141226.639000", "141247.276000", "141247.279000", "141247.282000", "141247.285000", "141247.288000", "141247.291000", "141247.294000", "141247.297000", "141247.300000", "141247.303000", "141247.306000", "141247.309000", "141247.312000", "141247.315000"],
