{
  "AcquisitionMatrixPE": 104,
  "AcquisitionNumber": 1,
  "AcquisitionTime": "14:13:15.397500",
  "BandwidthPerPixelPhaseEncode": 17.17,
  "BaseResolution": 104,
  "BodyPartExamined": "BRAIN",
  "CoilString": "HC1-7;NC1_2",
  "ConsistencyInfo": "N4_VE11C_LATEST_20160120",
  "ConversionSoftware": "dcm2niix",
  "ConversionSoftwareVersion": "v1.0.20190902",
  "DerivedVendorReportedEchoSpacing": 0.000560011,
  "DeviceSerialNumber": "167006",
  "DwellTime": 2.1e-06,
  "EchoTime": 0.037,
  "EchoTrainLength": 104,
  "EffectiveEchoSpacing": 0.000560011,
  "FlipAngle": 52,
  "ImageComments": "Unaliased_MB4_PE3_LB",
  "ImageOrientationPatientDICOM": [0.999975, -0.00120998, 0.00690794, 0.00453771, 0.862658, -0.505767],
  "ImageType": [
    "ORIGINAL",
    "PRIMARY",
    "M",
    "MB",
    "ND",
    "MOSAIC"
],
  "ImagingFrequency": 123.259,
  "InPlanePhaseEncodingDirectionDICOM": "COL",
  "InstitutionAddress": "Chemin_Queen-Mary_4565_Montreal_District_CA_H3W_1W5",
  "InstitutionName": "IUGM",
  "InstitutionalDepartmentName": "Department",
  "MRAcquisitionType": "2D",
  "MagneticFieldStrength": 3,
  "Manufacturer": "Siemens",
  "ManufacturersModelName": "Prisma_fit",
  "Modality": "MR",
  "MultibandAccelerationFactor": 4,
  "PartialFourier": 1,
  "PatientPosition": "HFS",
  "PercentPhaseFOV": 100,
  "PhaseEncodingDirection": "j",
  "PhaseEncodingSteps": 104,
  "PhaseResolution": 1,
  "PixelBandwidth": 2290,
  "ProcedureStepDescription": "video_friends",
  "ProtocolName": "func_task-friends-s05e22a",
  "PulseSequenceDetails": "%CustomerSeq%_cmrr_mbep2d_bold",
  "ReceiveCoilActiveElements": "HC1-7;NC1,2",
  "ReceiveCoilName": "HeadNeck_64",
  "ReconMatrixPE": 104,
  "RepetitionTime": 1.49,
  "SAR": 0.0393803,
  "ScanOptions": "FS",
  "ScanningSequence": "EP",
  "SequenceName": "epfid2d1_104",
  "SequenceVariant": "SK_SS",
  "SeriesDescription": "func_task-friends-s05e22a",
  "SeriesNumber": 13,
  "ShimSetting": [628, -7199, -8872, 410, -25, -204, -16, -12],
  "SliceThickness": 2,
  "SliceTiming": [0, 0.7825, 0.0975, 0.8825, 0.195, 0.98, 0.2925, 1.0775, 0.3925, 1.175, 0.49, 1.2725, 0.5875, 1.3725, 0.685, 0, 0.7825, 0.0975, 0.8825, 0.195, 0.98, 0.2925, 1.0775, 0.3925, 1.175, 0.49, 1.2725, 0.5875, 1.3725, 0.685, 0, 0.7825, 0.0975, 0.8825, 0.195, 0.98, 0.2925, 1.0775, 0.3925, 1.175, 0.49, 1.2725, 0.5875, 1.3725, 0.685, 0, 0.7825, 0.0975, 0.8825, 0.195, 0.98, 0.2925, 1.0775, 0.3925, 1.175, 0.49, 1.2725, 0.5875, 1.3725, 0.685],
  "SoftwareVersions": "syngo_MR_E11",
  "SpacingBetweenSlices": 2,
  "StationName": "MRC35049",
  "TaskName": "s05e22a",
  "TotalReadoutTime": 0.0576811,
  "TxRefAmp": 249.75,
  "WipMemBlock": "5820a492-0ab7-43f9-96d2-2c4a6db93028||Sequence: R016 ve11c/master r/e634e98; Dec 19 2017 11:00:25 by eja",
  "dcmmeta_affine": [
    [-1.9999507665634155, 0.009075428359210491, 0.010694454424083233, 102.4235610961914],
    [0.0024199539329856634, 1.7253168821334839, -1.0115710496902466, -60.6043586730957],
    [0.013815880753099918, 1.011533260345459, 1.7252854108810425, -102.2707290649414],
    [0.0, 0.0, 0.0, 1.0]
],
  "dcmmeta_reorient_transform": [
    [0.0, -1.0, 0.0, 103.0],
    [1.0, 0.0, 0.0, 0.0],
    [0.0, 0.0, 1.0, 0.0],
    [0.0, 0.0, 0.0, 1.0]
],
  "dcmmeta_shape": [104, 104, 60, 450],
  "dcmmeta_slice_dim": 2,
  "dcmmeta_version": 0.6,
  "global": {
    "const": {
      "AcquisitionMatrix": [104, 0, 0, 104],
      "AngioFlag": "N",
      "BitsAllocated": 16,
      "BitsStored": 16,
      "BodyPartExamined": "BRAIN",
      "Columns": 832,
      "EchoNumbers": 1,
      "EchoTime": 37.0,
      "EchoTrainLength": 104,
      "FlipAngle": 52.0,
      "HighBit": 15,
      "ImageOrientationPatient": [0.99997540785402, -0.0012099769157, 0.00690794057918, 0.00453771401655, 0.86265842092625, -0.5057666042322],
      "ImagePositionPatient": [-834.64388514877, -744.23774160147, 365.08630064586],
      "ImageType": [
        "ORIGINAL",
        "PRIMARY",
        "M",
        "MB",
        "ND",
        "MOSAIC"
],
      "ImagedNucleus": "1H",
      "ImagingFrequency": 123.258988,
      "InPlanePhaseEncodingDirection": "COL",
      "MRAcquisitionType": "2D",
      "MagneticFieldStrength": 3.0,
      "Manufacturer": "SIEMENS",
      "ManufacturerModelName": "Prisma_fit",
      "Modality": "MR",
      "NumberOfAverages": 1.0,
      "NumberOfPhaseEncodingSteps": 104,
      "PercentPhaseFieldOfView": 100.0,
      "PercentSampling": 100.0,
      "PerformedProcedureStepStartTime": "132941.077000",
      "PhotometricInterpretation": "MONOCHROME2",
      "PixelBandwidth": 2290.0,
      "PixelRepresentation": 0,
      "PixelSpacing": [2.0, 2.0],
      "ProtocolName": "func_task-friends-s05e22a",
      "RepetitionTime": 1490.0,
      "Rows": 832,
      "SAR": 0.03938029957718,
      "SamplesPerPixel": 1,
      "ScanOptions": "FS",
      "ScanningSequence": "EP",
      "SequenceName": "epfid2d1_104",
      "SequenceVariant": [
        "SK",
        "SS"
],
      "SeriesDescription": "func_task-friends-s05e22a",
      "SeriesNumber": 13,
      "SeriesTime": "141444.786000",
      "SliceLocation": -57.022606187903,
      "SliceThickness": 2.0,
      "SmallestImagePixelValue": 0,
      "SoftwareVersions": "syngo MR E11",
      "SpacingBetweenSlices": 2.0000000292452,
      "SpecificCharacterSet": "ISO_IR 100",
      "StudyID": "1",
      "StudyTime": "132940.989000",
      "TransmitCoilName": "Body",
      "VariableFlipAngleFlag": "N",
      "WindowCenterWidthExplanation": "Algo1",
      "dBdt": 0.0},
    "slices": {}
  },
  "time": {
    "samples": {
      "AcquisitionNumber": [1, 2, 3, 4, 5, 6, 7, 8, 9, 10, 11, 12, 13, 14, 15, 16, 17, 18, 19, 20, 21, 22, 23, 24, 25, 26, 27, 28, 29, 30, 31, 32, 33, 34, 35, 36, 37, 38, 39, 40, 41, 42, 43, 44, 45, 46, 47, 48, 49, 50, 51, 52, 53, 54, 55, 56, 57, 58, 59, 60, 61, 62, 63, 64, 65, 66, 67, 68, 69, 70, 71, 72, 73, 74, 75, 76, 77, 78, 79, 80, 81, 82, 83, 84, 85, 86, 87, 88, 89, 90, 91, 92, 93, 94, 95, 96, 97, 98, 99, 100, 101, 102, 103, 104, 105, 106, 107, 108, 109, 110, 111, 112, 113, 114, 115, 116, 117, 118, 119, 120, 121, 122, 123, 124, 125, 126, 127, 128, 129, 130, 131, 132, 133, 134, 135, 136, 137, 138, 139, 140, 141, 142, 143, 144, 145, 146, 147, 148, 149, 150, 151, 152, 153, 154, 155, 156, 157, 158, 159, 160, 161, 162, 163, 164, 165, 166, 167, 168, 169, 170, 171, 172, 173, 174, 175, 176, 177, 178, 179, 180, 181, 182, 183, 184, 185, 186, 187, 188, 189, 190, 191, 192, 193, 194, 195, 196, 197, 198, 199, 200, 201, 202, 203, 204, 205, 206, 207, 208, 209, 210, 211, 212, 213, 214, 215, 216, 217, 218, 219, 220, 221, 222, 223, 224, 225, 226, 227, 228, 229, 230, 231, 232, 233, 234, 235, 236, 237, 238, 239, 240, 241, 242, 243, 244, 245, 246, 247, 248, 249, 250, 251, 252, 253, 254, 255, 256, 257, 258, 259, 260, 261, 262, 263, 264, 265, 266, 267, 268, 269, 270, 271, 272, 273, 274, 275, 276, 277, 278, 279, 280, 281, 282, 283, 284, 285, 286, 287, 288, 289, 290, 291, 292, 293, 294, 295, 296, 297, 298, 299, 300, 301, 302, 303, 304, 305, 306, 307, 308, 309, 310, 311, 312, 313, 314, 315, 316, 317, 318, 319, 320, 321, 322, 323, 324, 325, 326, 327, 328, 329, 330, 331, 332, 333, 334, 335, 336, 337, 338, 339, 340, 341, 342, 343, 344, 345, 346, 347, 348, 349, 350, 351, 352, 353, 354, 355, 356, 357, 358, 359, 360, 361, 362, 363, 364, 365, 366, 367, 368, 369, 370, 371, 372, 373, 374, 375, 376, 377, 378, 379, 380, 381, 382, 383, 384, 385, 386, 387, 388, 389, 390, 391, 392, 393, 394, 395, 396, 397, 398, 399, 400, 401, 402, 403, 404, 405, 406, 407, 408, 409, 410, 411, 412, 413, 414, 415, 416, 417, 418, 419, 420, 421, 422, 423, 424, 425, 426, 427, 428, 429, 430, 431, 432, 433, 434, 435, 436, 437, 438, 439, 440, 441, 442, 443, 444, 445, 446, 447, 448, 449, 450],
      "AcquisitionTime": ["141315.397500", "141316.887500", "141318.377500", "141319.867500", "141321.357500", "141322.847500", "141324.337500", "141325.827500", "141327.317500", "141328.807500", "141330.297500", "141331.787500", "141333.277500", "141334.767500", "141336.257500", "141337.747500", "141339.237500", "141340.727500", "141342.217500", "141343.707500", "141345.197500", "141346.687500", "141348.177500", "141349.667500", "141351.157500", "141352.647500", "141354.137500", "141355.627500", "141357.117500", "141358.607500", "141400.097500", "141401.587500", "141403.077500", "141404.567500", "141406.057500", "141407.547500", "141409.037500", "141410.527500", "141412.017500", "141413.507500", "141414.997500", "141416.487500", "141417.977500", "141419.467500", "141420.957500", "141422.447500", "141423.937500", "141425.427500", "141426.917500", "141428.407500", "141429.897500", "141431.387500", "141432.877500", "141434.367500", "141435.857500", "141437.347500", "141438.837500", "141440.327500", "141441.817500", "141443.307500", "141444.797500", "141446.287500", "141447.777500", "141449.267500", "141450.757500", "141452.247500", "141453.737500", "141455.227500", "141456.717500", "141458.207500", "141459.697500", "141501.187500", "141502.677500", "141504.167500", "141505.657500", "141507.147500", "141508.637500", "141510.127500", "141511.617500", "141513.107500", "141514.597500", "141516.087500", "141517.577500", "141519.067500", "141520.557500", "141522.047500", "141523.537500", "141525.027500", "141526.517500", "141528.007500", "141529.497500", "141530.987500", "141532.477500", "141533.967500", "141535.457500", "141536.947500", "141538.437500", "141539.927500", "141541.417500", "141542.907500", "141544.397500", "141545.887500", "141547.377500", "141548.867500", "141550.357500", "141551.847500", "141553.337500", "141554.827500", "141556.317500", "141557.807500", "141559.297500", "141600.787500", "141602.277500", "141603.767500", "141605.257500", "141606.747500", "141608.237500", "141609.727500", "141611.217500", "141612.707500", "141614.197500", "141615.687500", "141617.177500", "141618.667500", "141620.157500", "141621.647500", "141623.137500", "141624.627500", "141626.117500", "141627.607500", "141629.097500", "141630.587500", "141632.077500", "141633.567500", "141635.057500", "141636.547500", "141638.037500", "141639.527500", "141641.017500", "141642.507500", "141643.997500", "141645.487500", "141646.977500", "141648.467500", "141649.957500", "141651.447500", "141652.937500", "141654.427500", "141655.917500", "141657.407500", "141658.897500", "141700.387500", "141701.877500", "141703.367500", "141704.857500", "141706.347500", "141707.837500", "141709.327500", "141710.817500", "141712.307500", "141713.797500", "141715.287500", "141716.777500", "141718.267500", "141719.757500", "141721.247500", "141722.737500", "141724.227500", "141725.717500", "141727.207500", "141728.697500", "141730.187500", "141731.677500", "141733.167500", "141734.657500", "141736.147500", "141737.637500", "141739.127500", "141740.617500", "141742.107500", "141743.597500", "141745.087500", "141746.577500", "141748.067500", "141749.557500", "141751.047500", "141752.537500", "141754.027500", "141755.517500", "141757.007500", "141758.497500", "141759.987500", "141801.477500", "141802.967500", "141804.457500", "141805.947500", "141807.437500", "141808.927500", "141810.417500", "141811.907500", "141813.397500", "141814.887500", "141816.377500", "141817.867500", "141819.357500", "141820.847500", "141822.337500", "141823.827500", "141825.317500", "141826.807500", "141828.297500", "141829.787500", "141831.277500", "141832.767500", "141834.257500", "141835.747500", "141837.237500", "141838.727500", "141840.217500", "141841.707500", "141843.197500", "141844.687500", "141846.177500", "141847.667500", "141849.157500", "141850.647500", "141852.137500", "141853.627500", "141855.117500", "141856.607500", "141858.097500", "141859.587500", "141901.077500", "141902.567500", "141904.057500", "141905.547500", "141907.037500", "141908.527500", "141910.017500", "141911.507500", "141912.997500", "141914.487500", "141915.977500", "141917.467500", "141918.957500", "141920.447500", "141921.937500", "141923.427500", "141924.917500", "141926.407500", "141927.897500", "141929.387500", "141930.877500", "141932.367500", "141933.857500", "141935.347500", "141936.837500", "141938.327500", "141939.817500", "141941.307500", "141942.797500", "141944.287500", "141945.777500", "141947.267500", "141948.757500", "141950.247500", "141951.737500", "141953.227500", "141954.717500", "141956.207500", "141957.697500", "141959.187500", "142000.677500", "142002.167500", "142003.657500", "142005.147500", "142006.637500", "142008.127500", "142009.617500", "142011.107500", "142012.597500", "142014.087500", "142015.577500", "142017.067500", "142018.557500", "142020.047500", "142021.537500", "142023.027500", "142024.517500", "142026.007500", "142027.497500", "142028.987500", "142030.477500", "142031.967500", "142033.457500", "142034.947500", "142036.437500", "142037.927500", "142039.417500", "142040.907500", "142042.397500", "142043.887500", "142045.377500", "142046.867500", "142048.357500", "142049.847500", "142051.337500", "142052.827500", "142054.317500", "142055.807500", "142057.297500", "142058.787500", "142100.277500", "142101.767500", "142103.257500", "142104.747500", "142106.237500", "142107.727500", "142109.217500", "142110.707500", "142112.197500", "142113.687500", "142115.177500", "142116.667500", "142118.157500", "142119.647500", "142121.137500", "142122.627500", "142124.117500", "142125.607500", "142127.097500", "142128.587500", "142130.077500", "142131.567500", "142133.057500", "142134.547500", "142136.037500", "142137.527500", "142139.017500", "142140.507500", "142141.997500", "142143.487500", "142144.977500", "142146.467500", "142147.957500", "142149.447500", "142150.937500", "142152.427500", "142153.917500", "142155.407500", "142156.897500", "142158.387500", "142159.877500", "142201.367500", "142202.857500", "142204.347500", "142205.837500", "142207.327500", "142208.817500", "142210.307500", "142211.797500", "142213.287500", "142214.777500", "142216.267500", "142217.757500", "142219.247500", "142220.737500", "142222.227500", "142223.717500", "142225.207500", "142226.697500", "142228.187500", "142229.677500", "142231.167500", "142232.657500", "142234.147500", "142235.637500", "142237.127500", "142238.617500", "142240.107500", "142241.597500", "142243.087500", "142244.577500", "142246.067500", "142247.557500", "142249.047500", "142250.537500", "142252.027500", "142253.517500", "142255.007500", "142256.497500", "142257.987500", "142259.477500", "142300.967500", "142302.457500", "142303.947500", "142305.437500", "142306.927500", "142308.417500", "142309.907500", "142311.397500", "142312.887500", "142314.377500", "142315.867500", "142317.357500", "142318.847500", "142320.337500", "142321.827500", "142323.317500", "142324.807500", "142326.297500", "142327.787500", "142329.277500", "142330.767500", "142332.257500", "142333.747500", "142335.237500", "142336.727500", "142338.217500", "142339.707500", "142341.197500", "142342.687500", "142344.177500", "142345.667500", "142347.157500", "142348.647500", "142350.137500", "142351.627500", "142353.117500", "142354.607500", "142356.097500", "142357.587500", "142359.077500", "142400.567500", "142402.057500", "142403.547500", "142405.037500", "142406.527500", "142408.017500", "142409.507500", "142410.997500", "142412.487500", "142413.977500", "142415.467500", "142416.957500", "142418.447500", "142419.937500", "142421.427500", "142422.917500", "142424.407500"],
      "ContentTime": ["141444.789000", "141444.792000", "141444.795000", "141444.798000", "141444.801000", "141444.804000", "141444.807000", "141444.810000", "141444.813000", "141444.816000", "141444.819000", "141444.822000", "141444.825000", "141444.827000", "141444.836000", "141444.839000", "141444.842000", "141444.845000", "141444.848000", "141444.851000", "141444.853000", "141444.856000", "141444.859000", "141444.862000", "141444.865000", "141444.875000", "141444.877000", "141444.880000", "141444.883000", "141444.886000", "141444.889000", "141444.892000", "141444.895000", "141444.898000", "141504.759000", "141504.762000", "141504.765000", "141504.768000", "141504.771000", "141504.774000", "141504.777000", "141504.788000", "141504.791000", "141504.794000", "141504.796000", "141504.799000", "141504.802000", "141504.805000", "141504.808000", "141504.811000", "141504.814000", "141504.817000", "141504.820000", "141504.822000", "141524.759000", "141524.762000", "141524.765000", "141524.768000", "141524.771000", "141524.774000", "141524.776000", "141524.779000", "141524.782000", "141524.785000", "141524.788000", "141524.791000", "141524.794000", "141524.797000", "141524.804000", "141524.807000", "141524.810000", "141524.813000", "141524.816000", "141524.818000", "141524.821000", "141544.759000", "141544.762000", "141544.765000", "141544.768000", "141544.771000", "141544.774000", "141544.777000", "141544.779000", "141544.782000", "141544.785000", "141544.788000", "141544.791000", "141544.794000", "141544.797000", "141544.800000", "141544.803000", "141544.806000", "141544.808000", "141544.811000", "141544.814000", "141624.760000", "141624.763000", "141624.766000", "141624.769000", "141624.772000", "141624.775000", "141624.778000", "141624.780000", "141624.784000", "141624.786000", "141624.789000", "141624.792000", "141624.795000", "141624.798000", "141624.801000", "141624.804000", "141624.807000", "141624.810000", "141624.812000", "141624.815000", "141624.818000", "141624.821000", "141624.824000", "141624.827000", "141624.830000", "141624.833000", "141624.835000", "141624.838000", "141624.841000", "141624.844000", "141624.847000", "141704.759000", "141704.762000", "141704.765000", "141704.768000", "141704.771000", "141704.773000", "141704.776000", "141704.779000", "141704.782000", "141704.785000", "141704.788000", "141704.791000", "141704.794000", "141704.796000", "141704.799000", "141704.802000", "141704.805000", "141704.808000", "141704.811000", "141704.814000", "141704.817000", "141704.819000", "141704.822000", "141704.825000", "141704.828000", "141704.831000", "141704.834000", "141744.759000", "141744.762000", "141744.765000", "141744.768000", "141744.771000", "141744.774000", "141744.776000", "141744.779000", "141744.782000", "141744.785000", "141744.788000", "141744.791000", "141744.794000", "141744.797000", "141744.800000", "141744.803000", "141744.806000", "141744.808000", "141744.811000", "141744.814000", "141744.817000", "141744.820000", "141744.823000", "141744.826000", "141744.829000", "141744.839000", "141744.842000", "141824.760000", "141824.763000", "141824.766000", "141824.769000", "141824.772000", "141824.775000", "141824.778000", "141824.781000", "141824.784000", "141824.787000", "141824.789000", "141824.792000", "141824.795000", "141824.798000", "141824.801000", "141824.804000", "141824.807000", "141824.810000", "141824.813000", "141824.815000", "141824.818000", "141824.821000", "141824.824000", "141824.827000", "141824.830000", "141824.833000", "141824.836000", "141904.760000", "141904.763000", "141904.766000", "141904.769000", "141904.771000", "141904.774000", "141904.777000", "141904.780000", "141904.783000", "141904.786000", "141904.789000", "141904.792000", "141904.795000", "141904.797000", "141904.800000", "141904.803000", "141904.806000", "141904.809000", "141904.812000", "141904.815000", "141904.818000", "141904.821000", "141904.823000", "141904.826000", "141904.829000", "141904.832000", "141904.835000", "141944.759000", "141944.762000", "141944.765000", "141944.768000", "141944.771000", "141944.774000", "141944.777000", "141944.779000", "141944.782000", "141944.785000", "141944.788000", "141944.791000", "141944.794000", "141944.797000", "141944.800000", "141944.803000", "141944.806000", "141944.808000", "141944.811000", "141944.814000", "141944.817000", "141944.820000", "141944.823000", "141944.826000", "141944.829000", "141944.832000", "141944.845000", "142024.759000", "142024.762000", "142024.765000", "142024.768000", "142024.771000", "142024.774000", "142024.777000", "142024.780000", "142024.782000", "142024.785000", "142024.788000", "142024.791000", "142024.794000", "142024.797000", "142024.800000", "142024.803000", "142024.807000", "142024.809000", "142024.812000", "142024.815000", "142024.818000", "142024.821000", "142024.824000", "142024.827000", "142024.830000", "142024.833000", "142024.847000", "142104.760000", "142104.763000", "142104.766000", "142104.769000", "142104.782000", "142104.789000", "142104.792000", "142104.795000", "142104.798000", "142104.801000", "142104.804000", "142104.807000", "142104.810000", "142104.813000", "142104.816000", "142104.818000", "142104.821000", "142104.824000", "142104.827000", "142104.830000", "142104.833000", "142104.836000", "142104.838000", "142104.841000", "142104.845000", "142104.848000", "142144.759000", "142144.762000", "142144.765000", "142144.768000", "142144.771000", "142144.774000", "142144.777000", "142144.779000", "142144.782000", "142144.785000", "142144.788000", "142144.791000", "142144.794000", "142144.797000", "142144.800000", "142144.803000", "142144.806000", "142144.809000", "142144.812000", "142144.815000", "142144.818000", "142144.820000", "142144.823000", "142144.826000", "142144.829000", "142144.832000", "142144.835000", "142224.759000", "142224.762000", "142224.765000", "142224.768000", "142224.771000", "142224.774000", "142224.777000", "142224.779000", "142224.782000", "142224.785000", "142224.788000", "142224.791000", "142224.794000", "142224.797000", "142224.800000", "142224.803000", "142224.805000", "142224.808000", "142224.811000", "142224.814000", "142224.817000", "142224.820000", "142224.823000", "142224.825000", "142224.829000", "142224.831000", "142224.834000", "142304.760000", "142304.763000", "142304.766000", "142304.769000", "142304.772000", "142304.774000", "142304.777000", "142304.780000", "142304.783000", "142304.786000", "142304.789000", "142304.792000", "142304.795000", "142304.798000", "142304.801000", "142304.804000", "142304.806000", "142304.809000", "142304.812000", "142304.815000", "142304.818000", "142304.821000", "142304.824000", "142304.827000", "142304.830000", "142304.832000", "142304.835000", "142344.760000", "142344.763000", "142344.766000", "142344.769000", "142344.772000", "142344.775000", "142344.778000", "142344.781000", "142344.784000", "142344.787000", "142344.790000", "142344.793000", "142344.796000", "142344.799000", "142344.802000", "142344.805000", "142344.808000", "142344.811000", "142344.814000", "142344.817000", "142344.820000", "142344.823000", "142344.826000", "142344.829000", "142344.832000", "142344.835000", "142344.839000", "142424.759000", "142424.762000", "142424.765000", "142424.768000", "142424.771000", "142424.774000", "142424.777000", "142424.780000", "142424.783000", "142424.786000", "142424.789000", "142424.792000", "142424.794000", "142424.797000", "142424.800000", "142424.803000", "142424.806000", "142424.809000", "142424.812000", "142424.815000", "142424.818000", "142424.821000", "142424.824000", "142424.827000", "142424.830000", "142424.832000", "142424.835000", "142426.202000"],
