{
  "AcquisitionMatrixPE": 104,
  "AcquisitionNumber": 1,
  "AcquisitionTime": "09:43:7.615000",
  "BandwidthPerPixelPhaseEncode": 17.17,
  "BaseResolution": 104,
  "BodyPartExamined": "BRAIN",
  "CoilString": "HC1-7;NC1_2",
  "ConsistencyInfo": "N4_VE11C_LATEST_20160120",
  "ConversionSoftware": "dcm2niix",
  "ConversionSoftwareVersion": "v1.0.20190902",
  "DerivedVendorReportedEchoSpacing": 0.000560011,
  "DeviceSerialNumber": "167006",
  "DwellTime": 2.1e-06,
  "EchoTime": 0.037,
  "EchoTrainLength": 104,
  "EffectiveEchoSpacing": 0.000560011,
  "FlipAngle": 52,
  "ImageComments": "Unaliased_MB4_PE3_LB",
  "ImageOrientationPatientDICOM": [0.999962, 0.00824361, -0.00283343, -0.008552, 0.86483, -0.501992],
  "ImageType": [
    "ORIGINAL",
    "PRIMARY",
    "M",
    "MB",
    "ND",
    "MOSAIC"
],
  "ImagingFrequency": 123.259,
  "InPlanePhaseEncodingDirectionDICOM": "COL",
  "InstitutionAddress": "Chemin_Queen-Mary_4565_Montreal_District_CA_H3W_1W5",
  "InstitutionName": "IUGM",
  "InstitutionalDepartmentName": "Department",
  "MRAcquisitionType": "2D",
  "MagneticFieldStrength": 3,
  "Manufacturer": "Siemens",
  "ManufacturersModelName": "Prisma_fit",
  "Modality": "MR",
  "MultibandAccelerationFactor": 4,
  "PartialFourier": 1,
  "PatientPosition": "HFS",
  "PercentPhaseFOV": 100,
  "PhaseEncodingDirection": "j",
  "PhaseEncodingSteps": 104,
  "PhaseResolution": 1,
  "PixelBandwidth": 2290,
  "ProcedureStepDescription": "video_friends",
  "ProtocolName": "func_task-friends-s03e15b",
  "PulseSequenceDetails": "%CustomerSeq%_cmrr_mbep2d_bold",
  "ReceiveCoilActiveElements": "HC1-7;NC1,2",
  "ReceiveCoilName": "HeadNeck_64",
  "ReconMatrixPE": 104,
  "RepetitionTime": 1.49,
  "SAR": 0.0345847,
  "ScanOptions": "FS",
  "ScanningSequence": "EP",
  "SequenceName": "epfid2d1_104",
  "SequenceVariant": "SK_SS",
  "SeriesDescription": "func_task-friends-s03e15b",
  "SeriesNumber": 11,
  "ShimSetting": [620, -7200, -8871, 439, -13, -183, 3, -20],
  "SliceThickness": 2,
  "SliceTiming": [0, 0.785, 0.0975, 0.8825, 0.1975, 0.98, 0.295, 1.0775, 0.3925, 1.1775, 0.49, 1.275, 0.5875, 1.3725, 0.6875, 0, 0.785, 0.0975, 0.8825, 0.1975, 0.98, 0.295, 1.0775, 0.3925, 1.1775, 0.49, 1.275, 0.5875, 1.3725, 0.6875, 0, 0.785, 0.0975, 0.8825, 0.1975, 0.98, 0.295, 1.0775, 0.3925, 1.1775, 0.49, 1.275, 0.5875, 1.3725, 0.6875, 0, 0.785, 0.0975, 0.8825, 0.1975, 0.98, 0.295, 1.0775, 0.3925, 1.1775, 0.49, 1.275, 0.5875, 1.3725, 0.6875],
  "SoftwareVersions": "syngo_MR_E11",
  "SpacingBetweenSlices": 2,
  "StationName": "MRC35049",
  "TaskName": "s03e15b",
  "TotalReadoutTime": 0.0576811,
  "TxRefAmp": 248.29,
  "WipMemBlock": "9090988e-ad78-4b38-ac26-5dad47129ecc||Sequence: R016 ve11c/master r/e634e98; Dec 19 2017 11:00:25 by eja",
  "dcmmeta_affine": [
    [-1.9999240636825562, -0.017104005441069603, 0.0033755775075405836, 103.35778045654297],
    [-0.01648721471428871, 1.7296602725982666, -1.0039938688278198, -58.9567756652832],
    [-0.005666857119649649, 1.0039836168289185, 1.7297354936599731, -102.00848388671875],
    [0.0, 0.0, 0.0, 1.0]
],
  "dcmmeta_reorient_transform": [
    [0.0, -1.0, 0.0, 103.0],
    [1.0, 0.0, 0.0, 0.0],
    [0.0, 0.0, 1.0, 0.0],
    [0.0, 0.0, 0.0, 1.0]
],
  "dcmmeta_shape": [104, 104, 60, 458],
  "dcmmeta_slice_dim": 2,
  "dcmmeta_version": 0.6,
  "global": {
    "const": {
      "AcquisitionMatrix": [104, 0, 0, 104],
      "AngioFlag": "N",
      "BitsAllocated": 16,
      "BitsStored": 16,
      "BodyPartExamined": "BRAIN",
      "Columns": 832,
      "EchoNumbers": 1,
      "EchoTime": 37.0,
      "EchoTrainLength": 104,
      "FlipAngle": 52.0,
      "HighBit": 15,
      "ImageOrientationPatient": [0.9999620065901, 0.00824360714639, -0.0028334285789, -0.0085520024306, 0.86483010659237, -0.5019917827872],
      "ImagePositionPatient": [-823.34254983514, -754.79588940096, 368.9145773825],
      "ImageType": [
        "ORIGINAL",
        "PRIMARY",
        "M",
        "MB",
        "ND",
        "MOSAIC"
],
      "ImagedNucleus": "1H",
      "ImagingFrequency": 123.259056,
      "InPlanePhaseEncodingDirection": "COL",
      "MRAcquisitionType": "2D",
      "MagneticFieldStrength": 3.0,
      "Manufacturer": "SIEMENS",
      "ManufacturerModelName": "Prisma_fit",
      "Modality": "MR",
      "NumberOfAverages": 1.0,
      "NumberOfPhaseEncodingSteps": 104,
      "PercentPhaseFieldOfView": 100.0,
      "PercentSampling": 100.0,
      "PerformedProcedureStepStartTime": "090737.841000",
      "PhotometricInterpretation": "MONOCHROME2",
      "PixelBandwidth": 2290.0,
      "PixelRepresentation": 0,
      "PixelSpacing": [2.0, 2.0],
      "ProtocolName": "func_task-friends-s03e15b",
      "RepetitionTime": 1490.0,
      "Rows": 832,
      "SAR": 0.03458469379255,
      "SamplesPerPixel": 1,
      "ScanOptions": "FS",
      "ScanningSequence": "EP",
      "SequenceName": "epfid2d1_104",
      "SequenceVariant": [
        "SK",
        "SS"
],
      "SeriesDescription": "func_task-friends-s03e15b",
      "SeriesNumber": 11,
      "SeriesTime": "094424.479000",
      "SliceLocation": -58.45328019567,
      "SliceThickness": 2.0,
      "SmallestImagePixelValue": 0,
      "SoftwareVersions": "syngo MR E11",
      "SpacingBetweenSlices": 2.0000000124064,
      "SpecificCharacterSet": "ISO_IR 100",
      "StudyID": "1",
      "StudyTime": "090737.659000",
      "TransmitCoilName": "Body",
      "VariableFlipAngleFlag": "N",
      "WindowCenterWidthExplanation": "Algo1",
      "dBdt": 0.0},
    "slices": {}
  },
  "time": {
    "samples": {
      "AcquisitionNumber": [1, 2, 3, 4, 5, 6, 7, 8, 9, 10, 11, 12, 13, 14, 15, 16, 17, 18, 19, 20, 21, 22, 23, 24, 25, 26, 27, 28, 29, 30, 31, 32, 33, 34, 35, 36, 37, 38, 39, 40, 41, 42, 43, 44, 45, 46, 47, 48, 49, 50, 51, 52, 53, 54, 55, 56, 57, 58, 59, 60, 61, 62, 63, 64, 65, 66, 67, 68, 69, 70, 71, 72, 73, 74, 75, 76, 77, 78, 79, 80, 81, 82, 83, 84, 85, 86, 87, 88, 89, 90, 91, 92, 93, 94, 95, 96, 97, 98, 99, 100, 101, 102, 103, 104, 105, 106, 107, 108, 109, 110, 111, 112, 113, 114, 115, 116, 117, 118, 119, 120, 121, 122, 123, 124, 125, 126, 127, 128, 129, 130, 131, 132, 133, 134, 135, 136, 137, 138, 139, 140, 141, 142, 143, 144, 145, 146, 147, 148, 149, 150, 151, 152, 153, 154, 155, 156, 157, 158, 159, 160, 161, 162, 163, 164, 165, 166, 167, 168, 169, 170, 171, 172, 173, 174, 175, 176, 177, 178, 179, 180, 181, 182, 183, 184, 185, 186, 187, 188, 189, 190, 191, 192, 193, 194, 195, 196, 197, 198, 199, 200, 201, 202, 203, 204, 205, 206, 207, 208, 209, 210, 211, 212, 213, 214, 215, 216, 217, 218, 219, 220, 221, 222, 223, 224, 225, 226, 227, 228, 229, 230, 231, 232, 233, 234, 235, 236, 237, 238, 239, 240, 241, 242, 243, 244, 245, 246, 247, 248, 249, 250, 251, 252, 253, 254, 255, 256, 257, 258, 259, 260, 261, 262, 263, 264, 265, 266, 267, 268, 269, 270, 271, 272, 273, 274, 275, 276, 277, 278, 279, 280, 281, 282, 283, 284, 285, 286, 287, 288, 289, 290, 291, 292, 293, 294, 295, 296, 297, 298, 299, 300, 301, 302, 303, 304, 305, 306, 307, 308, 309, 310, 311, 312, 313, 314, 315, 316, 317, 318, 319, 320, 321, 322, 323, 324, 325, 326, 327, 328, 329, 330, 331, 332, 333, 334, 335, 336, 337, 338, 339, 340, 341, 342, 343, 344, 345, 346, 347, 348, 349, 350, 351, 352, 353, 354, 355, 356, 357, 358, 359, 360, 361, 362, 363, 364, 365, 366, 367, 368, 369, 370, 371, 372, 373, 374, 375, 376, 377, 378, 379, 380, 381, 382, 383, 384, 385, 386, 387, 388, 389, 390, 391, 392, 393, 394, 395, 396, 397, 398, 399, 400, 401, 402, 403, 404, 405, 406, 407, 408, 409, 410, 411, 412, 413, 414, 415, 416, 417, 418, 419, 420, 421, 422, 423, 424, 425, 426, 427, 428, 429, 430, 431, 432, 433, 434, 435, 436, 437, 438, 439, 440, 441, 442, 443, 444, 445, 446, 447, 448, 449, 450, 451, 452, 453, 454, 455, 456, 457, 458],
      "AcquisitionTime": ["094307.615000", "094309.105000", "094310.595000", "094312.085000", "094313.575000", "094315.065000", "094316.555000", "094318.045000", "094319.535000", "094321.025000", "094322.515000", "094324.005000", "094325.495000", "094326.985000", "094328.475000", "094329.965000", "094331.455000", "094332.945000", "094334.435000", "094335.925000", "094337.415000", "094338.905000", "094340.395000", "094341.885000", "094343.375000", "094344.865000", "094346.355000", "094347.845000", "094349.335000", "094350.825000", "094352.315000", "094353.805000", "094355.295000", "094356.785000", "094358.275000", "094359.765000", "094401.255000", "094402.745000", "094404.235000", "094405.725000", "094407.215000", "094408.705000", "094410.195000", "094411.685000", "094413.175000", "094414.665000", "094416.155000", "094417.645000", "094419.135000", "094420.625000", "094422.115000", "094423.605000", "094425.095000", "094426.585000", "094428.075000", "094429.565000", "094431.055000", "094432.545000", "094434.035000", "094435.525000", "094437.015000", "094438.505000", "094439.995000", "094441.485000", "094442.975000", "094444.465000", "094445.955000", "094447.445000", "094448.935000", "094450.425000", "094451.915000", "094453.405000", "094454.895000", "094456.385000", "094457.875000", "094459.365000", "094500.855000", "094502.345000", "094503.835000", "094505.325000", "094506.815000", "094508.305000", "094509.795000", "094511.285000", "094512.775000", "094514.265000", "094515.755000", "094517.245000", "094518.735000", "094520.225000", "094521.715000", "094523.205000", "094524.695000", "094526.185000", "094527.675000", "094529.165000", "094530.655000", "094532.145000", "094533.635000", "094535.125000", "094536.615000", "094538.105000", "094539.595000", "094541.085000", "094542.575000", "094544.065000", "094545.555000", "094547.045000", "094548.535000", "094550.025000", "094551.515000", "094553.005000", "094554.495000", "094555.985000", "094557.475000", "094558.965000", "094600.455000", "094601.945000", "094603.435000", "094604.925000", "094606.415000", "094607.905000", "094609.395000", "094610.885000", "094612.375000", "094613.865000", "094615.355000", "094616.845000", "094618.335000", "094619.825000", "094621.315000", "094622.805000", "094624.295000", "094625.785000", "094627.275000", "094628.765000", "094630.255000", "094631.745000", "094633.235000", "094634.725000", "094636.215000", "094637.705000", "094639.195000", "094640.685000", "094642.175000", "094643.665000", "094645.155000", "094646.645000", "094648.135000", "094649.625000", "094651.115000", "094652.605000", "094654.095000", "094655.585000", "094657.075000", "094658.565000", "094700.055000", "094701.545000", "094703.035000", "094704.525000", "094706.015000", "094707.505000", "094708.995000", "094710.485000", "094711.975000", "094713.465000", "094714.955000", "094716.445000", "094717.935000", "094719.425000", "094720.915000", "094722.405000", "094723.895000", "094725.385000", "094726.875000", "094728.365000", "094729.855000", "094731.345000", "094732.835000", "094734.325000", "094735.815000", "094737.305000", "094738.795000", "094740.285000", "094741.775000", "094743.265000", "094744.755000", "094746.245000", "094747.735000", "094749.225000", "094750.715000", "094752.205000", "094753.695000", "094755.185000", "094756.675000", "094758.165000", "094759.655000", "094801.145000", "094802.635000", "094804.125000", "094805.615000", "094807.105000", "094808.595000", "094810.085000", "094811.575000", "094813.065000", "094814.555000", "094816.045000", "094817.535000", "094819.025000", "094820.515000", "094822.005000", "094823.495000", "094824.985000", "094826.475000", "094827.965000", "094829.455000", "094830.945000", "094832.435000", "094833.925000", "094835.415000", "094836.905000", "094838.395000", "094839.885000", "094841.375000", "094842.865000", "094844.355000", "094845.845000", "094847.335000", "094848.825000", "094850.315000", "094851.805000", "094853.295000", "094854.785000", "094856.275000", "094857.765000", "094859.255000", "094900.745000", "094902.235000", "094903.725000", "094905.215000", "094906.705000", "094908.195000", "094909.685000", "094911.175000", "094912.665000", "094914.155000", "094915.645000", "094917.135000", "094918.625000", "094920.115000", "094921.605000", "094923.095000", "094924.585000", "094926.075000", "094927.565000", "094929.055000", "094930.545000", "094932.035000", "094933.525000", "094935.015000", "094936.505000", "094937.995000", "094939.485000", "094940.975000", "094942.465000", "094943.955000", "094945.445000", "094946.935000", "094948.425000", "094949.915000", "094951.405000", "094952.895000", "094954.385000", "094955.875000", "094957.365000", "094958.855000", "095000.345000", "095001.835000", "095003.325000", "095004.815000", "095006.305000", "095007.795000", "095009.285000", "095010.775000", "095012.265000", "095013.755000", "095015.245000", "095016.735000", "095018.225000", "095019.715000", "095021.205000", "095022.695000", "095024.185000", "095025.675000", "095027.165000", "095028.655000", "095030.145000", "095031.635000", "095033.125000", "095034.615000", "095036.105000", "095037.595000", "095039.085000", "095040.575000", "095042.065000", "095043.555000", "095045.045000", "095046.535000", "095048.025000", "095049.515000", "095051.005000", "095052.495000", "095053.985000", "095055.475000", "095056.965000", "095058.455000", "095059.945000", "095101.435000", "095102.925000", "095104.415000", "095105.905000", "095107.395000", "095108.885000", "095110.375000", "095111.865000", "095113.355000", "095114.845000", "095116.335000", "095117.825000", "095119.315000", "095120.805000", "095122.295000", "095123.785000", "095125.275000", "095126.765000", "095128.255000", "095129.745000", "095131.235000", "095132.725000", "095134.215000", "095135.705000", "095137.195000", "095138.685000", "095140.175000", "095141.665000", "095143.155000", "095144.645000", "095146.135000", "095147.625000", "095149.115000", "095150.605000", "095152.095000", "095153.585000", "095155.075000", "095156.565000", "095158.055000", "095159.545000", "095201.035000", "095202.525000", "095204.015000", "095205.505000", "095206.995000", "095208.485000", "095209.975000", "095211.465000", "095212.955000", "095214.445000", "095215.935000", "095217.425000", "095218.915000", "095220.405000", "095221.895000", "095223.385000", "095224.875000", "095226.365000", "095227.855000", "095229.345000", "095230.835000", "095232.325000", "095233.815000", "095235.305000", "095236.795000", "095238.285000", "095239.775000", "095241.265000", "095242.755000", "095244.245000", "095245.735000", "095247.225000", "095248.715000", "095250.205000", "095251.695000", "095253.185000", "095254.675000", "095256.165000", "095257.655000", "095259.145000", "095300.635000", "095302.125000", "095303.615000", "095305.105000", "095306.595000", "095308.085000", "095309.575000", "095311.065000", "095312.555000", "095314.045000", "095315.535000", "095317.025000", "095318.515000", "095320.005000", "095321.495000", "095322.985000", "095324.475000", "095325.965000", "095327.455000", "095328.945000", "095330.435000", "095331.925000", "095333.415000", "095334.905000", "095336.395000", "095337.885000", "095339.375000", "095340.865000", "095342.355000", "095343.845000", "095345.335000", "095346.825000", "095348.315000", "095349.805000", "095351.295000", "095352.785000", "095354.275000", "095355.765000", "095357.255000", "095358.745000", "095400.235000", "095401.725000", "095403.215000", "095404.705000", "095406.195000", "095407.685000", "095409.175000", "095410.665000", "095412.155000", "095413.645000", "095415.135000", "095416.625000", "095418.115000", "095419.605000", "095421.095000", "095422.585000", "095424.075000", "095425.565000", "095427.055000", "095428.545000"],
      "ContentTime": ["094424.481000", "094424.485000", "094424.488000", "094424.490000", "094424.502000", "094424.504000", "094424.507000", "094424.513000", "094424.516000", "094424.519000", "094424.521000", "094424.524000", "094424.527000", "094424.530000", "094424.533000", "094424.536000", "094424.539000", "094424.544000", "094424.547000", "094424.549000", "094424.552000", "094424.555000", "094424.558000", "094444.444000", "094444.447000", "094444.450000", "094444.452000", "094444.456000", "094444.458000", "094444.461000", "094444.464000", "094444.467000", "094444.470000", "094444.472000", "094444.475000", "094444.478000", "094444.481000", "094444.484000", "094444.487000", "094444.490000", "094444.492000", "094444.495000", "094444.498000", "094504.444000", "094504.447000", "094504.458000", "094504.461000", "094504.464000", "094504.467000", "094504.470000", "094504.473000", "094504.476000", "094504.493000", "094504.504000", "094504.507000", "094504.510000", "094504.513000", "094504.516000", "094504.518000", "094504.521000", "094504.524000", "094504.527000", "094504.530000", "094504.533000", "094524.444000", "094524.447000", "094524.450000", "094524.453000", "094524.455000", "094524.458000", "094524.461000", "094524.464000", "094524.467000", "094524.470000", "094524.472000", "094524.475000", "094524.478000", "094524.481000", "094524.484000", "094524.487000", "094524.490000", "094524.493000", "094524.495000", "094524.498000", "094544.444000", "094544.447000", "094544.450000", "094544.453000", "094544.455000", "094544.458000", "094544.461000", "094544.464000", "094544.467000", "094544.470000", "094544.473000", "094544.476000", "094544.479000", "094544.482000", "094544.484000", "094544.487000", "094544.490000", "094544.493000", "094544.496000", "094544.499000", "094624.444000", "094624.447000", "094624.450000", "094624.453000", "094624.456000", "094624.459000", "094624.461000", "094624.464000", "094624.467000", "094624.470000", "094624.473000", "094624.482000", "094624.485000", "094624.488000", "094624.491000", "094624.494000", "094624.497000", "094624.499000", "094624.502000", "094624.505000", "094624.508000", "094624.511000", "094624.514000", "094624.517000", "094624.519000", "094624.522000", "094624.525000", "094704.444000", "094704.448000", "094704.451000", "094704.453000", "094704.456000", "094704.459000", "094704.462000", "094704.465000", "094704.468000", "094704.471000", "094704.474000", "094704.476000", "094704.479000", "094704.482000", "094704.485000", "094704.488000", "094704.491000", "094704.493000", "094704.496000", "094704.499000", "094704.502000", "094704.505000", "094704.508000", "094704.511000", "094704.513000", "094704.516000", "094704.519000", "094744.444000", "094744.447000", "094744.450000", "094744.453000", "094744.455000", "094744.459000", "094744.461000", "094744.464000", "094744.467000", "094744.470000", "094744.473000", "094744.476000", "094744.479000", "094744.482000", "094744.484000", "094744.487000", "094744.490000", "094744.499000", "094744.502000", "094744.505000", "094744.508000", "094744.511000", "094744.514000", "094744.516000", "094744.519000", "094744.522000", "094744.525000", "094824.444000", "094824.447000", "094824.450000", "094824.453000", "094824.456000", "094824.458000", "094824.461000", "094824.464000", "094824.467000", "094824.470000", "094824.473000", "094824.476000", "094824.479000", "094824.481000", "094824.484000", "094824.487000", "094824.490000", "094824.493000", "094824.496000", "094824.499000", "094824.502000", "094824.504000", "094824.507000", "094824.510000", "094824.513000", "094824.516000", "094824.519000", "094904.444000", "094904.447000", "094904.450000", "094904.453000", "094904.456000", "094904.458000", "094904.461000", "094904.464000", "094904.467000", "094904.470000", "094904.473000", "094904.476000", "094904.479000", "094904.481000", "094904.484000", "094904.487000", "094904.490000", "094904.493000", "094904.496000", "094904.499000", "094904.501000", "094904.504000", "094904.507000", "094904.510000", "094904.513000", "094904.516000", "094904.519000", "094944.444000", "094944.447000", "094944.451000", "094944.453000", "094944.456000", "094944.459000", "094944.462000", "094944.465000", "094944.468000", "094944.471000", "094944.474000", "094944.477000", "094944.480000", "094944.483000", "094944.486000", "094944.504000", "094944.507000", "094944.510000", "094944.519000", "094944.522000", "094944.525000", "094944.528000", "094944.541000", "094944.544000", "094944.547000", "094944.549000", "095024.444000", "095024.447000", "095024.450000", "095024.453000", "095024.456000", "095024.459000", "095024.461000", "095024.464000", "095024.467000", "095024.470000", "095024.473000", "095024.476000", "095024.479000", "095024.482000", "095024.484000", "095024.487000", "095024.490000", "095024.493000", "095024.496000", "095024.499000", "095024.502000", "095024.504000", "095024.507000", "095024.510000", "095024.513000", "095024.516000", "095024.519000", "095104.444000", "095104.447000", "095104.450000", "095104.453000", "095104.456000", "095104.459000", "095104.461000", "095104.464000", "095104.467000", "095104.470000", "095104.473000", "095104.476000", "095104.479000", "095104.481000", "095104.484000", "095104.487000", "095104.490000", "095104.493000", "095104.496000", "095104.499000", "095104.501000", "095104.504000", "095104.507000", "095104.510000", "095104.513000", "095104.516000", "095104.519000", "095144.444000", "095144.447000", "095144.450000", "095144.453000", "095144.456000", "095144.458000", "095144.461000", "095144.464000", "095144.467000", "095144.470000", "095144.473000", "095144.476000", "095144.479000", "095144.481000", "095144.485000", "095144.487000", "095144.490000", "095144.493000", "095144.496000", "095144.499000", "095144.502000", "095144.505000", "095144.507000", "095144.510000", "095144.513000", "095144.516000", "095144.519000", "095224.444000", "095224.447000", "095224.450000", "095224.453000", "095224.456000", "095224.459000", "095224.461000", "095224.464000", "095224.467000", "095224.470000", "095224.473000", "095224.476000", "095224.479000", "095224.482000", "095224.484000", "095224.487000", "095224.490000", "095224.493000", "095224.496000", "095224.499000", "095224.502000", "095224.505000", "095224.507000", "095224.510000", "095224.513000", "095224.516000", "095224.519000", "095304.444000", "095304.447000", "095304.450000", "095304.453000", "095304.456000", "095304.459000", "095304.462000", "095304.464000", "095304.467000", "095304.470000", "095304.473000", "095304.476000", "095304.479000", "095304.482000", "095304.485000", "095304.488000", "095304.491000", "095304.493000", "095304.496000", "095304.499000", "095304.502000", "095304.505000", "095304.508000", "095304.510000", "095304.513000", "095304.516000", "095304.519000", "095344.444000", "095344.447000", "095344.450000", "095344.453000", "095344.456000", "095344.459000", "095344.462000", "095344.465000", "095344.467000", "095344.470000", "095344.473000", "095344.476000", "095344.479000", "095344.482000", "095344.485000", "095344.488000", "095344.491000", "095344.493000", "095344.496000", "095344.499000", "095344.502000", "095344.505000", "095344.508000", "095344.511000", "095344.513000", "095344.516000", "095344.519000", "095424.444000", "095424.447000", "095424.450000", "095424.453000", "095424.456000", "095424.458000", "095424.461000", "095424.464000", "095424.467000", "095424.470000", "095424.473000", "095424.476000", "095424.479000", "095424.482000", "095424.485000", "095424.497000", "095424.500000", "095424.503000", "095424.506000", "095424.509000", "095424.512000", "095424.515000", "095424.518000", "095424.520000", "095424.523000", "095424.526000", "095430.566000", "095430.569000", "095430.572000", "095430.575000", "095430.578000"],
