{
  "AcquisitionMatrixPE": 104,
  "AcquisitionNumber": 1,
  "AcquisitionTime": "10:07:1.545000",
  "BandwidthPerPixelPhaseEncode": 17.17,
  "BaseResolution": 104,
  "BodyPartExamined": "BRAIN",
  "CoilString": "HC1-7;NC1_2",
  "ConsistencyInfo": "N4_VE11C_LATEST_20160120",
  "ConversionSoftware": "dcm2niix",
  "ConversionSoftwareVersion": "v1.0.20190902",
  "DerivedVendorReportedEchoSpacing": 0.000560011,
  "DeviceSerialNumber": "167006",
  "DwellTime": 2.1e-06,
  "EchoTime": 0.037,
  "EchoTrainLength": 104,
  "EffectiveEchoSpacing": 0.000560011,
  "FlipAngle": 52,
  "ImageComments": "Unaliased_MB4_PE3_LB",
  "ImageOrientationPatientDICOM": [0.999962, 0.00824361, -0.00283343, -0.008552, 0.86483, -0.501992],
  "ImageType": [
    "ORIGINAL",
    "PRIMARY",
    "M",
    "MB",
    "ND",
    "MOSAIC"
],
  "ImagingFrequency": 123.259,
  "InPlanePhaseEncodingDirectionDICOM": "COL",
  "InstitutionAddress": "Chemin_Queen-Mary_4565_Montreal_District_CA_H3W_1W5",
  "InstitutionName": "IUGM",
  "InstitutionalDepartmentName": "Department",
  "MRAcquisitionType": "2D",
  "MagneticFieldStrength": 3,
  "Manufacturer": "Siemens",
  "ManufacturersModelName": "Prisma_fit",
  "Modality": "MR",
  "MultibandAccelerationFactor": 4,
  "PartialFourier": 1,
  "PatientPosition": "HFS",
  "PercentPhaseFOV": 100,
  "PhaseEncodingDirection": "j",
  "PhaseEncodingSteps": 104,
  "PhaseResolution": 1,
  "PixelBandwidth": 2290,
  "ProcedureStepDescription": "video_friends",
  "ProtocolName": "func_task-friends-s03e16b",
  "PulseSequenceDetails": "%CustomerSeq%_cmrr_mbep2d_bold",
  "ReceiveCoilActiveElements": "HC1-7;NC1,2",
  "ReceiveCoilName": "HeadNeck_64",
  "ReconMatrixPE": 104,
  "RepetitionTime": 1.49,
  "SAR": 0.0345879,
  "ScanOptions": "FS",
  "ScanningSequence": "EP",
  "SequenceName": "epfid2d1_104",
  "SequenceVariant": "SK_SS",
  "SeriesDescription": "func_task-friends-s03e16b",
  "SeriesNumber": 15,
  "ShimSetting": [620, -7200, -8871, 439, -13, -183, 3, -20],
  "SliceThickness": 2,
  "SliceTiming": [0, 0.785, 0.1, 0.8825, 0.1975, 0.98, 0.295, 1.0775, 0.3925, 1.1775, 0.49, 1.275, 0.59, 1.3725, 0.6875, 0, 0.785, 0.1, 0.8825, 0.1975, 0.98, 0.295, 1.0775, 0.3925, 1.1775, 0.49, 1.275, 0.59, 1.3725, 0.6875, 0, 0.785, 0.1, 0.8825, 0.1975, 0.98, 0.295, 1.0775, 0.3925, 1.1775, 0.49, 1.275, 0.59, 1.3725, 0.6875, 0, 0.785, 0.1, 0.8825, 0.1975, 0.98, 0.295, 1.0775, 0.3925, 1.1775, 0.49, 1.275, 0.59, 1.3725, 0.6875],
  "SoftwareVersions": "syngo_MR_E11",
  "SpacingBetweenSlices": 2,
  "StationName": "MRC35049",
  "TaskName": "s03e16b",
  "TotalReadoutTime": 0.0576811,
  "TxRefAmp": 248.29,
  "WipMemBlock": "16e52ad1-dab9-44e0-8a90-bd06a8efd6f7||Sequence: R016 ve11c/master r/e634e98; Dec 19 2017 11:00:25 by eja",
  "dcmmeta_affine": [
    [-1.9999240636825562, -0.017104005441069603, 0.0033755775075405836, 103.35778045654297],
    [-0.01648721471428871, 1.7296602725982666, -1.0039938688278198, -58.9567756652832],
    [-0.005666857119649649, 1.0039836168289185, 1.7297354936599731, -102.00848388671875],
    [0.0, 0.0, 0.0, 1.0]
],
  "dcmmeta_reorient_transform": [
    [0.0, -1.0, 0.0, 103.0],
    [1.0, 0.0, 0.0, 0.0],
    [0.0, 0.0, 1.0, 0.0],
    [0.0, 0.0, 0.0, 1.0]
],
  "dcmmeta_shape": [104, 104, 60, 468],
  "dcmmeta_slice_dim": 2,
  "dcmmeta_version": 0.6,
  "global": {
    "const": {
      "AcquisitionMatrix": [104, 0, 0, 104],
      "AngioFlag": "N",
      "BitsAllocated": 16,
      "BitsStored": 16,
      "BodyPartExamined": "BRAIN",
      "Columns": 832,
      "EchoNumbers": 1,
      "EchoTime": 37.0,
      "EchoTrainLength": 104,
      "FlipAngle": 52.0,
      "HighBit": 15,
      "ImageOrientationPatient": [0.9999620065901, 0.00824360714639, -0.0028334285789, -0.0085520024306, 0.86483010659237, -0.5019917827872],
      "ImagePositionPatient": [-823.34254983514, -754.79588940096, 368.9145773825],
      "ImageType": [
        "ORIGINAL",
        "PRIMARY",
        "M",
        "MB",
        "ND",
        "MOSAIC"
],
      "ImagedNucleus": "1H",
      "ImagingFrequency": 123.259067,
      "InPlanePhaseEncodingDirection": "COL",
      "MRAcquisitionType": "2D",
      "MagneticFieldStrength": 3.0,
      "Manufacturer": "SIEMENS",
      "ManufacturerModelName": "Prisma_fit",
      "Modality": "MR",
      "NumberOfAverages": 1.0,
      "NumberOfPhaseEncodingSteps": 104,
      "PercentPhaseFieldOfView": 100.0,
      "PercentSampling": 100.0,
      "PerformedProcedureStepStartTime": "090737.841000",
      "PhotometricInterpretation": "MONOCHROME2",
      "PixelBandwidth": 2290.0,
      "PixelRepresentation": 0,
      "PixelSpacing": [2.0, 2.0],
      "ProtocolName": "func_task-friends-s03e16b",
      "RepetitionTime": 1490.0,
      "Rows": 832,
      "SAR": 0.03458787872315,
      "SamplesPerPixel": 1,
      "ScanOptions": "FS",
      "ScanningSequence": "EP",
      "SequenceName": "epfid2d1_104",
      "SequenceVariant": [
        "SK",
        "SS"
],
      "SeriesDescription": "func_task-friends-s03e16b",
      "SeriesNumber": 15,
      "SeriesTime": "100834.253000",
      "SliceLocation": -58.45328019567,
      "SliceThickness": 2.0,
      "SmallestImagePixelValue": 0,
      "SoftwareVersions": "syngo MR E11",
      "SpacingBetweenSlices": 2.0000000124064,
      "SpecificCharacterSet": "ISO_IR 100",
      "StudyID": "1",
      "StudyTime": "090737.659000",
      "TransmitCoilName": "Body",
      "VariableFlipAngleFlag": "N",
      "WindowCenterWidthExplanation": "Algo1",
      "dBdt": 0.0},
    "slices": {}
  },
  "time": {
    "samples": {
      "AcquisitionNumber": [1, 2, 3, 4, 5, 6, 7, 8, 9, 10, 11, 12, 13, 14, 15, 16, 17, 18, 19, 20, 21, 22, 23, 24, 25, 26, 27, 28, 29, 30, 31, 32, 33, 34, 35, 36, 37, 38, 39, 40, 41, 42, 43, 44, 45, 46, 47, 48, 49, 50, 51, 52, 53, 54, 55, 56, 57, 58, 59, 60, 61, 62, 63, 64, 65, 66, 67, 68, 69, 70, 71, 72, 73, 74, 75, 76, 77, 78, 79, 80, 81, 82, 83, 84, 85, 86, 87, 88, 89, 90, 91, 92, 93, 94, 95, 96, 97, 98, 99, 100, 101, 102, 103, 104, 105, 106, 107, 108, 109, 110, 111, 112, 113, 114, 115, 116, 117, 118, 119, 120, 121, 122, 123, 124, 125, 126, 127, 128, 129, 130, 131, 132, 133, 134, 135, 136, 137, 138, 139, 140, 141, 142, 143, 144, 145, 146, 147, 148, 149, 150, 151, 152, 153, 154, 155, 156, 157, 158, 159, 160, 161, 162, 163, 164, 165, 166, 167, 168, 169, 170, 171, 172, 173, 174, 175, 176, 177, 178, 179, 180, 181, 182, 183, 184, 185, 186, 187, 188, 189, 190, 191, 192, 193, 194, 195, 196, 197, 198, 199, 200, 201, 202, 203, 204, 205, 206, 207, 208, 209, 210, 211, 212, 213, 214, 215, 216, 217, 218, 219, 220, 221, 222, 223, 224, 225, 226, 227, 228, 229, 230, 231, 232, 233, 234, 235, 236, 237, 238, 239, 240, 241, 242, 243, 244, 245, 246, 247, 248, 249, 250, 251, 252, 253, 254, 255, 256, 257, 258, 259, 260, 261, 262, 263, 264, 265, 266, 267, 268, 269, 270, 271, 272, 273, 274, 275, 276, 277, 278, 279, 280, 281, 282, 283, 284, 285, 286, 287, 288, 289, 290, 291, 292, 293, 294, 295, 296, 297, 298, 299, 300, 301, 302, 303, 304, 305, 306, 307, 308, 309, 310, 311, 312, 313, 314, 315, 316, 317, 318, 319, 320, 321, 322, 323, 324, 325, 326, 327, 328, 329, 330, 331, 332, 333, 334, 335, 336, 337, 338, 339, 340, 341, 342, 343, 344, 345, 346, 347, 348, 349, 350, 351, 352, 353, 354, 355, 356, 357, 358, 359, 360, 361, 362, 363, 364, 365, 366, 367, 368, 369, 370, 371, 372, 373, 374, 375, 376, 377, 378, 379, 380, 381, 382, 383, 384, 385, 386, 387, 388, 389, 390, 391, 392, 393, 394, 395, 396, 397, 398, 399, 400, 401, 402, 403, 404, 405, 406, 407, 408, 409, 410, 411, 412, 413, 414, 415, 416, 417, 418, 419, 420, 421, 422, 423, 424, 425, 426, 427, 428, 429, 430, 431, 432, 433, 434, 435, 436, 437, 438, 439, 440, 441, 442, 443, 444, 445, 446, 447, 448, 449, 450, 451, 452, 453, 454, 455, 456, 457, 458, 459, 460, 461, 462, 463, 464, 465, 466, 467, 468],
      "AcquisitionTime": ["100701.545000", "100703.035000", "100704.525000", "100706.015000", "100707.505000", "100708.995000", "100710.485000", "100711.975000", "100713.465000", "100714.955000", "100716.445000", "100717.935000", "100719.425000", "100720.915000", "100722.405000", "100723.895000", "100725.385000", "100726.875000", "100728.365000", "100729.855000", "100731.345000", "100732.835000", "100734.325000", "100735.815000", "100737.305000", "100738.795000", "100740.285000", "100741.775000", "100743.265000", "100744.755000", "100746.245000", "100747.735000", "100749.225000", "100750.715000", "100752.205000", "100753.695000", "100755.185000", "100756.675000", "100758.165000", "100759.655000", "100801.145000", "100802.635000", "100804.125000", "100805.615000", "100807.105000", "100808.595000", "100810.085000", "100811.575000", "100813.065000", "100814.555000", "100816.045000", "100817.535000", "100819.025000", "100820.515000", "100822.005000", "100823.495000", "100824.985000", "100826.475000", "100827.965000", "100829.455000", "100830.945000", "100832.435000", "100833.925000", "100835.415000", "100836.905000", "100838.395000", "100839.885000", "100841.375000", "100842.865000", "100844.355000", "100845.845000", "100847.335000", "100848.825000", "100850.315000", "100851.805000", "100853.295000", "100854.785000", "100856.275000", "100857.765000", "100859.255000", "100900.745000", "100902.235000", "100903.725000", "100905.215000", "100906.705000", "100908.195000", "100909.685000", "100911.175000", "100912.665000", "100914.155000", "100915.645000", "100917.135000", "100918.625000", "100920.115000", "100921.605000", "100923.095000", "100924.585000", "100926.075000", "100927.565000", "100929.055000", "100930.545000", "100932.035000", "100933.525000", "100935.015000", "100936.505000", "100937.995000", "100939.485000", "100940.975000", "100942.465000", "100943.955000", "100945.445000", "100946.935000", "100948.425000", "100949.915000", "100951.405000", "100952.895000", "100954.385000", "100955.875000", "100957.365000", "100958.855000", "101000.345000", "101001.835000", "101003.325000", "101004.815000", "101006.305000", "101007.795000", "101009.285000", "101010.775000", "101012.265000", "101013.755000", "101015.245000", "101016.735000", "101018.225000", "101019.715000", "101021.205000", "101022.695000", "101024.185000", "101025.675000", "101027.165000", "101028.655000", "101030.145000", "101031.635000", "101033.125000", "101034.615000", "101036.105000", "101037.595000", "101039.085000", "101040.575000", "101042.065000", "101043.555000", "101045.045000", "101046.535000", "101048.025000", "101049.515000", "101051.005000", "101052.495000", "101053.985000", "101055.475000", "101056.965000", "101058.455000", "101059.945000", "101101.435000", "101102.925000", "101104.415000", "101105.905000", "101107.395000", "101108.885000", "101110.375000", "101111.865000", "101113.355000", "101114.845000", "101116.335000", "101117.825000", "101119.315000", "101120.805000", "101122.295000", "101123.785000", "101125.275000", "101126.765000", "101128.255000", "101129.745000", "101131.235000", "101132.725000", "101134.215000", "101135.705000", "101137.195000", "101138.685000", "101140.175000", "101141.665000", "101143.155000", "101144.645000", "101146.135000", "101147.625000", "101149.115000", "101150.605000", "101152.095000", "101153.585000", "101155.075000", "101156.565000", "101158.055000", "101159.545000", "101201.035000", "101202.525000", "101204.015000", "101205.505000", "101206.995000", "101208.485000", "101209.975000", "101211.465000", "101212.955000", "101214.445000", "101215.935000", "101217.425000", "101218.915000", "101220.405000", "101221.895000", "101223.385000", "101224.875000", "101226.365000", "101227.855000", "101229.345000", "101230.835000", "101232.325000", "101233.815000", "101235.305000", "101236.795000", "101238.285000", "101239.775000", "101241.265000", "101242.755000", "101244.245000", "101245.735000", "101247.225000", "101248.715000", "101250.205000", "101251.695000", "101253.185000", "101254.675000", "101256.165000", "101257.655000", "101259.145000", "101300.635000", "101302.125000", "101303.615000", "101305.105000", "101306.595000", "101308.085000", "101309.575000", "101311.065000", "101312.555000", "101314.045000", "101315.535000", "101317.025000", "101318.515000", "101320.005000", "101321.495000", "101322.985000", "101324.475000", "101325.965000", "101327.455000", "101328.945000", "101330.435000", "101331.925000", "101333.415000", "101334.905000", "101336.395000", "101337.885000", "101339.375000", "101340.865000", "101342.355000", "101343.845000", "101345.335000", "101346.825000", "101348.315000", "101349.805000", "101351.295000", "101352.785000", "101354.275000", "101355.765000", "101357.255000", "101358.745000", "101400.235000", "101401.725000", "101403.215000", "101404.705000", "101406.195000", "101407.685000", "101409.175000", "101410.665000", "101412.155000", "101413.645000", "101415.135000", "101416.625000", "101418.115000", "101419.605000", "101421.095000", "101422.585000", "101424.075000", "101425.565000", "101427.055000", "101428.545000", "101430.035000", "101431.525000", "101433.015000", "101434.505000", "101435.995000", "101437.485000", "101438.975000", "101440.465000", "101441.955000", "101443.445000", "101444.935000", "101446.425000", "101447.915000", "101449.405000", "101450.895000", "101452.385000", "101453.875000", "101455.365000", "101456.855000", "101458.345000", "101459.835000", "101501.325000", "101502.815000", "101504.305000", "101505.795000", "101507.285000", "101508.775000", "101510.265000", "101511.755000", "101513.245000", "101514.735000", "101516.225000", "101517.715000", "101519.205000", "101520.695000", "101522.185000", "101523.675000", "101525.165000", "101526.655000", "101528.145000", "101529.635000", "101531.125000", "101532.615000", "101534.105000", "101535.595000", "101537.085000", "101538.575000", "101540.065000", "101541.555000", "101543.045000", "101544.535000", "101546.025000", "101547.515000", "101549.005000", "101550.495000", "101551.985000", "101553.475000", "101554.965000", "101556.455000", "101557.945000", "101559.435000", "101600.925000", "101602.415000", "101603.905000", "101605.395000", "101606.885000", "101608.375000", "101609.865000", "101611.355000", "101612.845000", "101614.335000", "101615.825000", "101617.315000", "101618.805000", "101620.295000", "101621.785000", "101623.275000", "101624.765000", "101626.255000", "101627.745000", "101629.235000", "101630.725000", "101632.215000", "101633.705000", "101635.195000", "101636.685000", "101638.175000", "101639.665000", "101641.155000", "101642.645000", "101644.135000", "101645.625000", "101647.115000", "101648.605000", "101650.095000", "101651.585000", "101653.075000", "101654.565000", "101656.055000", "101657.545000", "101659.035000", "101700.525000", "101702.015000", "101703.505000", "101704.995000", "101706.485000", "101707.975000", "101709.465000", "101710.955000", "101712.445000", "101713.935000", "101715.425000", "101716.915000", "101718.405000", "101719.895000", "101721.385000", "101722.875000", "101724.365000", "101725.855000", "101727.345000", "101728.835000", "101730.325000", "101731.815000", "101733.305000", "101734.795000", "101736.285000", "101737.775000", "101739.265000", "101740.755000", "101742.245000", "101743.735000", "101745.225000", "101746.715000", "101748.205000", "101749.695000", "101751.185000", "101752.675000", "101754.165000", "101755.655000", "101757.145000", "101758.635000", "101800.125000", "101801.615000", "101803.105000", "101804.595000", "101806.085000", "101807.575000", "101809.065000", "101810.555000", "101812.045000", "101813.535000", "101815.025000", "101816.515000", "101818.005000", "101819.495000", "101820.985000", "101822.475000", "101823.965000", "101825.455000", "101826.945000", "101828.435000", "101829.925000", "101831.415000", "101832.905000", "101834.395000", "101835.885000", "101837.375000"],
      "ContentTime": ["100834.256000", "100834.259000", "100834.262000", "100834.265000", "100834.268000", "100834.271000", "100834.276000", "100834.279000", "100834.288000", "100834.291000", "100834.294000", "100834.297000", "100834.300000", "100834.302000", "100834.305000", "100834.308000", "100834.311000", "100834.314000", "100834.317000", "100834.320000", "100834.323000", "100834.326000", "100834.328000", "100834.331000", "100834.334000", "100834.337000", "100834.340000", "100834.343000", "100834.346000", "100834.349000", "100834.351000", "100834.354000", "100834.357000", "100834.360000", "100834.363000", "100834.366000", "100834.369000", "100834.371000", "100854.227000", "100854.230000", "100854.233000", "100854.236000", "100854.238000", "100854.241000", "100854.244000", "100854.247000", "100854.250000", "100854.253000", "100854.255000", "100854.258000", "100854.261000", "100854.264000", "100854.267000", "100854.270000", "100854.272000", "100854.275000", "100854.278000", "100854.281000", "100914.227000", "100914.230000", "100914.233000", "100914.235000", "100914.238000", "100914.241000", "100914.244000", "100914.247000", "100914.260000", "100914.263000", "100914.266000", "100914.269000", "100914.272000", "100914.275000", "100914.278000", "100914.280000", "100914.283000", "100914.286000", "100914.289000", "100914.292000", "100934.227000", "100934.230000", "100934.233000", "100934.236000", "100934.238000", "100934.241000", "100934.244000", "100934.247000", "100934.250000", "100934.253000", "100934.256000", "100934.258000", "100934.261000", "100934.264000", "100934.267000", "100934.270000", "100934.273000", "100934.276000", "100934.279000", "100934.281000", "101014.228000", "101014.231000", "101014.234000", "101014.237000", "101014.240000", "101014.243000", "101014.245000", "101014.248000", "101014.251000", "101014.254000", "101014.257000", "101014.260000", "101014.262000", "101014.265000", "101014.268000", "101014.271000", "101014.274000", "101014.277000", "101014.279000", "101014.282000", "101014.285000", "101014.288000", "101014.291000", "101014.294000", "101014.296000", "101014.299000", "101014.302000", "101014.305000", "101014.308000", "101014.311000", "101054.227000", "101054.230000", "101054.233000", "101054.236000", "101054.238000", "101054.241000", "101054.244000", "101054.247000", "101054.250000", "101054.253000", "101054.256000", "101054.258000", "101054.261000", "101054.264000", "101054.267000", "101054.270000", "101054.273000", "101054.276000", "101054.278000", "101054.281000", "101054.284000", "101054.287000", "101054.290000", "101054.292000", "101054.295000", "101054.298000", "101054.301000", "101134.227000", "101134.230000", "101134.233000", "101134.235000", "101134.238000", "101134.241000", "101134.244000", "101134.247000", "101134.250000", "101134.253000", "101134.255000", "101134.258000", "101134.261000", "101134.271000", "101134.274000", "101134.277000", "101134.279000", "101134.282000", "101134.285000", "101134.288000", "101134.291000", "101134.294000", "101134.296000", "101134.299000", "101134.302000", "101134.305000", "101134.308000", "101214.228000", "101214.231000", "101214.234000", "101214.237000", "101214.239000", "101214.242000", "101214.245000", "101214.248000", "101214.251000", "101214.254000", "101214.257000", "101214.259000", "101214.262000", "101214.265000", "101214.268000", "101214.271000", "101214.274000", "101214.277000", "101214.280000", "101214.283000", "101214.285000", "101214.288000", "101214.291000", "101214.294000", "101214.297000", "101214.300000", "101214.302000", "101254.228000", "101254.231000", "101254.234000", "101254.237000", "101254.240000", "101254.243000", "101254.246000", "101254.249000", "101254.252000", "101254.255000", "101254.258000", "101254.261000", "101254.264000", "101254.266000", "101254.270000", "101254.273000", "101254.275000", "101254.278000", "101254.281000", "101254.284000", "101254.287000", "101254.290000", "101254.293000", "101254.296000", "101254.299000", "101254.301000", "101254.304000", "101334.227000", "101334.236000", "101334.238000", "101334.242000", "101334.245000", "101334.248000", "101334.251000", "101334.254000", "101334.257000", "101334.260000", "101334.262000", "101334.265000", "101334.268000", "101334.271000", "101334.274000", "101334.277000", "101334.280000", "101334.282000", "101334.285000", "101334.288000", "101334.291000", "101334.294000", "101334.297000", "101334.300000", "101334.303000", "101334.306000", "101414.227000", "101414.230000", "101414.233000", "101414.236000", "101414.239000", "101414.260000", "101414.263000", "101414.266000", "101414.269000", "101414.272000", "101414.275000", "101414.278000", "101414.280000", "101414.283000", "101414.286000", "101414.289000", "101414.292000", "101414.295000", "101414.298000", "101414.301000", "101414.304000", "101414.306000", "101414.309000", "101414.312000", "101414.315000", "101414.318000", "101414.321000", "101454.228000", "101454.231000", "101454.235000", "101454.237000", "101454.240000", "101454.243000", "101454.246000", "101454.249000", "101454.252000", "101454.255000", "101454.258000", "101454.260000", "101454.263000", "101454.266000", "101454.270000", "101454.273000", "101454.275000", "101454.278000", "101454.281000", "101454.284000", "101454.287000", "101454.290000", "101454.293000", "101454.295000", "101454.298000", "101454.301000", "101454.304000", "101534.227000", "101534.230000", "101534.233000", "101534.236000", "101534.238000", "101534.241000", "101534.244000", "101534.247000", "101534.250000", "101534.253000", "101534.256000", "101534.259000", "101534.261000", "101534.264000", "101534.267000", "101534.270000", "101534.273000", "101534.276000", "101534.279000", "101534.281000", "101534.284000", "101534.287000", "101534.290000", "101534.293000", "101534.296000", "101534.299000", "101534.301000", "101614.227000", "101614.230000", "101614.233000", "101614.236000", "101614.239000", "101614.241000", "101614.244000", "101614.247000", "101614.250000", "101614.253000", "101614.256000", "101614.259000", "101614.262000", "101614.265000", "101614.267000", "101614.270000", "101614.273000", "101614.276000", "101614.279000", "101614.282000", "101614.284000", "101614.287000", "101614.290000", "101614.293000", "101614.296000", "101614.298000", "101614.301000", "101654.228000", "101654.231000", "101654.234000", "101654.237000", "101654.239000", "101654.242000", "101654.245000", "101654.248000", "101654.251000", "101654.254000", "101654.257000", "101654.260000", "101654.262000", "101654.265000", "101654.268000", "101654.271000", "101654.274000", "101654.277000", "101654.280000", "101654.283000", "101654.285000", "101654.288000", "101654.291000", "101654.294000", "101654.297000", "101654.299000", "101654.302000", "101734.227000", "101734.230000", "101734.233000", "101734.235000", "101734.238000", "101734.241000", "101734.245000", "101734.248000", "101734.251000", "101734.253000", "101734.257000", "101734.260000", "101734.263000", "101734.266000", "101734.269000", "101734.272000", "101734.275000", "101734.278000", "101734.281000", "101734.284000", "101734.287000", "101734.290000", "101734.293000", "101734.296000", "101734.299000", "101734.301000", "101814.227000", "101814.230000", "101814.233000", "101814.236000", "101814.239000", "101814.242000", "101814.244000", "101814.247000", "101814.250000", "101814.253000", "101814.256000", "101814.259000", "101814.262000", "101814.265000", "101814.267000", "101814.270000", "101814.273000", "101814.276000", "101814.279000", "101814.282000", "101814.285000", "101814.288000", "101814.290000", "101814.293000", "101814.296000", "101814.299000", "101814.302000", "101839.885000", "101839.888000", "101839.891000", "101839.894000", "101839.897000", "101839.900000", "101839.903000", "101839.906000", "101839.910000", "101839.913000", "101839.915000", "101839.918000", "101839.921000", "101839.924000", "101839.927000", "101839.930000", "101839.933000", "101839.936000"],
