{
  "AcquisitionMatrixPE": 104,
  "AcquisitionNumber": 1,
  "AcquisitionTime": "09:31:10.112500",
  "BandwidthPerPixelPhaseEncode": 17.17,
  "BaseResolution": 104,
  "BodyPartExamined": "BRAIN",
  "CoilString": "HC1-7;NC1_2",
  "ConsistencyInfo": "N4_VE11C_LATEST_20160120",
  "ConversionSoftware": "dcm2niix",
  "ConversionSoftwareVersion": "v1.0.20190902",
  "DerivedVendorReportedEchoSpacing": 0.000560011,
  "DeviceSerialNumber": "167006",
  "DwellTime": 2.1e-06,
  "EchoTime": 0.037,
  "EchoTrainLength": 104,
  "EffectiveEchoSpacing": 0.000560011,
  "FlipAngle": 52,
  "ImageComments": "Unaliased_MB4_PE3_LB",
  "ImageOrientationPatientDICOM": [0.999962, 0.00824361, -0.00283343, -0.008552, 0.86483, -0.501992],
  "ImageType": [
    "ORIGINAL",
    "PRIMARY",
    "M",
    "MB",
    "ND",
    "MOSAIC"
],
  "ImagingFrequency": 123.259,
  "InPlanePhaseEncodingDirectionDICOM": "COL",
  "InstitutionAddress": "Chemin_Queen-Mary_4565_Montreal_District_CA_H3W_1W5",
  "InstitutionName": "IUGM",
  "InstitutionalDepartmentName": "Department",
  "MRAcquisitionType": "2D",
  "MagneticFieldStrength": 3,
  "Manufacturer": "Siemens",
  "ManufacturersModelName": "Prisma_fit",
  "Modality": "MR",
  "MultibandAccelerationFactor": 4,
  "PartialFourier": 1,
  "PatientPosition": "HFS",
  "PercentPhaseFOV": 100,
  "PhaseEncodingDirection": "j",
  "PhaseEncodingSteps": 104,
  "PhaseResolution": 1,
  "PixelBandwidth": 2290,
  "ProcedureStepDescription": "video_friends",
  "ProtocolName": "func_task-friends-s03e15a",
  "PulseSequenceDetails": "%CustomerSeq%_cmrr_mbep2d_bold",
  "ReceiveCoilActiveElements": "HC1-7;NC1,2",
  "ReceiveCoilName": "HeadNeck_64",
  "ReconMatrixPE": 104,
  "RepetitionTime": 1.49,
  "SAR": 0.0345847,
  "ScanOptions": "FS",
  "ScanningSequence": "EP",
  "SequenceName": "epfid2d1_104",
  "SequenceVariant": "SK_SS",
  "SeriesDescription": "func_task-friends-s03e15a",
  "SeriesNumber": 9,
  "ShimSetting": [620, -7200, -8871, 439, -13, -183, 3, -20],
  "SliceThickness": 2,
  "SliceTiming": [0, 0.7825, 0.0975, 0.8825, 0.195, 0.98, 0.295, 1.0775, 0.3925, 1.175, 0.49, 1.2725, 0.5875, 1.3725, 0.685, 0, 0.7825, 0.0975, 0.8825, 0.195, 0.98, 0.295, 1.0775, 0.3925, 1.175, 0.49, 1.2725, 0.5875, 1.3725, 0.685, 0, 0.7825, 0.0975, 0.8825, 0.195, 0.98, 0.295, 1.0775, 0.3925, 1.175, 0.49, 1.2725, 0.5875, 1.3725, 0.685, 0, 0.7825, 0.0975, 0.8825, 0.195, 0.98, 0.295, 1.0775, 0.3925, 1.175, 0.49, 1.2725, 0.5875, 1.3725, 0.685],
  "SoftwareVersions": "syngo_MR_E11",
  "SpacingBetweenSlices": 2,
  "StationName": "MRC35049",
  "TaskName": "s03e15a",
  "TotalReadoutTime": 0.0576811,
  "TxRefAmp": 248.29,
  "WipMemBlock": "215ccd59-a171-47fa-9b82-68c0b5dd9c9b||Sequence: R016 ve11c/master r/e634e98; Dec 19 2017 11:00:25 by eja",
  "dcmmeta_affine": [
    [-1.9999240636825562, -0.017104005441069603, 0.0033755775075405836, 103.35778045654297],
    [-0.01648721471428871, 1.7296602725982666, -1.0039938688278198, -58.9567756652832],
    [-0.005666857119649649, 1.0039836168289185, 1.7297354936599731, -102.00848388671875],
    [0.0, 0.0, 0.0, 1.0]
],
  "dcmmeta_reorient_transform": [
    [0.0, -1.0, 0.0, 103.0],
    [1.0, 0.0, 0.0, 0.0],
    [0.0, 0.0, 1.0, 0.0],
    [0.0, 0.0, 0.0, 1.0]
],
  "dcmmeta_shape": [104, 104, 60, 458],
  "dcmmeta_slice_dim": 2,
  "dcmmeta_version": 0.6,
  "global": {
    "const": {
      "AcquisitionMatrix": [104, 0, 0, 104],
      "AngioFlag": "N",
      "BitsAllocated": 16,
      "BitsStored": 16,
      "BodyPartExamined": "BRAIN",
      "Columns": 832,
      "EchoNumbers": 1,
      "EchoTime": 37.0,
      "EchoTrainLength": 104,
      "FlipAngle": 52.0,
      "HighBit": 15,
      "ImageOrientationPatient": [0.9999620065901, 0.00824360714639, -0.0028334285789, -0.0085520024306, 0.86483010659237, -0.5019917827872],
      "ImagePositionPatient": [-823.34254983514, -754.79588940096, 368.9145773825],
      "ImageType": [
        "ORIGINAL",
        "PRIMARY",
        "M",
        "MB",
        "ND",
        "MOSAIC"
],
      "ImagedNucleus": "1H",
      "ImagingFrequency": 123.259044,
      "InPlanePhaseEncodingDirection": "COL",
      "MRAcquisitionType": "2D",
      "MagneticFieldStrength": 3.0,
      "Manufacturer": "SIEMENS",
      "ManufacturerModelName": "Prisma_fit",
      "Modality": "MR",
      "NumberOfAverages": 1.0,
      "NumberOfPhaseEncodingSteps": 104,
      "PercentPhaseFieldOfView": 100.0,
      "PercentSampling": 100.0,
      "PerformedProcedureStepStartTime": "090737.841000",
      "PhotometricInterpretation": "MONOCHROME2",
      "PixelBandwidth": 2290.0,
      "PixelRepresentation": 0,
      "PixelSpacing": [2.0, 2.0],
      "ProtocolName": "func_task-friends-s03e15a",
      "RepetitionTime": 1490.0,
      "Rows": 832,
      "SAR": 0.03458469379255,
      "SamplesPerPixel": 1,
      "ScanOptions": "FS",
      "ScanningSequence": "EP",
      "SequenceName": "epfid2d1_104",
      "SequenceVariant": [
        "SK",
        "SS"
],
      "SeriesDescription": "func_task-friends-s03e15a",
      "SeriesNumber": 9,
      "SeriesTime": "093234.268000",
      "SliceLocation": -58.45328019567,
      "SliceThickness": 2.0,
      "SmallestImagePixelValue": 0,
      "SoftwareVersions": "syngo MR E11",
      "SpacingBetweenSlices": 2.0000000124064,
      "SpecificCharacterSet": "ISO_IR 100",
      "StudyID": "1",
      "StudyTime": "090737.659000",
      "TransmitCoilName": "Body",
      "VariableFlipAngleFlag": "N",
      "WindowCenterWidthExplanation": "Algo1",
      "dBdt": 0.0},
    "slices": {}
  },
  "time": {
    "samples": {
      "AcquisitionNumber": [1, 2, 3, 4, 5, 6, 7, 8, 9, 10, 11, 12, 13, 14, 15, 16, 17, 18, 19, 20, 21, 22, 23, 24, 25, 26, 27, 28, 29, 30, 31, 32, 33, 34, 35, 36, 37, 38, 39, 40, 41, 42, 43, 44, 45, 46, 47, 48, 49, 50, 51, 52, 53, 54, 55, 56, 57, 58, 59, 60, 61, 62, 63, 64, 65, 66, 67, 68, 69, 70, 71, 72, 73, 74, 75, 76, 77, 78, 79, 80, 81, 82, 83, 84, 85, 86, 87, 88, 89, 90, 91, 92, 93, 94, 95, 96, 97, 98, 99, 100, 101, 102, 103, 104, 105, 106, 107, 108, 109, 110, 111, 112, 113, 114, 115, 116, 117, 118, 119, 120, 121, 122, 123, 124, 125, 126, 127, 128, 129, 130, 131, 132, 133, 134, 135, 136, 137, 138, 139, 140, 141, 142, 143, 144, 145, 146, 147, 148, 149, 150, 151, 152, 153, 154, 155, 156, 157, 158, 159, 160, 161, 162, 163, 164, 165, 166, 167, 168, 169, 170, 171, 172, 173, 174, 175, 176, 177, 178, 179, 180, 181, 182, 183, 184, 185, 186, 187, 188, 189, 190, 191, 192, 193, 194, 195, 196, 197, 198, 199, 200, 201, 202, 203, 204, 205, 206, 207, 208, 209, 210, 211, 212, 213, 214, 215, 216, 217, 218, 219, 220, 221, 222, 223, 224, 225, 226, 227, 228, 229, 230, 231, 232, 233, 234, 235, 236, 237, 238, 239, 240, 241, 242, 243, 244, 245, 246, 247, 248, 249, 250, 251, 252, 253, 254, 255, 256, 257, 258, 259, 260, 261, 262, 263, 264, 265, 266, 267, 268, 269, 270, 271, 272, 273, 274, 275, 276, 277, 278, 279, 280, 281, 282, 283, 284, 285, 286, 287, 288, 289, 290, 291, 292, 293, 294, 295, 296, 297, 298, 299, 300, 301, 302, 303, 304, 305, 306, 307, 308, 309, 310, 311, 312, 313, 314, 315, 316, 317, 318, 319, 320, 321, 322, 323, 324, 325, 326, 327, 328, 329, 330, 331, 332, 333, 334, 335, 336, 337, 338, 339, 340, 341, 342, 343, 344, 345, 346, 347, 348, 349, 350, 351, 352, 353, 354, 355, 356, 357, 358, 359, 360, 361, 362, 363, 364, 365, 366, 367, 368, 369, 370, 371, 372, 373, 374, 375, 376, 377, 378, 379, 380, 381, 382, 383, 384, 385, 386, 387, 388, 389, 390, 391, 392, 393, 394, 395, 396, 397, 398, 399, 400, 401, 402, 403, 404, 405, 406, 407, 408, 409, 410, 411, 412, 413, 414, 415, 416, 417, 418, 419, 420, 421, 422, 423, 424, 425, 426, 427, 428, 429, 430, 431, 432, 433, 434, 435, 436, 437, 438, 439, 440, 441, 442, 443, 444, 445, 446, 447, 448, 449, 450, 451, 452, 453, 454, 455, 456, 457, 458],
      "AcquisitionTime": ["093110.112500", "093111.602500", "093113.092500", "093114.582500", "093116.072500", "093117.562500", "093119.052500", "093120.542500", "093122.032500", "093123.522500", "093125.012500", "093126.502500", "093127.992500", "093129.482500", "093130.972500", "093132.462500", "093133.952500", "093135.442500", "093136.932500", "093138.422500", "093139.912500", "093141.402500", "093142.892500", "093144.382500", "093145.872500", "093147.362500", "093148.852500", "093150.342500", "093151.832500", "093153.322500", "093154.812500", "093156.302500", "093157.792500", "093159.282500", "093200.772500", "093202.262500", "093203.752500", "093205.242500", "093206.732500", "093208.222500", "093209.712500", "093211.202500", "093212.692500", "093214.182500", "093215.672500", "093217.162500", "093218.652500", "093220.142500", "093221.632500", "093223.122500", "093224.612500", "093226.102500", "093227.592500", "093229.082500", "093230.572500", "093232.062500", "093233.552500", "093235.042500", "093236.532500", "093238.022500", "093239.512500", "093241.002500", "093242.492500", "093243.982500", "093245.472500", "093246.962500", "093248.452500", "093249.942500", "093251.432500", "093252.922500", "093254.412500", "093255.902500", "093257.392500", "093258.882500", "093300.372500", "093301.862500", "093303.352500", "093304.842500", "093306.332500", "093307.822500", "093309.312500", "093310.802500", "093312.292500", "093313.782500", "093315.272500", "093316.762500", "093318.252500", "093319.742500", "093321.232500", "093322.722500", "093324.212500", "093325.702500", "093327.192500", "093328.682500", "093330.172500", "093331.662500", "093333.152500", "093334.642500", "093336.132500", "093337.622500", "093339.112500", "093340.602500", "093342.092500", "093343.582500", "093345.072500", "093346.562500", "093348.052500", "093349.542500", "093351.032500", "093352.522500", "093354.012500", "093355.502500", "093356.992500", "093358.482500", "093359.972500", "093401.462500", "093402.952500", "093404.442500", "093405.932500", "093407.422500", "093408.912500", "093410.402500", "093411.892500", "093413.382500", "093414.872500", "093416.362500", "093417.852500", "093419.342500", "093420.832500", "093422.322500", "093423.812500", "093425.302500", "093426.792500", "093428.282500", "093429.772500", "093431.262500", "093432.752500", "093434.242500", "093435.732500", "093437.222500", "093438.712500", "093440.202500", "093441.692500", "093443.182500", "093444.672500", "093446.162500", "093447.652500", "093449.142500", "093450.632500", "093452.122500", "093453.612500", "093455.102500", "093456.592500", "093458.082500", "093459.572500", "093501.062500", "093502.552500", "093504.042500", "093505.532500", "093507.022500", "093508.512500", "093510.002500", "093511.492500", "093512.982500", "093514.472500", "093515.962500", "093517.452500", "093518.942500", "093520.432500", "093521.922500", "093523.412500", "093524.902500", "093526.392500", "093527.882500", "093529.372500", "093530.862500", "093532.352500", "093533.842500", "093535.332500", "093536.822500", "093538.312500", "093539.802500", "093541.292500", "093542.782500", "093544.272500", "093545.762500", "093547.252500", "093548.742500", "093550.232500", "093551.722500", "093553.212500", "093554.702500", "093556.192500", "093557.682500", "093559.172500", "093600.662500", "093602.152500", "093603.642500", "093605.132500", "093606.622500", "093608.112500", "093609.602500", "093611.092500", "093612.582500", "093614.072500", "093615.562500", "093617.052500", "093618.542500", "093620.032500", "093621.522500", "093623.012500", "093624.502500", "093625.992500", "093627.482500", "093628.972500", "093630.462500", "093631.952500", "093633.442500", "093634.932500", "093636.422500", "093637.912500", "093639.402500", "093640.892500", "093642.382500", "093643.872500", "093645.362500", "093646.852500", "093648.342500", "093649.832500", "093651.322500", "093652.812500", "093654.302500", "093655.792500", "093657.282500", "093658.772500", "093700.262500", "093701.752500", "093703.242500", "093704.732500", "093706.222500", "093707.712500", "093709.202500", "093710.692500", "093712.182500", "093713.672500", "093715.162500", "093716.652500", "093718.142500", "093719.632500", "093721.122500", "093722.612500", "093724.102500", "093725.592500", "093727.082500", "093728.572500", "093730.062500", "093731.552500", "093733.042500", "093734.532500", "093736.022500", "093737.512500", "093739.002500", "093740.492500", "093741.982500", "093743.472500", "093744.962500", "093746.452500", "093747.942500", "093749.432500", "093750.922500", "093752.412500", "093753.902500", "093755.392500", "093756.882500", "093758.372500", "093759.862500", "093801.352500", "093802.842500", "093804.332500", "093805.822500", "093807.312500", "093808.802500", "093810.292500", "093811.782500", "093813.272500", "093814.762500", "093816.252500", "093817.742500", "093819.232500", "093820.722500", "093822.212500", "093823.702500", "093825.192500", "093826.682500", "093828.172500", "093829.662500", "093831.152500", "093832.642500", "093834.132500", "093835.622500", "093837.112500", "093838.602500", "093840.092500", "093841.582500", "093843.072500", "093844.562500", "093846.052500", "093847.542500", "093849.032500", "093850.522500", "093852.012500", "093853.502500", "093854.992500", "093856.482500", "093857.972500", "093859.462500", "093900.952500", "093902.442500", "093903.932500", "093905.422500", "093906.912500", "093908.402500", "093909.892500", "093911.382500", "093912.872500", "093914.362500", "093915.852500", "093917.342500", "093918.832500", "093920.322500", "093921.812500", "093923.302500", "093924.792500", "093926.282500", "093927.772500", "093929.262500", "093930.752500", "093932.242500", "093933.732500", "093935.222500", "093936.712500", "093938.202500", "093939.692500", "093941.182500", "093942.672500", "093944.162500", "093945.652500", "093947.142500", "093948.632500", "093950.122500", "093951.612500", "093953.102500", "093954.592500", "093956.082500", "093957.572500", "093959.062500", "094000.552500", "094002.042500", "094003.532500", "094005.022500", "094006.512500", "094008.002500", "094009.492500", "094010.982500", "094012.472500", "094013.962500", "094015.452500", "094016.942500", "094018.432500", "094019.922500", "094021.412500", "094022.902500", "094024.392500", "094025.882500", "094027.372500", "094028.862500", "094030.352500", "094031.842500", "094033.332500", "094034.822500", "094036.312500", "094037.802500", "094039.292500", "094040.782500", "094042.272500", "094043.762500", "094045.252500", "094046.742500", "094048.232500", "094049.722500", "094051.212500", "094052.702500", "094054.192500", "094055.682500", "094057.172500", "094058.662500", "094100.152500", "094101.642500", "094103.132500", "094104.622500", "094106.112500", "094107.602500", "094109.092500", "094110.582500", "094112.072500", "094113.562500", "094115.052500", "094116.542500", "094118.032500", "094119.522500", "094121.012500", "094122.502500", "094123.992500", "094125.482500", "094126.972500", "094128.462500", "094129.952500", "094131.442500", "094132.932500", "094134.422500", "094135.912500", "094137.402500", "094138.892500", "094140.382500", "094141.872500", "094143.362500", "094144.852500", "094146.342500", "094147.832500", "094149.322500", "094150.812500", "094152.302500", "094153.792500", "094155.282500", "094156.772500", "094158.262500", "094159.752500", "094201.242500", "094202.732500", "094204.222500", "094205.712500", "094207.202500", "094208.692500", "094210.182500", "094211.672500", "094213.162500", "094214.652500", "094216.142500", "094217.632500", "094219.122500", "094220.612500", "094222.102500", "094223.592500", "094225.082500", "094226.572500", "094228.062500", "094229.552500", "094231.042500"],
      "ContentTime": ["093234.270000", "093234.274000", "093234.277000", "093234.279000", "093234.282000", "093234.285000", "093234.288000", "093234.291000", "093234.294000", "093234.296000", "093234.306000", "093234.309000", "093234.311000", "093234.318000", "093234.321000", "093234.323000", "093234.326000", "093234.329000", "093234.332000", "093234.335000", "093234.337000", "093234.340000", "093234.343000", "093234.346000", "093234.349000", "093234.352000", "093234.355000", "093234.357000", "093234.360000", "093254.228000", "093254.231000", "093254.234000", "093254.237000", "093254.239000", "093254.242000", "093254.245000", "093254.248000", "093254.253000", "093254.255000", "093254.258000", "093254.261000", "093254.264000", "093254.267000", "093254.270000", "093254.272000", "093254.275000", "093254.278000", "093254.281000", "093254.284000", "093314.228000", "093314.231000", "093314.234000", "093314.236000", "093314.239000", "093314.242000", "093314.245000", "093314.248000", "093314.251000", "093314.253000", "093314.256000", "093314.259000", "093314.262000", "093314.266000", "093314.270000", "093314.273000", "093314.276000", "093314.279000", "093314.282000", "093314.284000", "093334.227000", "093334.230000", "093334.232000", "093334.242000", "093334.245000", "093334.248000", "093334.250000", "093334.253000", "093334.256000", "093334.259000", "093334.262000", "093334.265000", "093334.268000", "093334.270000", "093334.273000", "093334.276000", "093334.279000", "093334.282000", "093334.284000", "093334.287000", "093334.290000", "093414.227000", "093414.240000", "093414.243000", "093414.246000", "093414.249000", "093414.252000", "093414.255000", "093414.258000", "093414.260000", "093414.263000", "093414.266000", "093414.269000", "093414.272000", "093414.275000", "093414.277000", "093414.280000", "093414.283000", "093414.286000", "093414.289000", "093414.292000", "093414.295000", "093414.298000", "093414.300000", "093414.303000", "093414.306000", "093414.309000", "093414.312000", "093414.315000", "093414.317000", "093414.320000", "093414.323000", "093414.326000", "093414.329000", "093454.227000", "093454.230000", "093454.233000", "093454.235000", "093454.238000", "093454.241000", "093454.244000", "093454.247000", "093454.250000", "093454.253000", "093454.255000", "093454.258000", "093454.261000", "093454.264000", "093454.267000", "093454.270000", "093454.273000", "093454.276000", "093454.279000", "093454.283000", "093454.286000", "093454.289000", "093454.292000", "093454.303000", "093454.306000", "093454.309000", "093534.228000", "093534.231000", "093534.233000", "093534.236000", "093534.239000", "093534.242000", "093534.245000", "093534.248000", "093534.251000", "093534.259000", "093534.262000", "093534.265000", "093534.268000", "093534.270000", "093534.273000", "093534.276000", "093534.279000", "093534.282000", "093534.285000", "093534.287000", "093534.290000", "093534.293000", "093534.296000", "093534.299000", "093534.302000", "093534.305000", "093534.307000", "093614.227000", "093614.230000", "093614.233000", "093614.236000", "093614.238000", "093614.241000", "093614.244000", "093614.247000", "093614.250000", "093614.253000", "093614.255000", "093614.259000", "093614.261000", "093614.264000", "093614.267000", "093614.270000", "093614.273000", "093614.276000", "093614.278000", "093614.281000", "093614.284000", "093614.287000", "093614.290000", "093614.293000", "093614.296000", "093614.298000", "093614.301000", "093654.227000", "093654.230000", "093654.233000", "093654.236000", "093654.238000", "093654.241000", "093654.244000", "093654.247000", "093654.250000", "093654.252000", "093654.256000", "093654.264000", "093654.266000", "093654.269000", "093654.272000", "093654.275000", "093654.278000", "093654.280000", "093654.283000", "093654.286000", "093654.289000", "093654.292000", "093654.295000", "093654.298000", "093654.300000", "093654.303000", "093654.306000", "093734.228000", "093734.239000", "093734.241000", "093734.244000", "093734.247000", "093734.250000", "093734.253000", "093734.256000", "093734.258000", "093734.261000", "093734.264000", "093734.267000", "093734.270000", "093734.273000", "093734.276000", "093734.279000", "093734.281000", "093734.284000", "093734.287000", "093734.290000", "093734.293000", "093734.296000", "093734.299000", "093734.301000", "093734.304000", "093734.307000", "093734.310000", "093814.227000", "093814.230000", "093814.233000", "093814.235000", "093814.238000", "093814.241000", "093814.244000", "093814.247000", "093814.250000", "093814.253000", "093814.255000", "093814.258000", "093814.261000", "093814.264000", "093814.267000", "093814.270000", "093814.273000", "093814.275000", "093814.278000", "093814.281000", "093814.284000", "093814.287000", "093814.290000", "093814.292000", "093814.296000", "093814.298000", "093814.301000", "093854.227000", "093854.230000", "093854.233000", "093854.241000", "093854.244000", "093854.247000", "093854.250000", "093854.253000", "093854.256000", "093854.258000", "093854.261000", "093854.264000", "093854.267000", "093854.270000", "093854.273000", "093854.276000", "093854.279000", "093854.282000", "093854.284000", "093854.287000", "093854.290000", "093854.293000", "093854.296000", "093854.299000", "093854.302000", "093854.305000", "093854.307000", "093934.228000", "093934.231000", "093934.234000", "093934.236000", "093934.239000", "093934.242000", "093934.245000", "093934.248000", "093934.251000", "093934.254000", "093934.257000", "093934.259000", "093934.263000", "093934.266000", "093934.269000", "093934.271000", "093934.274000", "093934.277000", "093934.280000", "093934.283000", "093934.286000", "093934.289000", "093934.291000", "093934.294000", "093934.311000", "093934.314000", "094014.228000", "094014.231000", "094014.234000", "094014.237000", "094014.240000", "094014.242000", "094014.245000", "094014.248000", "094014.251000", "094014.254000", "094014.257000", "094014.259000", "094014.263000", "094014.265000", "094014.268000", "094014.271000", "094014.274000", "094014.277000", "094014.280000", "094014.282000", "094014.285000", "094014.288000", "094014.291000", "094014.294000", "094014.297000", "094014.299000", "094014.302000", "094054.227000", "094054.230000", "094054.233000", "094054.236000", "094054.238000", "094054.241000", "094054.244000", "094054.247000", "094054.250000", "094054.253000", "094054.255000", "094054.258000", "094054.261000", "094054.264000", "094054.267000", "094054.270000", "094054.273000", "094054.276000", "094054.278000", "094054.281000", "094054.284000", "094054.287000", "094054.290000", "094054.293000", "094054.296000", "094054.299000", "094054.301000", "094134.227000", "094134.230000", "094134.233000", "094134.236000", "094134.238000", "094134.241000", "094134.244000", "094134.247000", "094134.250000", "094134.253000", "094134.256000", "094134.259000", "094134.261000", "094134.264000", "094134.267000", "094134.270000", "094134.273000", "094134.276000", "094134.279000", "094134.281000", "094134.284000", "094134.287000", "094134.290000", "094134.293000", "094134.296000", "094134.299000", "094134.302000", "094214.228000", "094214.231000", "094214.234000", "094214.237000", "094214.239000", "094214.243000", "094214.245000", "094214.248000", "094214.251000", "094214.254000", "094214.257000", "094214.260000", "094214.263000", "094214.266000", "094214.269000", "094214.271000", "094214.274000", "094214.277000", "094214.280000", "094214.283000", "094214.286000", "094214.289000", "094214.291000", "094214.294000", "094214.297000", "094214.300000", "094214.303000", "094233.244000", "094233.248000", "094233.250000", "094233.253000", "094233.270000", "094233.273000", "094233.276000", "094233.279000", "094233.282000", "094233.286000", "094233.289000", "094233.292000", "094233.295000"],
