{
  "AcquisitionMatrixPE": 104,
  "AcquisitionNumber": 1,
  "AcquisitionTime": "10:31:9.377500",
  "BandwidthPerPixelPhaseEncode": 17.17,
  "BaseResolution": 104,
  "BodyPartExamined": "BRAIN",
  "CoilString": "HC1-7;NC1_2",
  "ConsistencyInfo": "N4_VE11C_LATEST_20160120",
  "ConversionSoftware": "dcm2niix",
  "ConversionSoftwareVersion": "v1.0.20190902",
  "DerivedVendorReportedEchoSpacing": 0.000560011,
  "DeviceSerialNumber": "167006",
  "DwellTime": 2.1e-06,
  "EchoTime": 0.037,
  "EchoTrainLength": 104,
  "EffectiveEchoSpacing": 0.000560011,
  "FlipAngle": 52,
  "ImageComments": "Unaliased_MB4_PE3_LB",
  "ImageOrientationPatientDICOM": [0.999962, 0.00824361, -0.00283343, -0.008552, 0.86483, -0.501992],
  "ImageType": [
    "ORIGINAL",
    "PRIMARY",
    "M",
    "MB",
    "ND",
    "MOSAIC"
],
  "ImagingFrequency": 123.259,
  "InPlanePhaseEncodingDirectionDICOM": "COL",
  "InstitutionAddress": "Chemin_Queen-Mary_4565_Montreal_District_CA_H3W_1W5",
  "InstitutionName": "IUGM",
  "InstitutionalDepartmentName": "Department",
  "MRAcquisitionType": "2D",
  "MagneticFieldStrength": 3,
  "Manufacturer": "Siemens",
  "ManufacturersModelName": "Prisma_fit",
  "Modality": "MR",
  "MultibandAccelerationFactor": 4,
  "PartialFourier": 1,
  "PatientPosition": "HFS",
  "PercentPhaseFOV": 100,
  "PhaseEncodingDirection": "j",
  "PhaseEncodingSteps": 104,
  "PhaseResolution": 1,
  "PixelBandwidth": 2290,
  "ProcedureStepDescription": "video_friends",
  "ProtocolName": "func_task-friends-s03e17b",
  "PulseSequenceDetails": "%CustomerSeq%_cmrr_mbep2d_bold",
  "ReceiveCoilActiveElements": "HC1-7;NC1,2",
  "ReceiveCoilName": "HeadNeck_64",
  "ReconMatrixPE": 104,
  "RepetitionTime": 1.49,
  "SAR": 0.0345831,
  "ScanOptions": "FS",
  "ScanningSequence": "EP",
  "SequenceName": "epfid2d1_104",
  "SequenceVariant": "SK_SS",
  "SeriesDescription": "func_task-friends-s03e17b",
  "SeriesNumber": 19,
  "ShimSetting": [620, -7200, -8871, 439, -13, -183, 3, -20],
  "SliceThickness": 2,
  "SliceTiming": [0, 0.7825, 0.0975, 0.8825, 0.195, 0.98, 0.2925, 1.0775, 0.3925, 1.175, 0.49, 1.2725, 0.5875, 1.3725, 0.685, 0, 0.7825, 0.0975, 0.8825, 0.195, 0.98, 0.2925, 1.0775, 0.3925, 1.175, 0.49, 1.2725, 0.5875, 1.3725, 0.685, 0, 0.7825, 0.0975, 0.8825, 0.195, 0.98, 0.2925, 1.0775, 0.3925, 1.175, 0.49, 1.2725, 0.5875, 1.3725, 0.685, 0, 0.7825, 0.0975, 0.8825, 0.195, 0.98, 0.2925, 1.0775, 0.3925, 1.175, 0.49, 1.2725, 0.5875, 1.3725, 0.685],
  "SoftwareVersions": "syngo_MR_E11",
  "SpacingBetweenSlices": 2,
  "StationName": "MRC35049",
  "TaskName": "s03e17b",
  "TotalReadoutTime": 0.0576811,
  "TxRefAmp": 248.29,
  "WipMemBlock": "0570eb8b-b5a2-438a-a94c-4e0ad71a1941||Sequence: R016 ve11c/master r/e634e98; Dec 19 2017 11:00:25 by eja",
  "dcmmeta_affine": [
    [-1.9999240636825562, -0.017104005441069603, 0.0033755775075405836, 103.35778045654297],
    [-0.01648721471428871, 1.7296602725982666, -1.0039938688278198, -58.9567756652832],
    [-0.005666857119649649, 1.0039836168289185, 1.7297354936599731, -102.00848388671875],
    [0.0, 0.0, 0.0, 1.0]
],
  "dcmmeta_reorient_transform": [
    [0.0, -1.0, 0.0, 103.0],
    [1.0, 0.0, 0.0, 0.0],
    [0.0, 0.0, 1.0, 0.0],
    [0.0, 0.0, 0.0, 1.0]
],
  "dcmmeta_shape": [104, 104, 60, 453],
  "dcmmeta_slice_dim": 2,
  "dcmmeta_version": 0.6,
  "global": {
    "const": {
      "AcquisitionMatrix": [104, 0, 0, 104],
      "AngioFlag": "N",
      "BitsAllocated": 16,
      "BitsStored": 16,
      "BodyPartExamined": "BRAIN",
      "Columns": 832,
      "EchoNumbers": 1,
      "EchoTime": 37.0,
      "EchoTrainLength": 104,
      "FlipAngle": 52.0,
      "HighBit": 15,
      "ImageOrientationPatient": [0.9999620065901, 0.00824360714639, -0.0028334285789, -0.0085520024306, 0.86483010659237, -0.5019917827872],
      "ImagePositionPatient": [-823.34254983514, -754.79588940096, 368.9145773825],
      "ImageType": [
        "ORIGINAL",
        "PRIMARY",
        "M",
        "MB",
        "ND",
        "MOSAIC"
],
      "ImagedNucleus": "1H",
      "ImagingFrequency": 123.259074,
      "InPlanePhaseEncodingDirection": "COL",
      "MRAcquisitionType": "2D",
      "MagneticFieldStrength": 3.0,
      "Manufacturer": "SIEMENS",
      "ManufacturerModelName": "Prisma_fit",
      "Modality": "MR",
      "NumberOfAverages": 1.0,
      "NumberOfPhaseEncodingSteps": 104,
      "PercentPhaseFieldOfView": 100.0,
      "PercentSampling": 100.0,
      "PerformedProcedureStepStartTime": "090737.841000",
      "PhotometricInterpretation": "MONOCHROME2",
      "PixelBandwidth": 2290.0,
      "PixelRepresentation": 0,
      "PixelSpacing": [2.0, 2.0],
      "ProtocolName": "func_task-friends-s03e17b",
      "RepetitionTime": 1490.0,
      "Rows": 832,
      "SAR": 0.03458304939971,
      "SamplesPerPixel": 1,
      "ScanOptions": "FS",
      "ScanningSequence": "EP",
      "SequenceName": "epfid2d1_104",
      "SequenceVariant": [
        "SK",
        "SS"
],
      "SeriesDescription": "func_task-friends-s03e17b",
      "SeriesNumber": 19,
      "SeriesTime": "103244.331000",
      "SliceLocation": -58.45328019567,
      "SliceThickness": 2.0,
      "SmallestImagePixelValue": 0,
      "SoftwareVersions": "syngo MR E11",
      "SpacingBetweenSlices": 2.0000000124064,
      "SpecificCharacterSet": "ISO_IR 100",
      "StudyID": "1",
      "StudyTime": "090737.659000",
      "TransmitCoilName": "Body",
      "VariableFlipAngleFlag": "N",
      "WindowCenterWidthExplanation": "Algo1",
      "dBdt": 0.0},
    "slices": {}
  },
  "time": {
    "samples": {
      "AcquisitionNumber": [1, 2, 3, 4, 5, 6, 7, 8, 9, 10, 11, 12, 13, 14, 15, 16, 17, 18, 19, 20, 21, 22, 23, 24, 25, 26, 27, 28, 29, 30, 31, 32, 33, 34, 35, 36, 37, 38, 39, 40, 41, 42, 43, 44, 45, 46, 47, 48, 49, 50, 51, 52, 53, 54, 55, 56, 57, 58, 59, 60, 61, 62, 63, 64, 65, 66, 67, 68, 69, 70, 71, 72, 73, 74, 75, 76, 77, 78, 79, 80, 81, 82, 83, 84, 85, 86, 87, 88, 89, 90, 91, 92, 93, 94, 95, 96, 97, 98, 99, 100, 101, 102, 103, 104, 105, 106, 107, 108, 109, 110, 111, 112, 113, 114, 115, 116, 117, 118, 119, 120, 121, 122, 123, 124, 125, 126, 127, 128, 129, 130, 131, 132, 133, 134, 135, 136, 137, 138, 139, 140, 141, 142, 143, 144, 145, 146, 147, 148, 149, 150, 151, 152, 153, 154, 155, 156, 157, 158, 159, 160, 161, 162, 163, 164, 165, 166, 167, 168, 169, 170, 171, 172, 173, 174, 175, 176, 177, 178, 179, 180, 181, 182, 183, 184, 185, 186, 187, 188, 189, 190, 191, 192, 193, 194, 195, 196, 197, 198, 199, 200, 201, 202, 203, 204, 205, 206, 207, 208, 209, 210, 211, 212, 213, 214, 215, 216, 217, 218, 219, 220, 221, 222, 223, 224, 225, 226, 227, 228, 229, 230, 231, 232, 233, 234, 235, 236, 237, 238, 239, 240, 241, 242, 243, 244, 245, 246, 247, 248, 249, 250, 251, 252, 253, 254, 255, 256, 257, 258, 259, 260, 261, 262, 263, 264, 265, 266, 267, 268, 269, 270, 271, 272, 273, 274, 275, 276, 277, 278, 279, 280, 281, 282, 283, 284, 285, 286, 287, 288, 289, 290, 291, 292, 293, 294, 295, 296, 297, 298, 299, 300, 301, 302, 303, 304, 305, 306, 307, 308, 309, 310, 311, 312, 313, 314, 315, 316, 317, 318, 319, 320, 321, 322, 323, 324, 325, 326, 327, 328, 329, 330, 331, 332, 333, 334, 335, 336, 337, 338, 339, 340, 341, 342, 343, 344, 345, 346, 347, 348, 349, 350, 351, 352, 353, 354, 355, 356, 357, 358, 359, 360, 361, 362, 363, 364, 365, 366, 367, 368, 369, 370, 371, 372, 373, 374, 375, 376, 377, 378, 379, 380, 381, 382, 383, 384, 385, 386, 387, 388, 389, 390, 391, 392, 393, 394, 395, 396, 397, 398, 399, 400, 401, 402, 403, 404, 405, 406, 407, 408, 409, 410, 411, 412, 413, 414, 415, 416, 417, 418, 419, 420, 421, 422, 423, 424, 425, 426, 427, 428, 429, 430, 431, 432, 433, 434, 435, 436, 437, 438, 439, 440, 441, 442, 443, 444, 445, 446, 447, 448, 449, 450, 451, 452, 453],
      "AcquisitionTime": ["103109.377500", "103110.867500", "103112.357500", "103113.847500", "103115.337500", "103116.827500", "103118.317500", "103119.807500", "103121.297500", "103122.787500", "103124.277500", "103125.767500", "103127.257500", "103128.747500", "103130.237500", "103131.727500", "103133.217500", "103134.707500", "103136.197500", "103137.687500", "103139.177500", "103140.667500", "103142.157500", "103143.647500", "103145.137500", "103146.627500", "103148.117500", "103149.607500", "103151.097500", "103152.587500", "103154.077500", "103155.567500", "103157.057500", "103158.547500", "103200.037500", "103201.527500", "103203.017500", "103204.507500", "103205.997500", "103207.487500", "103208.977500", "103210.467500", "103211.957500", "103213.447500", "103214.937500", "103216.427500", "103217.917500", "103219.407500", "103220.897500", "103222.387500", "103223.877500", "103225.367500", "103226.857500", "103228.347500", "103229.837500", "103231.327500", "103232.817500", "103234.307500", "103235.797500", "103237.287500", "103238.777500", "103240.267500", "103241.757500", "103243.247500", "103244.737500", "103246.227500", "103247.717500", "103249.207500", "103250.697500", "103252.187500", "103253.677500", "103255.167500", "103256.657500", "103258.147500", "103259.637500", "103301.127500", "103302.617500", "103304.107500", "103305.597500", "103307.087500", "103308.577500", "103310.067500", "103311.557500", "103313.047500", "103314.537500", "103316.027500", "103317.517500", "103319.007500", "103320.497500", "103321.987500", "103323.477500", "103324.967500", "103326.457500", "103327.947500", "103329.437500", "103330.927500", "103332.417500", "103333.907500", "103335.397500", "103336.887500", "103338.377500", "103339.867500", "103341.357500", "103342.847500", "103344.337500", "103345.827500", "103347.317500", "103348.807500", "103350.297500", "103351.787500", "103353.277500", "103354.767500", "103356.257500", "103357.747500", "103359.237500", "103400.727500", "103402.217500", "103403.707500", "103405.197500", "103406.687500", "103408.177500", "103409.667500", "103411.157500", "103412.647500", "103414.137500", "103415.627500", "103417.117500", "103418.607500", "103420.097500", "103421.587500", "103423.077500", "103424.567500", "103426.057500", "103427.547500", "103429.037500", "103430.527500", "103432.017500", "103433.507500", "103434.997500", "103436.487500", "103437.977500", "103439.467500", "103440.957500", "103442.447500", "103443.937500", "103445.427500", "103446.917500", "103448.407500", "103449.897500", "103451.387500", "103452.877500", "103454.367500", "103455.857500", "103457.347500", "103458.837500", "103500.327500", "103501.817500", "103503.307500", "103504.797500", "103506.287500", "103507.777500", "103509.267500", "103510.757500", "103512.247500", "103513.737500", "103515.227500", "103516.717500", "103518.207500", "103519.697500", "103521.187500", "103522.677500", "103524.167500", "103525.657500", "103527.147500", "103528.637500", "103530.127500", "103531.617500", "103533.107500", "103534.597500", "103536.087500", "103537.577500", "103539.067500", "103540.557500", "103542.047500", "103543.537500", "103545.027500", "103546.517500", "103548.007500", "103549.497500", "103550.987500", "103552.477500", "103553.967500", "103555.457500", "103556.947500", "103558.437500", "103559.927500", "103601.417500", "103602.907500", "103604.397500", "103605.887500", "103607.377500", "103608.867500", "103610.357500", "103611.847500", "103613.337500", "103614.827500", "103616.317500", "103617.807500", "103619.297500", "103620.787500", "103622.277500", "103623.767500", "103625.257500", "103626.747500", "103628.237500", "103629.727500", "103631.217500", "103632.707500", "103634.197500", "103635.687500", "103637.177500", "103638.667500", "103640.157500", "103641.647500", "103643.137500", "103644.627500", "103646.117500", "103647.607500", "103649.097500", "103650.587500", "103652.077500", "103653.567500", "103655.057500", "103656.547500", "103658.037500", "103659.527500", "103701.017500", "103702.507500", "103703.997500", "103705.487500", "103706.977500", "103708.467500", "103709.957500", "103711.447500", "103712.937500", "103714.427500", "103715.917500", "103717.407500", "103718.897500", "103720.387500", "103721.877500", "103723.367500", "103724.857500", "103726.347500", "103727.837500", "103729.327500", "103730.817500", "103732.307500", "103733.797500", "103735.287500", "103736.777500", "103738.267500", "103739.757500", "103741.247500", "103742.737500", "103744.227500", "103745.717500", "103747.207500", "103748.697500", "103750.187500", "103751.677500", "103753.167500", "103754.657500", "103756.147500", "103757.637500", "103759.127500", "103800.617500", "103802.107500", "103803.597500", "103805.087500", "103806.577500", "103808.067500", "103809.557500", "103811.047500", "103812.537500", "103814.027500", "103815.517500", "103817.007500", "103818.497500", "103819.987500", "103821.477500", "103822.967500", "103824.457500", "103825.947500", "103827.437500", "103828.927500", "103830.417500", "103831.907500", "103833.397500", "103834.887500", "103836.377500", "103837.867500", "103839.357500", "103840.847500", "103842.337500", "103843.827500", "103845.317500", "103846.807500", "103848.297500", "103849.787500", "103851.277500", "103852.767500", "103854.257500", "103855.747500", "103857.237500", "103858.727500", "103900.217500", "103901.707500", "103903.197500", "103904.687500", "103906.177500", "103907.667500", "103909.157500", "103910.647500", "103912.137500", "103913.627500", "103915.117500", "103916.607500", "103918.097500", "103919.587500", "103921.077500", "103922.567500", "103924.057500", "103925.547500", "103927.037500", "103928.527500", "103930.017500", "103931.507500", "103932.997500", "103934.487500", "103935.977500", "103937.467500", "103938.957500", "103940.447500", "103941.937500", "103943.427500", "103944.917500", "103946.407500", "103947.897500", "103949.387500", "103950.877500", "103952.367500", "103953.857500", "103955.347500", "103956.837500", "103958.327500", "103959.817500", "104001.307500", "104002.797500", "104004.287500", "104005.777500", "104007.267500", "104008.757500", "104010.247500", "104011.737500", "104013.227500", "104014.717500", "104016.207500", "104017.697500", "104019.187500", "104020.677500", "104022.167500", "104023.657500", "104025.147500", "104026.637500", "104028.127500", "104029.617500", "104031.107500", "104032.597500", "104034.087500", "104035.577500", "104037.067500", "104038.557500", "104040.047500", "104041.537500", "104043.027500", "104044.517500", "104046.007500", "104047.497500", "104048.987500", "104050.477500", "104051.967500", "104053.457500", "104054.947500", "104056.437500", "104057.927500", "104059.417500", "104100.907500", "104102.397500", "104103.887500", "104105.377500", "104106.867500", "104108.357500", "104109.847500", "104111.337500", "104112.827500", "104114.317500", "104115.807500", "104117.297500", "104118.787500", "104120.277500", "104121.767500", "104123.257500", "104124.747500", "104126.237500", "104127.727500", "104129.217500", "104130.707500", "104132.197500", "104133.687500", "104135.177500", "104136.667500", "104138.157500", "104139.647500", "104141.137500", "104142.627500", "104144.117500", "104145.607500", "104147.097500", "104148.587500", "104150.077500", "104151.567500", "104153.057500", "104154.547500", "104156.037500", "104157.527500", "104159.017500", "104200.507500", "104201.997500", "104203.487500", "104204.977500", "104206.467500", "104207.957500", "104209.447500", "104210.937500", "104212.427500", "104213.917500", "104215.407500", "104216.897500", "104218.387500", "104219.877500", "104221.367500", "104222.857500"],
      "ContentTime": ["103244.334000", "103244.337000", "103244.340000", "103244.343000", "103244.345000", "103244.348000", "103244.351000", "103244.354000", "103244.357000", "103244.360000", "103244.363000", "103244.366000", "103244.370000", "103244.373000", "103244.376000", "103244.379000", "103244.381000", "103244.384000", "103244.387000", "103244.390000", "103244.393000", "103244.396000", "103244.399000", "103244.401000", "103244.404000", "103244.407000", "103244.410000", "103244.413000", "103244.416000", "103244.419000", "103244.422000", "103244.424000", "103244.427000", "103244.430000", "103244.433000", "103244.436000", "103244.439000", "103244.442000", "103244.445000", "103244.447000", "103304.305000", "103304.308000", "103304.311000", "103304.314000", "103304.323000", "103304.326000", "103304.329000", "103304.332000", "103304.335000", "103304.338000", "103304.341000", "103304.361000", "103304.364000", "103304.367000", "103304.370000", "103304.373000", "103304.375000", "103304.378000", "103304.381000", "103304.384000", "103324.305000", "103324.308000", "103324.311000", "103324.314000", "103324.317000", "103324.320000", "103324.323000", "103324.325000", "103324.328000", "103324.331000", "103324.334000", "103324.337000", "103324.340000", "103324.343000", "103324.345000", "103324.348000", "103324.351000", "103324.354000", "103324.357000", "103324.360000", "103344.305000", "103344.308000", "103344.311000", "103344.314000", "103344.317000", "103344.320000", "103344.322000", "103344.325000", "103344.328000", "103344.331000", "103344.334000", "103344.337000", "103344.340000", "103344.343000", "103344.345000", "103344.348000", "103344.351000", "103344.354000", "103344.357000", "103344.360000", "103424.305000", "103424.308000", "103424.311000", "103424.314000", "103424.317000", "103424.320000", "103424.323000", "103424.326000", "103424.328000", "103424.331000", "103424.334000", "103424.337000", "103424.340000", "103424.343000", "103424.346000", "103424.349000", "103424.352000", "103424.355000", "103424.358000", "103424.360000", "103424.363000", "103424.366000", "103424.369000", "103424.372000", "103424.375000", "103424.378000", "103424.381000", "103424.384000", "103424.391000", "103424.394000", "103444.305000", "103444.308000", "103444.311000", "103444.314000", "103444.317000", "103444.320000", "103444.323000", "103444.325000", "103444.328000", "103444.331000", "103444.334000", "103444.337000", "103444.340000", "103524.305000", "103524.308000", "103524.319000", "103524.322000", "103524.325000", "103524.328000", "103524.331000", "103524.334000", "103524.336000", "103524.339000", "103524.342000", "103524.345000", "103524.348000", "103524.351000", "103524.354000", "103524.357000", "103524.360000", "103524.363000", "103524.366000", "103524.369000", "103524.371000", "103524.374000", "103524.377000", "103524.380000", "103524.383000", "103524.386000", "103524.389000", "103604.305000", "103604.308000", "103604.311000", "103604.314000", "103604.317000", "103604.320000", "103604.323000", "103604.325000", "103604.328000", "103604.331000", "103604.334000", "103604.337000", "103604.340000", "103604.343000", "103604.346000", "103604.348000", "103604.351000", "103604.354000", "103604.357000", "103604.360000", "103604.363000", "103604.366000", "103604.368000", "103604.371000", "103604.374000", "103604.377000", "103604.380000", "103644.305000", "103644.308000", "103644.311000", "103644.314000", "103644.317000", "103644.320000", "103644.322000", "103644.325000", "103644.328000", "103644.331000", "103644.334000", "103644.337000", "103644.340000", "103644.343000", "103644.345000", "103644.348000", "103644.351000", "103644.354000", "103644.357000", "103644.360000", "103644.363000", "103644.365000", "103644.368000", "103644.371000", "103644.374000", "103644.377000", "103644.380000", "103724.305000", "103724.308000", "103724.311000", "103724.314000", "103724.317000", "103724.320000", "103724.323000", "103724.326000", "103724.328000", "103724.331000", "103724.347000", "103724.350000", "103724.353000", "103724.356000", "103724.358000", "103724.361000", "103724.364000", "103724.367000", "103724.370000", "103724.373000", "103724.376000", "103724.379000", "103724.384000", "103724.387000", "103724.390000", "103724.393000", "103724.396000", "103804.305000", "103804.308000", "103804.311000", "103804.314000", "103804.317000", "103804.320000", "103804.323000", "103804.325000", "103804.328000", "103804.331000", "103804.334000", "103804.337000", "103804.340000", "103804.343000", "103804.346000", "103804.349000", "103804.351000", "103804.354000", "103804.357000", "103804.360000", "103804.363000", "103804.366000", "103804.369000", "103804.372000", "103804.375000", "103804.377000", "103804.380000", "103844.305000", "103844.308000", "103844.311000", "103844.314000", "103844.317000", "103844.319000", "103844.322000", "103844.325000", "103844.328000", "103844.331000", "103844.334000", "103844.338000", "103844.341000", "103844.344000", "103844.347000", "103844.354000", "103844.357000", "103844.360000", "103844.363000", "103844.366000", "103844.368000", "103844.371000", "103844.374000", "103844.377000", "103844.380000", "103844.383000", "103924.305000", "103924.308000", "103924.311000", "103924.314000", "103924.317000", "103924.320000", "103924.323000", "103924.326000", "103924.328000", "103924.331000", "103924.334000", "103924.337000", "103924.340000", "103924.343000", "103924.346000", "103924.349000", "103924.352000", "103924.354000", "103924.357000", "103924.360000", "103924.363000", "103924.366000", "103924.369000", "103924.372000", "103924.375000", "103924.378000", "103924.380000", "104004.305000", "104004.308000", "104004.311000", "104004.314000", "104004.317000", "104004.320000", "104004.323000", "104004.326000", "104004.329000", "104004.331000", "104004.334000", "104004.337000", "104004.340000", "104004.343000", "104004.346000", "104004.349000", "104004.352000", "104004.355000", "104004.358000", "104004.361000", "104004.364000", "104004.367000", "104004.370000", "104004.373000", "104004.375000", "104004.378000", "104004.381000", "104044.305000", "104044.308000", "104044.311000", "104044.314000", "104044.317000", "104044.320000", "104044.323000", "104044.325000", "104044.328000", "104044.331000", "104044.334000", "104044.337000", "104044.340000", "104044.343000", "104044.346000", "104044.349000", "104044.351000", "104044.354000", "104044.357000", "104044.360000", "104044.363000", "104044.366000", "104044.369000", "104044.372000", "104044.374000", "104044.377000", "104044.380000", "104124.305000", "104124.308000", "104124.311000", "104124.314000", "104124.317000", "104124.320000", "104124.323000", "104124.343000", "104124.346000", "104124.349000", "104124.352000", "104124.355000", "104124.358000", "104124.361000", "104124.363000", "104124.366000", "104124.369000", "104124.372000", "104124.375000", "104124.378000", "104124.381000", "104124.384000", "104124.387000", "104124.389000", "104124.392000", "104124.395000", "104124.398000", "104204.305000", "104204.308000", "104204.311000", "104204.314000", "104204.317000", "104204.320000", "104204.323000", "104204.326000", "104204.328000", "104204.331000", "104204.334000", "104204.337000", "104204.340000", "104204.343000", "104204.345000", "104204.348000", "104204.351000", "104204.354000", "104204.357000", "104204.360000", "104204.363000", "104204.366000", "104204.369000", "104204.372000", "104204.374000", "104204.377000", "104204.380000", "104225.032000", "104225.035000", "104225.038000", "104225.041000", "104225.050000", "104225.053000", "104225.056000", "104225.059000", "104225.062000", "104225.064000", "104225.067000", "104225.070000", "104225.073000", "104225.076000"],
