{
  "AcquisitionMatrixPE": 104,
  "AcquisitionNumber": 1,
  "AcquisitionTime": "09:55:1.535000",
  "BandwidthPerPixelPhaseEncode": 17.17,
  "BaseResolution": 104,
  "BodyPartExamined": "BRAIN",
  "CoilString": "HC1-7;NC1_2",
  "ConsistencyInfo": "N4_VE11C_LATEST_20160120",
  "ConversionSoftware": "dcm2niix",
  "ConversionSoftwareVersion": "v1.0.20190902",
  "DerivedVendorReportedEchoSpacing": 0.000560011,
  "DeviceSerialNumber": "167006",
  "DwellTime": 2.1e-06,
  "EchoTime": 0.037,
  "EchoTrainLength": 104,
  "EffectiveEchoSpacing": 0.000560011,
  "FlipAngle": 52,
  "ImageComments": "Unaliased_MB4_PE3_LB",
  "ImageOrientationPatientDICOM": [0.999962, 0.00824361, -0.00283343, -0.008552, 0.86483, -0.501992],
  "ImageType": [
    "ORIGINAL",
    "PRIMARY",
    "M",
    "MB",
    "ND",
    "MOSAIC"
],
  "ImagingFrequency": 123.259,
  "InPlanePhaseEncodingDirectionDICOM": "COL",
  "InstitutionAddress": "Chemin_Queen-Mary_4565_Montreal_District_CA_H3W_1W5",
  "InstitutionName": "IUGM",
  "InstitutionalDepartmentName": "Department",
  "MRAcquisitionType": "2D",
  "MagneticFieldStrength": 3,
  "Manufacturer": "Siemens",
  "ManufacturersModelName": "Prisma_fit",
  "Modality": "MR",
  "MultibandAccelerationFactor": 4,
  "PartialFourier": 1,
  "PatientPosition": "HFS",
  "PercentPhaseFOV": 100,
  "PhaseEncodingDirection": "j",
  "PhaseEncodingSteps": 104,
  "PhaseResolution": 1,
  "PixelBandwidth": 2290,
  "ProcedureStepDescription": "video_friends",
  "ProtocolName": "func_task-friends-s03e16a",
  "PulseSequenceDetails": "%CustomerSeq%_cmrr_mbep2d_bold",
  "ReceiveCoilActiveElements": "HC1-7;NC1,2",
  "ReceiveCoilName": "HeadNeck_64",
  "ReconMatrixPE": 104,
  "RepetitionTime": 1.49,
  "SAR": 0.0345879,
  "ScanOptions": "FS",
  "ScanningSequence": "EP",
  "SequenceName": "epfid2d1_104",
  "SequenceVariant": "SK_SS",
  "SeriesDescription": "func_task-friends-s03e16a",
  "SeriesNumber": 13,
  "ShimSetting": [620, -7200, -8871, 439, -13, -183, 3, -20],
  "SliceThickness": 2,
  "SliceTiming": [0, 0.7825, 0.0975, 0.8825, 0.195, 0.98, 0.2925, 1.0775, 0.3925, 1.175, 0.49, 1.2725, 0.5875, 1.3725, 0.685, 0, 0.7825, 0.0975, 0.8825, 0.195, 0.98, 0.2925, 1.0775, 0.3925, 1.175, 0.49, 1.2725, 0.5875, 1.3725, 0.685, 0, 0.7825, 0.0975, 0.8825, 0.195, 0.98, 0.2925, 1.0775, 0.3925, 1.175, 0.49, 1.2725, 0.5875, 1.3725, 0.685, 0, 0.7825, 0.0975, 0.8825, 0.195, 0.98, 0.2925, 1.0775, 0.3925, 1.175, 0.49, 1.2725, 0.5875, 1.3725, 0.685],
  "SoftwareVersions": "syngo_MR_E11",
  "SpacingBetweenSlices": 2,
  "StationName": "MRC35049",
  "TaskName": "s03e16a",
  "TotalReadoutTime": 0.0576811,
  "TxRefAmp": 248.29,
  "WipMemBlock": "ca188489-7c25-4e4b-ace6-fa83b236ce90||Sequence: R016 ve11c/master r/e634e98; Dec 19 2017 11:00:25 by eja",
  "dcmmeta_affine": [
    [-1.9999240636825562, -0.017104005441069603, 0.0033755775075405836, 103.35778045654297],
    [-0.01648721471428871, 1.7296602725982666, -1.0039938688278198, -58.9567756652832],
    [-0.005666857119649649, 1.0039836168289185, 1.7297354936599731, -102.00848388671875],
    [0.0, 0.0, 0.0, 1.0]
],
  "dcmmeta_reorient_transform": [
    [0.0, -1.0, 0.0, 103.0],
    [1.0, 0.0, 0.0, 0.0],
    [0.0, 0.0, 1.0, 0.0],
    [0.0, 0.0, 0.0, 1.0]
],
  "dcmmeta_shape": [104, 104, 60, 468],
  "dcmmeta_slice_dim": 2,
  "dcmmeta_version": 0.6,
  "global": {
    "const": {
      "AcquisitionMatrix": [104, 0, 0, 104],
      "AngioFlag": "N",
      "BitsAllocated": 16,
      "BitsStored": 16,
      "BodyPartExamined": "BRAIN",
      "Columns": 832,
      "EchoNumbers": 1,
      "EchoTime": 37.0,
      "EchoTrainLength": 104,
      "FlipAngle": 52.0,
      "HighBit": 15,
      "ImageOrientationPatient": [0.9999620065901, 0.00824360714639, -0.0028334285789, -0.0085520024306, 0.86483010659237, -0.5019917827872],
      "ImagePositionPatient": [-823.34254983514, -754.79588940096, 368.9145773825],
      "ImageType": [
        "ORIGINAL",
        "PRIMARY",
        "M",
        "MB",
        "ND",
        "MOSAIC"
],
      "ImagedNucleus": "1H",
      "ImagingFrequency": 123.259062,
      "InPlanePhaseEncodingDirection": "COL",
      "MRAcquisitionType": "2D",
      "MagneticFieldStrength": 3.0,
      "Manufacturer": "SIEMENS",
      "ManufacturerModelName": "Prisma_fit",
      "Modality": "MR",
      "NumberOfAverages": 1.0,
      "NumberOfPhaseEncodingSteps": 104,
      "PercentPhaseFieldOfView": 100.0,
      "PercentSampling": 100.0,
      "PerformedProcedureStepStartTime": "090737.841000",
      "PhotometricInterpretation": "MONOCHROME2",
      "PixelBandwidth": 2290.0,
      "PixelRepresentation": 0,
      "PixelSpacing": [2.0, 2.0],
      "ProtocolName": "func_task-friends-s03e16a",
      "RepetitionTime": 1490.0,
      "Rows": 832,
      "SAR": 0.03458787872315,
      "SamplesPerPixel": 1,
      "ScanOptions": "FS",
      "ScanningSequence": "EP",
      "SequenceName": "epfid2d1_104",
      "SequenceVariant": [
        "SK",
        "SS"
],
      "SeriesDescription": "func_task-friends-s03e16a",
      "SeriesNumber": 13,
      "SeriesTime": "095604.348000",
      "SliceLocation": -58.45328019567,
      "SliceThickness": 2.0,
      "SmallestImagePixelValue": 0,
      "SoftwareVersions": "syngo MR E11",
      "SpacingBetweenSlices": 2.0000000124064,
      "SpecificCharacterSet": "ISO_IR 100",
      "StudyID": "1",
      "StudyTime": "090737.659000",
      "TransmitCoilName": "Body",
      "VariableFlipAngleFlag": "N",
      "WindowCenterWidthExplanation": "Algo1",
      "dBdt": 0.0},
    "slices": {}
  },
  "time": {
    "samples": {
      "AcquisitionNumber": [1, 2, 3, 4, 5, 6, 7, 8, 9, 10, 11, 12, 13, 14, 15, 16, 17, 18, 19, 20, 21, 22, 23, 24, 25, 26, 27, 28, 29, 30, 31, 32, 33, 34, 35, 36, 37, 38, 39, 40, 41, 42, 43, 44, 45, 46, 47, 48, 49, 50, 51, 52, 53, 54, 55, 56, 57, 58, 59, 60, 61, 62, 63, 64, 65, 66, 67, 68, 69, 70, 71, 72, 73, 74, 75, 76, 77, 78, 79, 80, 81, 82, 83, 84, 85, 86, 87, 88, 89, 90, 91, 92, 93, 94, 95, 96, 97, 98, 99, 100, 101, 102, 103, 104, 105, 106, 107, 108, 109, 110, 111, 112, 113, 114, 115, 116, 117, 118, 119, 120, 121, 122, 123, 124, 125, 126, 127, 128, 129, 130, 131, 132, 133, 134, 135, 136, 137, 138, 139, 140, 141, 142, 143, 144, 145, 146, 147, 148, 149, 150, 151, 152, 153, 154, 155, 156, 157, 158, 159, 160, 161, 162, 163, 164, 165, 166, 167, 168, 169, 170, 171, 172, 173, 174, 175, 176, 177, 178, 179, 180, 181, 182, 183, 184, 185, 186, 187, 188, 189, 190, 191, 192, 193, 194, 195, 196, 197, 198, 199, 200, 201, 202, 203, 204, 205, 206, 207, 208, 209, 210, 211, 212, 213, 214, 215, 216, 217, 218, 219, 220, 221, 222, 223, 224, 225, 226, 227, 228, 229, 230, 231, 232, 233, 234, 235, 236, 237, 238, 239, 240, 241, 242, 243, 244, 245, 246, 247, 248, 249, 250, 251, 252, 253, 254, 255, 256, 257, 258, 259, 260, 261, 262, 263, 264, 265, 266, 267, 268, 269, 270, 271, 272, 273, 274, 275, 276, 277, 278, 279, 280, 281, 282, 283, 284, 285, 286, 287, 288, 289, 290, 291, 292, 293, 294, 295, 296, 297, 298, 299, 300, 301, 302, 303, 304, 305, 306, 307, 308, 309, 310, 311, 312, 313, 314, 315, 316, 317, 318, 319, 320, 321, 322, 323, 324, 325, 326, 327, 328, 329, 330, 331, 332, 333, 334, 335, 336, 337, 338, 339, 340, 341, 342, 343, 344, 345, 346, 347, 348, 349, 350, 351, 352, 353, 354, 355, 356, 357, 358, 359, 360, 361, 362, 363, 364, 365, 366, 367, 368, 369, 370, 371, 372, 373, 374, 375, 376, 377, 378, 379, 380, 381, 382, 383, 384, 385, 386, 387, 388, 389, 390, 391, 392, 393, 394, 395, 396, 397, 398, 399, 400, 401, 402, 403, 404, 405, 406, 407, 408, 409, 410, 411, 412, 413, 414, 415, 416, 417, 418, 419, 420, 421, 422, 423, 424, 425, 426, 427, 428, 429, 430, 431, 432, 433, 434, 435, 436, 437, 438, 439, 440, 441, 442, 443, 444, 445, 446, 447, 448, 449, 450, 451, 452, 453, 454, 455, 456, 457, 458, 459, 460, 461, 462, 463, 464, 465, 466, 467, 468],
      "AcquisitionTime": ["095501.535000", "095503.025000", "095504.515000", "095506.005000", "095507.495000", "095508.985000", "095510.475000", "095511.965000", "095513.455000", "095514.945000", "095516.435000", "095517.925000", "095519.415000", "095520.905000", "095522.395000", "095523.885000", "095525.375000", "095526.865000", "095528.355000", "095529.845000", "095531.335000", "095532.825000", "095534.315000", "095535.805000", "095537.295000", "095538.785000", "095540.275000", "095541.765000", "095543.255000", "095544.745000", "095546.235000", "095547.725000", "095549.215000", "095550.705000", "095552.195000", "095553.685000", "095555.175000", "095556.665000", "095558.155000", "095559.645000", "095601.135000", "095602.625000", "095604.115000", "095605.605000", "095607.095000", "095608.585000", "095610.075000", "095611.565000", "095613.055000", "095614.545000", "095616.035000", "095617.525000", "095619.015000", "095620.505000", "095621.995000", "095623.485000", "095624.975000", "095626.465000", "095627.955000", "095629.445000", "095630.935000", "095632.425000", "095633.915000", "095635.405000", "095636.895000", "095638.385000", "095639.875000", "095641.365000", "095642.855000", "095644.345000", "095645.835000", "095647.325000", "095648.815000", "095650.305000", "095651.795000", "095653.285000", "095654.775000", "095656.265000", "095657.755000", "095659.245000", "095700.735000", "095702.225000", "095703.715000", "095705.205000", "095706.695000", "095708.185000", "095709.675000", "095711.165000", "095712.655000", "095714.145000", "095715.635000", "095717.125000", "095718.615000", "095720.105000", "095721.595000", "095723.085000", "095724.575000", "095726.065000", "095727.555000", "095729.045000", "095730.535000", "095732.025000", "095733.515000", "095735.005000", "095736.495000", "095737.985000", "095739.475000", "095740.965000", "095742.455000", "095743.945000", "095745.435000", "095746.925000", "095748.415000", "095749.905000", "095751.395000", "095752.885000", "095754.375000", "095755.865000", "095757.355000", "095758.845000", "095800.335000", "095801.825000", "095803.315000", "095804.805000", "095806.295000", "095807.785000", "095809.275000", "095810.765000", "095812.255000", "095813.745000", "095815.235000", "095816.725000", "095818.215000", "095819.705000", "095821.195000", "095822.685000", "095824.175000", "095825.665000", "095827.155000", "095828.645000", "095830.135000", "095831.625000", "095833.115000", "095834.605000", "095836.095000", "095837.585000", "095839.075000", "095840.565000", "095842.055000", "095843.545000", "095845.035000", "095846.525000", "095848.015000", "095849.505000", "095850.995000", "095852.485000", "095853.975000", "095855.465000", "095856.955000", "095858.445000", "095859.935000", "095901.425000", "095902.915000", "095904.405000", "095905.895000", "095907.385000", "095908.875000", "095910.365000", "095911.855000", "095913.345000", "095914.835000", "095916.325000", "095917.815000", "095919.305000", "095920.795000", "095922.285000", "095923.775000", "095925.265000", "095926.755000", "095928.245000", "095929.735000", "095931.225000", "095932.715000", "095934.205000", "095935.695000", "095937.185000", "095938.675000", "095940.165000", "095941.655000", "095943.145000", "095944.635000", "095946.125000", "095947.615000", "095949.105000", "095950.595000", "095952.085000", "095953.575000", "095955.065000", "095956.555000", "095958.045000", "095959.535000", "100001.025000", "100002.515000", "100004.005000", "100005.495000", "100006.985000", "100008.475000", "100009.965000", "100011.455000", "100012.945000", "100014.435000", "100015.925000", "100017.415000", "100018.905000", "100020.395000", "100021.885000", "100023.375000", "100024.865000", "100026.355000", "100027.845000", "100029.335000", "100030.825000", "100032.315000", "100033.805000", "100035.295000", "100036.785000", "100038.275000", "100039.765000", "100041.255000", "100042.745000", "100044.235000", "100045.725000", "100047.215000", "100048.705000", "100050.195000", "100051.685000", "100053.175000", "100054.665000", "100056.155000", "100057.645000", "100059.135000", "100100.625000", "100102.115000", "100103.605000", "100105.095000", "100106.585000", "100108.075000", "100109.565000", "100111.055000", "100112.545000", "100114.035000", "100115.525000", "100117.015000", "100118.505000", "100119.995000", "100121.485000", "100122.975000", "100124.465000", "100125.955000", "100127.445000", "100128.935000", "100130.425000", "100131.915000", "100133.405000", "100134.895000", "100136.385000", "100137.875000", "100139.365000", "100140.855000", "100142.345000", "100143.835000", "100145.325000", "100146.815000", "100148.305000", "100149.795000", "100151.285000", "100152.775000", "100154.265000", "100155.755000", "100157.245000", "100158.735000", "100200.225000", "100201.715000", "100203.205000", "100204.695000", "100206.185000", "100207.675000", "100209.165000", "100210.655000", "100212.145000", "100213.635000", "100215.125000", "100216.615000", "100218.105000", "100219.595000", "100221.085000", "100222.575000", "100224.065000", "100225.555000", "100227.045000", "100228.535000", "100230.025000", "100231.515000", "100233.005000", "100234.495000", "100235.985000", "100237.475000", "100238.965000", "100240.455000", "100241.945000", "100243.435000", "100244.925000", "100246.415000", "100247.905000", "100249.395000", "100250.885000", "100252.375000", "100253.865000", "100255.355000", "100256.845000", "100258.335000", "100259.825000", "100301.315000", "100302.805000", "100304.295000", "100305.785000", "100307.275000", "100308.765000", "100310.255000", "100311.745000", "100313.235000", "100314.725000", "100316.215000", "100317.705000", "100319.195000", "100320.685000", "100322.175000", "100323.665000", "100325.155000", "100326.645000", "100328.135000", "100329.625000", "100331.115000", "100332.605000", "100334.095000", "100335.585000", "100337.075000", "100338.565000", "100340.055000", "100341.545000", "100343.035000", "100344.525000", "100346.015000", "100347.505000", "100348.995000", "100350.485000", "100351.975000", "100353.465000", "100354.955000", "100356.445000", "100357.935000", "100359.425000", "100400.915000", "100402.405000", "100403.895000", "100405.385000", "100406.875000", "100408.365000", "100409.855000", "100411.345000", "100412.835000", "100414.325000", "100415.815000", "100417.305000", "100418.795000", "100420.285000", "100421.775000", "100423.265000", "100424.755000", "100426.245000", "100427.735000", "100429.225000", "100430.715000", "100432.205000", "100433.695000", "100435.185000", "100436.675000", "100438.165000", "100439.655000", "100441.145000", "100442.635000", "100444.125000", "100445.615000", "100447.105000", "100448.595000", "100450.085000", "100451.575000", "100453.065000", "100454.555000", "100456.045000", "100457.535000", "100459.025000", "100500.515000", "100502.005000", "100503.495000", "100504.985000", "100506.475000", "100507.965000", "100509.455000", "100510.945000", "100512.435000", "100513.925000", "100515.415000", "100516.905000", "100518.395000", "100519.885000", "100521.375000", "100522.865000", "100524.355000", "100525.845000", "100527.335000", "100528.825000", "100530.315000", "100531.805000", "100533.295000", "100534.785000", "100536.275000", "100537.765000", "100539.255000", "100540.745000", "100542.235000", "100543.725000", "100545.215000", "100546.705000", "100548.195000", "100549.685000", "100551.175000", "100552.665000", "100554.155000", "100555.645000", "100557.135000", "100558.625000", "100600.115000", "100601.605000", "100603.095000", "100604.585000", "100606.075000", "100607.565000", "100609.055000", "100610.545000", "100612.035000", "100613.525000", "100615.015000", "100616.505000", "100617.995000", "100619.485000", "100620.975000", "100622.465000", "100623.955000", "100625.445000", "100626.935000", "100628.425000", "100629.915000", "100631.405000", "100632.895000", "100634.385000", "100635.875000", "100637.365000"],
      "ContentTime": ["095604.352000", "095604.356000", "095604.359000", "095604.362000", "095604.365000", "095624.305000", "095624.308000", "095624.311000", "095624.313000", "095624.317000", "095624.319000", "095624.322000", "095624.326000", "095624.329000", "095624.332000", "095624.335000", "095624.338000", "095624.341000", "095624.343000", "095624.346000", "095624.349000", "095624.352000", "095624.355000", "095624.358000", "095624.362000", "095624.365000", "095644.305000", "095644.308000", "095644.311000", "095644.314000", "095644.316000", "095644.319000", "095644.322000", "095644.325000", "095644.328000", "095644.331000", "095644.333000", "095644.342000", "095644.345000", "095644.348000", "095644.351000", "095644.354000", "095644.357000", "095644.359000", "095644.362000", "095644.365000", "095704.305000", "095704.308000", "095704.311000", "095704.314000", "095704.317000", "095704.324000", "095704.327000", "095704.330000", "095704.333000", "095704.336000", "095704.338000", "095704.341000", "095704.344000", "095704.347000", "095704.350000", "095704.353000", "095704.356000", "095704.358000", "095704.361000", "095704.364000", "095724.305000", "095724.308000", "095724.311000", "095724.314000", "095724.317000", "095724.319000", "095724.322000", "095724.325000", "095724.328000", "095724.331000", "095724.333000", "095724.336000", "095724.339000", "095724.342000", "095724.345000", "095724.348000", "095724.351000", "095724.353000", "095724.356000", "095724.359000", "095744.305000", "095744.308000", "095744.311000", "095744.314000", "095744.316000", "095744.319000", "095744.322000", "095744.325000", "095744.328000", "095744.331000", "095744.334000", "095744.336000", "095744.339000", "095744.342000", "095744.345000", "095744.348000", "095744.351000", "095744.353000", "095744.356000", "095744.359000", "095824.305000", "095824.308000", "095824.311000", "095824.314000", "095824.317000", "095824.321000", "095824.324000", "095824.327000", "095824.330000", "095824.333000", "095824.336000", "095824.338000", "095824.341000", "095824.344000", "095824.347000", "095824.350000", "095824.353000", "095824.356000", "095824.359000", "095824.361000", "095824.364000", "095824.367000", "095824.370000", "095824.373000", "095824.376000", "095824.379000", "095824.381000", "095824.394000", "095824.396000", "095904.304000", "095904.307000", "095904.310000", "095904.313000", "095904.316000", "095904.318000", "095904.321000", "095904.324000", "095904.327000", "095904.330000", "095904.333000", "095904.336000", "095904.339000", "095904.342000", "095904.345000", "095904.347000", "095904.350000", "095904.353000", "095904.356000", "095904.359000", "095904.362000", "095904.365000", "095904.368000", "095904.370000", "095904.373000", "095904.376000", "095904.379000", "095944.305000", "095944.308000", "095944.311000", "095944.314000", "095944.317000", "095944.320000", "095944.323000", "095944.325000", "095944.328000", "095944.331000", "095944.334000", "095944.353000", "095944.355000", "095944.358000", "095944.361000", "095944.364000", "095944.367000", "095944.370000", "095944.373000", "095944.375000", "095944.378000", "095944.381000", "095944.384000", "095944.387000", "095944.390000", "095944.393000", "095944.396000", "100024.305000", "100024.308000", "100024.311000", "100024.314000", "100024.317000", "100024.320000", "100024.322000", "100024.325000", "100024.328000", "100024.331000", "100024.334000", "100024.337000", "100024.340000", "100024.343000", "100024.346000", "100024.348000", "100024.351000", "100024.354000", "100024.357000", "100024.360000", "100024.363000", "100024.366000", "100024.368000", "100024.371000", "100024.374000", "100024.377000", "100024.380000", "100104.305000", "100104.308000", "100104.311000", "100104.314000", "100104.317000", "100104.320000", "100104.322000", "100104.325000", "100104.328000", "100104.331000", "100104.334000", "100104.337000", "100104.340000", "100104.343000", "100104.346000", "100104.349000", "100104.351000", "100104.354000", "100104.357000", "100104.360000", "100104.363000", "100104.366000", "100104.369000", "100104.371000", "100104.374000", "100104.377000", "100144.305000", "100144.308000", "100144.311000", "100144.314000", "100144.317000", "100144.320000", "100144.322000", "100144.325000", "100144.328000", "100144.331000", "100144.334000", "100144.337000", "100144.340000", "100144.343000", "100144.345000", "100144.348000", "100144.351000", "100144.354000", "100144.357000", "100144.360000", "100144.363000", "100144.366000", "100144.369000", "100144.371000", "100144.374000", "100144.377000", "100144.380000", "100224.305000", "100224.308000", "100224.311000", "100224.314000", "100224.317000", "100224.320000", "100224.323000", "100224.325000", "100224.328000", "100224.331000", "100224.334000", "100224.337000", "100224.340000", "100224.343000", "100224.346000", "100224.349000", "100224.352000", "100224.354000", "100224.357000", "100224.360000", "100224.363000", "100224.366000", "100224.369000", "100224.372000", "100224.374000", "100224.377000", "100224.380000", "100304.305000", "100304.308000", "100304.311000", "100304.314000", "100304.317000", "100304.319000", "100304.322000", "100304.325000", "100304.328000", "100304.331000", "100304.334000", "100304.337000", "100304.340000", "100304.343000", "100304.345000", "100304.348000", "100304.351000", "100304.354000", "100304.357000", "100304.360000", "100304.363000", "100304.366000", "100304.369000", "100304.372000", "100304.374000", "100304.377000", "100304.380000", "100344.304000", "100344.307000", "100344.310000", "100344.313000", "100344.316000", "100344.319000", "100344.322000", "100344.324000", "100344.327000", "100344.330000", "100344.333000", "100344.336000", "100344.339000", "100344.342000", "100344.345000", "100344.348000", "100344.350000", "100344.353000", "100344.356000", "100344.359000", "100344.362000", "100344.365000", "100344.368000", "100344.371000", "100344.373000", "100344.376000", "100344.379000", "100424.305000", "100424.308000", "100424.311000", "100424.314000", "100424.317000", "100424.320000", "100424.323000", "100424.325000", "100424.328000", "100424.331000", "100424.334000", "100424.352000", "100424.355000", "100424.358000", "100424.361000", "100424.364000", "100424.367000", "100424.370000", "100424.372000", "100424.375000", "100424.378000", "100424.381000", "100424.384000", "100424.387000", "100424.390000", "100424.393000", "100424.395000", "100444.305000", "100444.308000", "100444.311000", "100444.314000", "100444.317000", "100444.319000", "100444.322000", "100444.325000", "100444.328000", "100444.331000", "100444.334000", "100444.337000", "100444.340000", "100524.305000", "100524.308000", "100524.311000", "100524.314000", "100524.317000", "100524.320000", "100524.323000", "100524.325000", "100524.328000", "100524.331000", "100524.334000", "100524.337000", "100524.340000", "100524.343000", "100524.346000", "100524.349000", "100524.352000", "100524.355000", "100524.357000", "100524.360000", "100524.363000", "100524.366000", "100524.369000", "100524.372000", "100524.375000", "100524.378000", "100524.381000", "100604.304000", "100604.307000", "100604.310000", "100604.313000", "100604.316000", "100604.319000", "100604.321000", "100604.324000", "100604.327000", "100604.330000", "100604.333000", "100604.336000", "100604.339000", "100604.342000", "100604.345000", "100604.347000", "100604.350000", "100604.353000", "100604.356000", "100604.359000", "100604.362000", "100604.365000", "100604.367000", "100604.370000", "100604.373000", "100604.376000", "100604.379000", "100639.710000", "100639.713000", "100639.716000", "100639.719000", "100639.722000", "100639.725000", "100639.728000", "100639.731000", "100639.734000", "100639.737000", "100639.739000", "100639.742000", "100639.745000", "100639.749000", "100639.751000", "100639.755000", "100639.757000", "100639.760000", "100639.763000", "100639.766000", "100639.769000", "100639.772000", "100639.775000", "100639.778000"],
