{
  "AcquisitionMatrixPE": 104,
  "AcquisitionNumber": 1,
  "AcquisitionTime": "10:19:26.455000",
  "BandwidthPerPixelPhaseEncode": 17.17,
  "BaseResolution": 104,
  "BodyPartExamined": "BRAIN",
  "CoilString": "HC1-7;NC1_2",
  "ConsistencyInfo": "N4_VE11C_LATEST_20160120",
  "ConversionSoftware": "dcm2niix",
  "ConversionSoftwareVersion": "v1.0.20190902",
  "DerivedVendorReportedEchoSpacing": 0.000560011,
  "DeviceSerialNumber": "167006",
  "DwellTime": 2.1e-06,
  "EchoTime": 0.037,
  "EchoTrainLength": 104,
  "EffectiveEchoSpacing": 0.000560011,
  "FlipAngle": 52,
  "ImageComments": "Unaliased_MB4_PE3_LB",
  "ImageOrientationPatientDICOM": [0.999962, 0.00824361, -0.00283343, -0.008552, 0.86483, -0.501992],
  "ImageType": [
    "ORIGINAL",
    "PRIMARY",
    "M",
    "MB",
    "ND",
    "MOSAIC"
],
  "ImagingFrequency": 123.259,
  "InPlanePhaseEncodingDirectionDICOM": "COL",
  "InstitutionAddress": "Chemin_Queen-Mary_4565_Montreal_District_CA_H3W_1W5",
  "InstitutionName": "IUGM",
  "InstitutionalDepartmentName": "Department",
  "MRAcquisitionType": "2D",
  "MagneticFieldStrength": 3,
  "Manufacturer": "Siemens",
  "ManufacturersModelName": "Prisma_fit",
  "Modality": "MR",
  "MultibandAccelerationFactor": 4,
  "PartialFourier": 1,
  "PatientPosition": "HFS",
  "PercentPhaseFOV": 100,
  "PhaseEncodingDirection": "j",
  "PhaseEncodingSteps": 104,
  "PhaseResolution": 1,
  "PixelBandwidth": 2290,
  "ProcedureStepDescription": "video_friends",
  "ProtocolName": "func_task-friends-s03e17a",
  "PulseSequenceDetails": "%CustomerSeq%_cmrr_mbep2d_bold",
  "ReceiveCoilActiveElements": "HC1-7;NC1,2",
  "ReceiveCoilName": "HeadNeck_64",
  "ReconMatrixPE": 104,
  "RepetitionTime": 1.49,
  "SAR": 0.0345834,
  "ScanOptions": "FS",
  "ScanningSequence": "EP",
  "SequenceName": "epfid2d1_104",
  "SequenceVariant": "SK_SS",
  "SeriesDescription": "func_task-friends-s03e17a",
  "SeriesNumber": 17,
  "ShimSetting": [620, -7200, -8871, 439, -13, -183, 3, -20],
  "SliceThickness": 2,
  "SliceTiming": [0, 0.7825, 0.0975, 0.8825, 0.195, 0.98, 0.2925, 1.0775, 0.3925, 1.175, 0.49, 1.2725, 0.5875, 1.3725, 0.685, 0, 0.7825, 0.0975, 0.8825, 0.195, 0.98, 0.2925, 1.0775, 0.3925, 1.175, 0.49, 1.2725, 0.5875, 1.3725, 0.685, 0, 0.7825, 0.0975, 0.8825, 0.195, 0.98, 0.2925, 1.0775, 0.3925, 1.175, 0.49, 1.2725, 0.5875, 1.3725, 0.685, 0, 0.7825, 0.0975, 0.8825, 0.195, 0.98, 0.2925, 1.0775, 0.3925, 1.175, 0.49, 1.2725, 0.5875, 1.3725, 0.685],
  "SoftwareVersions": "syngo_MR_E11",
  "SpacingBetweenSlices": 2,
  "StationName": "MRC35049",
  "TaskName": "s03e17a",
  "TotalReadoutTime": 0.0576811,
  "TxRefAmp": 248.29,
  "WipMemBlock": "ae958be9-427d-4b31-8254-f319c618ec74||Sequence: R016 ve11c/master r/e634e98; Dec 19 2017 11:00:25 by eja",
  "dcmmeta_affine": [
    [-1.9999240636825562, -0.017104005441069603, 0.0033755775075405836, 103.35778045654297],
    [-0.01648721471428871, 1.7296602725982666, -1.0039938688278198, -58.9567756652832],
    [-0.005666857119649649, 1.0039836168289185, 1.7297354936599731, -102.00848388671875],
    [0.0, 0.0, 0.0, 1.0]
],
  "dcmmeta_reorient_transform": [
    [0.0, -1.0, 0.0, 103.0],
    [1.0, 0.0, 0.0, 0.0],
    [0.0, 0.0, 1.0, 0.0],
    [0.0, 0.0, 0.0, 1.0]
],
  "dcmmeta_shape": [104, 104, 60, 454],
  "dcmmeta_slice_dim": 2,
  "dcmmeta_version": 0.6,
  "global": {
    "const": {
      "AcquisitionMatrix": [104, 0, 0, 104],
      "AngioFlag": "N",
      "BitsAllocated": 16,
      "BitsStored": 16,
      "BodyPartExamined": "BRAIN",
      "Columns": 832,
      "EchoNumbers": 1,
      "EchoTime": 37.0,
      "EchoTrainLength": 104,
      "FlipAngle": 52.0,
      "HighBit": 15,
      "ImageOrientationPatient": [0.9999620065901, 0.00824360714639, -0.0028334285789, -0.0085520024306, 0.86483010659237, -0.5019917827872],
      "ImagePositionPatient": [-823.34254983514, -754.79588940096, 368.9145773825],
      "ImageType": [
        "ORIGINAL",
        "PRIMARY",
        "M",
        "MB",
        "ND",
        "MOSAIC"
],
      "ImagedNucleus": "1H",
      "ImagingFrequency": 123.259071,
      "InPlanePhaseEncodingDirection": "COL",
      "MRAcquisitionType": "2D",
      "MagneticFieldStrength": 3.0,
      "Manufacturer": "SIEMENS",
      "ManufacturerModelName": "Prisma_fit",
      "Modality": "MR",
      "NumberOfAverages": 1.0,
      "NumberOfPhaseEncodingSteps": 104,
      "PercentPhaseFieldOfView": 100.0,
      "PercentSampling": 100.0,
      "PerformedProcedureStepStartTime": "090737.841000",
      "PhotometricInterpretation": "MONOCHROME2",
      "PixelBandwidth": 2290.0,
      "PixelRepresentation": 0,
      "PixelSpacing": [2.0, 2.0],
      "ProtocolName": "func_task-friends-s03e17a",
      "RepetitionTime": 1490.0,
      "Rows": 832,
      "SAR": 0.03458337958938,
      "SamplesPerPixel": 1,
      "ScanOptions": "FS",
      "ScanningSequence": "EP",
      "SequenceName": "epfid2d1_104",
      "SequenceVariant": [
        "SK",
        "SS"
],
      "SeriesDescription": "func_task-friends-s03e17a",
      "SeriesNumber": 17,
      "SeriesTime": "102044.471000",
      "SliceLocation": -58.45328019567,
      "SliceThickness": 2.0,
      "SmallestImagePixelValue": 0,
      "SoftwareVersions": "syngo MR E11",
      "SpacingBetweenSlices": 2.0000000124064,
      "SpecificCharacterSet": "ISO_IR 100",
      "StudyID": "1",
      "StudyTime": "090737.659000",
      "TransmitCoilName": "Body",
      "VariableFlipAngleFlag": "N",
      "WindowCenterWidthExplanation": "Algo1",
      "dBdt": 0.0},
    "slices": {}
  },
  "time": {
    "samples": {
      "AcquisitionNumber": [1, 2, 3, 4, 5, 6, 7, 8, 9, 10, 11, 12, 13, 14, 15, 16, 17, 18, 19, 20, 21, 22, 23, 24, 25, 26, 27, 28, 29, 30, 31, 32, 33, 34, 35, 36, 37, 38, 39, 40, 41, 42, 43, 44, 45, 46, 47, 48, 49, 50, 51, 52, 53, 54, 55, 56, 57, 58, 59, 60, 61, 62, 63, 64, 65, 66, 67, 68, 69, 70, 71, 72, 73, 74, 75, 76, 77, 78, 79, 80, 81, 82, 83, 84, 85, 86, 87, 88, 89, 90, 91, 92, 93, 94, 95, 96, 97, 98, 99, 100, 101, 102, 103, 104, 105, 106, 107, 108, 109, 110, 111, 112, 113, 114, 115, 116, 117, 118, 119, 120, 121, 122, 123, 124, 125, 126, 127, 128, 129, 130, 131, 132, 133, 134, 135, 136, 137, 138, 139, 140, 141, 142, 143, 144, 145, 146, 147, 148, 149, 150, 151, 152, 153, 154, 155, 156, 157, 158, 159, 160, 161, 162, 163, 164, 165, 166, 167, 168, 169, 170, 171, 172, 173, 174, 175, 176, 177, 178, 179, 180, 181, 182, 183, 184, 185, 186, 187, 188, 189, 190, 191, 192, 193, 194, 195, 196, 197, 198, 199, 200, 201, 202, 203, 204, 205, 206, 207, 208, 209, 210, 211, 212, 213, 214, 215, 216, 217, 218, 219, 220, 221, 222, 223, 224, 225, 226, 227, 228, 229, 230, 231, 232, 233, 234, 235, 236, 237, 238, 239, 240, 241, 242, 243, 244, 245, 246, 247, 248, 249, 250, 251, 252, 253, 254, 255, 256, 257, 258, 259, 260, 261, 262, 263, 264, 265, 266, 267, 268, 269, 270, 271, 272, 273, 274, 275, 276, 277, 278, 279, 280, 281, 282, 283, 284, 285, 286, 287, 288, 289, 290, 291, 292, 293, 294, 295, 296, 297, 298, 299, 300, 301, 302, 303, 304, 305, 306, 307, 308, 309, 310, 311, 312, 313, 314, 315, 316, 317, 318, 319, 320, 321, 322, 323, 324, 325, 326, 327, 328, 329, 330, 331, 332, 333, 334, 335, 336, 337, 338, 339, 340, 341, 342, 343, 344, 345, 346, 347, 348, 349, 350, 351, 352, 353, 354, 355, 356, 357, 358, 359, 360, 361, 362, 363, 364, 365, 366, 367, 368, 369, 370, 371, 372, 373, 374, 375, 376, 377, 378, 379, 380, 381, 382, 383, 384, 385, 386, 387, 388, 389, 390, 391, 392, 393, 394, 395, 396, 397, 398, 399, 400, 401, 402, 403, 404, 405, 406, 407, 408, 409, 410, 411, 412, 413, 414, 415, 416, 417, 418, 419, 420, 421, 422, 423, 424, 425, 426, 427, 428, 429, 430, 431, 432, 433, 434, 435, 436, 437, 438, 439, 440, 441, 442, 443, 444, 445, 446, 447, 448, 449, 450, 451, 452, 453, 454],
      "AcquisitionTime": ["101926.455000", "101927.945000", "101929.435000", "101930.925000", "101932.415000", "101933.905000", "101935.395000", "101936.885000", "101938.375000", "101939.865000", "101941.355000", "101942.845000", "101944.335000", "101945.825000", "101947.315000", "101948.805000", "101950.295000", "101951.785000", "101953.275000", "101954.765000", "101956.255000", "101957.745000", "101959.235000", "102000.725000", "102002.215000", "102003.705000", "102005.195000", "102006.685000", "102008.175000", "102009.665000", "102011.155000", "102012.645000", "102014.135000", "102015.625000", "102017.115000", "102018.605000", "102020.095000", "102021.585000", "102023.075000", "102024.565000", "102026.055000", "102027.545000", "102029.035000", "102030.525000", "102032.015000", "102033.505000", "102034.995000", "102036.485000", "102037.975000", "102039.465000", "102040.955000", "102042.445000", "102043.935000", "102045.425000", "102046.915000", "102048.405000", "102049.895000", "102051.385000", "102052.875000", "102054.365000", "102055.855000", "102057.345000", "102058.835000", "102100.325000", "102101.815000", "102103.305000", "102104.795000", "102106.285000", "102107.775000", "102109.265000", "102110.755000", "102112.245000", "102113.735000", "102115.225000", "102116.715000", "102118.205000", "102119.695000", "102121.185000", "102122.675000", "102124.165000", "102125.655000", "102127.145000", "102128.635000", "102130.125000", "102131.615000", "102133.105000", "102134.595000", "102136.085000", "102137.575000", "102139.065000", "102140.555000", "102142.045000", "102143.535000", "102145.025000", "102146.515000", "102148.005000", "102149.495000", "102150.985000", "102152.475000", "102153.965000", "102155.455000", "102156.945000", "102158.435000", "102159.925000", "102201.415000", "102202.905000", "102204.395000", "102205.885000", "102207.375000", "102208.865000", "102210.355000", "102211.845000", "102213.335000", "102214.825000", "102216.315000", "102217.805000", "102219.295000", "102220.785000", "102222.275000", "102223.765000", "102225.255000", "102226.745000", "102228.235000", "102229.725000", "102231.215000", "102232.705000", "102234.195000", "102235.685000", "102237.175000", "102238.665000", "102240.155000", "102241.645000", "102243.135000", "102244.625000", "102246.115000", "102247.605000", "102249.095000", "102250.585000", "102252.075000", "102253.565000", "102255.055000", "102256.545000", "102258.035000", "102259.525000", "102301.015000", "102302.505000", "102303.995000", "102305.485000", "102306.975000", "102308.465000", "102309.955000", "102311.445000", "102312.935000", "102314.425000", "102315.915000", "102317.405000", "102318.895000", "102320.385000", "102321.875000", "102323.365000", "102324.855000", "102326.345000", "102327.835000", "102329.325000", "102330.815000", "102332.305000", "102333.795000", "102335.285000", "102336.775000", "102338.265000", "102339.755000", "102341.245000", "102342.735000", "102344.225000", "102345.715000", "102347.205000", "102348.695000", "102350.185000", "102351.675000", "102353.165000", "102354.655000", "102356.145000", "102357.635000", "102359.125000", "102400.615000", "102402.105000", "102403.595000", "102405.085000", "102406.575000", "102408.065000", "102409.555000", "102411.045000", "102412.535000", "102414.025000", "102415.515000", "102417.005000", "102418.495000", "102419.985000", "102421.475000", "102422.965000", "102424.455000", "102425.945000", "102427.435000", "102428.925000", "102430.415000", "102431.905000", "102433.395000", "102434.885000", "102436.375000", "102437.865000", "102439.355000", "102440.845000", "102442.335000", "102443.825000", "102445.315000", "102446.805000", "102448.295000", "102449.785000", "102451.275000", "102452.765000", "102454.255000", "102455.745000", "102457.235000", "102458.725000", "102500.215000", "102501.705000", "102503.195000", "102504.685000", "102506.175000", "102507.665000", "102509.155000", "102510.645000", "102512.135000", "102513.625000", "102515.115000", "102516.605000", "102518.095000", "102519.585000", "102521.075000", "102522.565000", "102524.055000", "102525.545000", "102527.035000", "102528.525000", "102530.015000", "102531.505000", "102532.995000", "102534.485000", "102535.975000", "102537.465000", "102538.955000", "102540.445000", "102541.935000", "102543.425000", "102544.915000", "102546.405000", "102547.895000", "102549.385000", "102550.875000", "102552.365000", "102553.855000", "102555.345000", "102556.835000", "102558.325000", "102559.815000", "102601.305000", "102602.795000", "102604.285000", "102605.775000", "102607.265000", "102608.755000", "102610.245000", "102611.735000", "102613.225000", "102614.715000", "102616.205000", "102617.695000", "102619.185000", "102620.675000", "102622.165000", "102623.655000", "102625.145000", "102626.635000", "102628.125000", "102629.615000", "102631.105000", "102632.595000", "102634.085000", "102635.575000", "102637.065000", "102638.555000", "102640.045000", "102641.535000", "102643.025000", "102644.515000", "102646.005000", "102647.495000", "102648.985000", "102650.475000", "102651.965000", "102653.455000", "102654.945000", "102656.435000", "102657.925000", "102659.415000", "102700.905000", "102702.395000", "102703.885000", "102705.375000", "102706.865000", "102708.355000", "102709.845000", "102711.335000", "102712.825000", "102714.315000", "102715.805000", "102717.295000", "102718.785000", "102720.275000", "102721.765000", "102723.255000", "102724.745000", "102726.235000", "102727.725000", "102729.215000", "102730.705000", "102732.195000", "102733.685000", "102735.175000", "102736.665000", "102738.155000", "102739.645000", "102741.135000", "102742.625000", "102744.115000", "102745.605000", "102747.095000", "102748.585000", "102750.075000", "102751.565000", "102753.055000", "102754.545000", "102756.035000", "102757.525000", "102759.015000", "102800.505000", "102801.995000", "102803.485000", "102804.975000", "102806.465000", "102807.955000", "102809.445000", "102810.935000", "102812.425000", "102813.915000", "102815.405000", "102816.895000", "102818.385000", "102819.875000", "102821.365000", "102822.855000", "102824.345000", "102825.835000", "102827.325000", "102828.815000", "102830.305000", "102831.795000", "102833.285000", "102834.775000", "102836.265000", "102837.755000", "102839.245000", "102840.735000", "102842.225000", "102843.715000", "102845.205000", "102846.695000", "102848.185000", "102849.675000", "102851.165000", "102852.655000", "102854.145000", "102855.635000", "102857.125000", "102858.615000", "102900.105000", "102901.595000", "102903.085000", "102904.575000", "102906.065000", "102907.555000", "102909.045000", "102910.535000", "102912.025000", "102913.515000", "102915.005000", "102916.495000", "102917.985000", "102919.475000", "102920.965000", "102922.455000", "102923.945000", "102925.435000", "102926.925000", "102928.415000", "102929.905000", "102931.395000", "102932.885000", "102934.375000", "102935.865000", "102937.355000", "102938.845000", "102940.335000", "102941.825000", "102943.315000", "102944.805000", "102946.295000", "102947.785000", "102949.275000", "102950.765000", "102952.255000", "102953.745000", "102955.235000", "102956.725000", "102958.215000", "102959.705000", "103001.195000", "103002.685000", "103004.175000", "103005.665000", "103007.155000", "103008.645000", "103010.135000", "103011.625000", "103013.115000", "103014.605000", "103016.095000", "103017.585000", "103019.075000", "103020.565000", "103022.055000", "103023.545000", "103025.035000", "103026.525000", "103028.015000", "103029.505000", "103030.995000", "103032.485000", "103033.975000", "103035.465000", "103036.955000", "103038.445000", "103039.935000", "103041.425000"],
      "ContentTime": ["102044.474000", "102044.477000", "102044.480000", "102044.483000", "102044.486000", "102044.489000", "102044.492000", "102044.495000", "102044.497000", "102044.500000", "102044.503000", "102044.506000", "102044.509000", "102044.512000", "102044.515000", "102044.517000", "102044.520000", "102044.523000", "102044.526000", "102044.537000", "102044.545000", "102044.548000", "102044.551000", "102044.554000", "102104.444000", "102104.447000", "102104.450000", "102104.453000", "102104.456000", "102104.459000", "102104.461000", "102104.464000", "102104.467000", "102104.470000", "102104.473000", "102104.476000", "102104.479000", "102104.482000", "102104.485000", "102104.487000", "102104.490000", "102104.493000", "102104.496000", "102104.499000", "102124.444000", "102124.447000", "102124.450000", "102124.453000", "102124.456000", "102124.459000", "102124.461000", "102124.464000", "102124.467000", "102124.470000", "102124.473000", "102124.476000", "102124.479000", "102124.482000", "102124.484000", "102124.487000", "102124.490000", "102124.493000", "102124.496000", "102124.499000", "102144.444000", "102144.447000", "102144.450000", "102144.453000", "102144.456000", "102144.459000", "102144.461000", "102144.464000", "102144.467000", "102144.470000", "102144.473000", "102144.476000", "102144.479000", "102144.482000", "102144.484000", "102144.487000", "102144.490000", "102144.493000", "102144.496000", "102144.499000", "102204.444000", "102204.447000", "102204.450000", "102204.453000", "102204.456000", "102204.459000", "102204.461000", "102204.464000", "102204.467000", "102204.470000", "102204.473000", "102204.476000", "102204.479000", "102204.482000", "102204.485000", "102204.487000", "102204.490000", "102204.493000", "102204.496000", "102204.499000", "102244.444000", "102244.447000", "102244.450000", "102244.453000", "102244.456000", "102244.459000", "102244.461000", "102244.464000", "102244.467000", "102244.470000", "102244.473000", "102244.476000", "102244.479000", "102244.482000", "102244.485000", "102244.488000", "102244.491000", "102244.493000", "102244.496000", "102244.499000", "102244.502000", "102244.505000", "102244.508000", "102244.511000", "102244.514000", "102244.517000", "102244.520000", "102244.522000", "102324.444000", "102324.447000", "102324.450000", "102324.453000", "102324.456000", "102324.459000", "102324.461000", "102324.464000", "102324.467000", "102324.470000", "102324.473000", "102324.476000", "102324.479000", "102324.482000", "102324.484000", "102324.487000", "102324.490000", "102324.493000", "102324.496000", "102324.499000", "102324.502000", "102324.505000", "102324.507000", "102324.511000", "102324.513000", "102324.516000", "102324.519000", "102404.444000", "102404.447000", "102404.450000", "102404.453000", "102404.456000", "102404.459000", "102404.462000", "102404.465000", "102404.468000", "102404.471000", "102404.493000", "102404.496000", "102404.499000", "102404.502000", "102404.505000", "102404.508000", "102404.511000", "102404.514000", "102404.517000", "102404.520000", "102404.524000", "102404.527000", "102404.530000", "102404.533000", "102404.536000", "102404.538000", "102404.542000", "102444.444000", "102444.447000", "102444.450000", "102444.453000", "102444.456000", "102444.459000", "102444.462000", "102444.475000", "102444.477000", "102444.480000", "102444.483000", "102444.486000", "102444.489000", "102444.492000", "102444.495000", "102444.498000", "102444.501000", "102444.504000", "102444.506000", "102444.509000", "102444.512000", "102444.515000", "102444.518000", "102444.521000", "102444.524000", "102444.527000", "102524.444000", "102524.447000", "102524.450000", "102524.453000", "102524.456000", "102524.458000", "102524.461000", "102524.464000", "102524.467000", "102524.470000", "102524.473000", "102524.476000", "102524.479000", "102524.482000", "102524.485000", "102524.488000", "102524.490000", "102524.493000", "102524.496000", "102524.499000", "102524.502000", "102524.505000", "102524.508000", "102524.511000", "102524.514000", "102524.517000", "102524.519000", "102604.444000", "102604.447000", "102604.450000", "102604.453000", "102604.456000", "102604.459000", "102604.462000", "102604.464000", "102604.467000", "102604.470000", "102604.473000", "102604.476000", "102604.479000", "102604.482000", "102604.485000", "102604.488000", "102604.491000", "102604.494000", "102604.497000", "102604.509000", "102604.512000", "102604.515000", "102604.518000", "102604.521000", "102604.523000", "102604.526000", "102604.529000", "102644.444000", "102644.447000", "102644.450000", "102644.453000", "102644.456000", "102644.459000", "102644.462000", "102644.465000", "102644.468000", "102644.471000", "102644.473000", "102644.476000", "102644.479000", "102644.482000", "102644.485000", "102644.488000", "102644.491000", "102644.494000", "102644.497000", "102644.499000", "102644.502000", "102644.505000", "102644.508000", "102644.511000", "102644.514000", "102644.517000", "102644.520000", "102724.444000", "102724.447000", "102724.450000", "102724.453000", "102724.456000", "102724.459000", "102724.461000", "102724.464000", "102724.467000", "102724.470000", "102724.473000", "102724.476000", "102724.479000", "102724.482000", "102724.485000", "102724.488000", "102724.491000", "102724.494000", "102724.496000", "102724.499000", "102724.502000", "102724.505000", "102724.508000", "102724.511000", "102724.514000", "102724.517000", "102724.520000", "102804.444000", "102804.447000", "102804.450000", "102804.453000", "102804.456000", "102804.459000", "102804.462000", "102804.470000", "102804.473000", "102804.476000", "102804.478000", "102804.481000", "102804.484000", "102804.487000", "102804.490000", "102804.493000", "102804.496000", "102804.499000", "102804.502000", "102804.505000", "102804.508000", "102804.510000", "102804.513000", "102804.516000", "102804.519000", "102804.522000", "102804.525000", "102844.444000", "102844.447000", "102844.450000", "102844.453000", "102844.456000", "102844.459000", "102844.462000", "102844.465000", "102844.468000", "102844.471000", "102844.475000", "102844.478000", "102844.480000", "102844.483000", "102844.486000", "102844.489000", "102844.492000", "102844.495000", "102844.498000", "102844.501000", "102844.504000", "102844.506000", "102844.509000", "102844.512000", "102844.515000", "102844.518000", "102924.444000", "102924.447000", "102924.450000", "102924.453000", "102924.456000", "102924.459000", "102924.462000", "102924.464000", "102924.467000", "102924.470000", "102924.473000", "102924.476000", "102924.479000", "102924.482000", "102924.485000", "102924.488000", "102924.491000", "102924.494000", "102924.496000", "102924.499000", "102924.502000", "102924.505000", "102924.508000", "102924.511000", "102924.514000", "102924.517000", "102924.520000", "103004.444000", "103004.447000", "103004.450000", "103004.453000", "103004.456000", "103004.459000", "103004.462000", "103004.465000", "103004.468000", "103004.471000", "103004.474000", "103004.477000", "103004.479000", "103004.482000", "103004.485000", "103004.488000", "103004.491000", "103004.494000", "103004.497000", "103004.500000", "103004.503000", "103004.505000", "103004.508000", "103004.511000", "103004.514000", "103004.517000", "103004.520000", "103043.719000", "103043.722000", "103043.726000", "103043.728000", "103043.731000", "103043.734000", "103043.738000", "103043.740000", "103043.743000", "103043.746000", "103043.749000", "103043.752000", "103043.755000", "103043.759000", "103043.762000", "103043.765000", "103043.768000", "103043.771000", "103043.774000", "103043.777000", "103043.780000", "103043.782000", "103043.785000", "103043.788000", "103043.791000", "103043.794000", "103043.797000"],
