{
  "AcquisitionMatrixPE": 104,
  "AcquisitionNumber": 1,
  "AcquisitionTime": "11:12:41.795000",
  "BandwidthPerPixelPhaseEncode": 17.17,
  "BaseResolution": 104,
  "BodyPartExamined": "BRAIN",
  "CoilString": "HC1-7;NC1_2",
  "ConsistencyInfo": "N4_VE11C_LATEST_20160120",
  "ConversionSoftware": "dcm2niix",
  "ConversionSoftwareVersion": "v1.0.20190902",
  "DerivedVendorReportedEchoSpacing": 0.000560011,
  "DeviceSerialNumber": "167006",
  "DwellTime": 2.1e-06,
  "EchoTime": 0.037,
  "EchoTrainLength": 104,
  "EffectiveEchoSpacing": 0.000560011,
  "FlipAngle": 52,
  "ImageComments": "Unaliased_MB4_PE3_LB",
  "ImageOrientationPatientDICOM": [0.999849, 0.0154114, 0.00797539, -0.00959815, 0.874061, -0.485721],
  "ImageType": [
    "ORIGINAL",
    "PRIMARY",
    "M",
    "MB",
    "ND",
    "MOSAIC"
],
  "ImagingFrequency": 123.259,
  "InPlanePhaseEncodingDirectionDICOM": "COL",
  "InstitutionAddress": "Chemin_Queen-Mary_4565_Montreal_District_CA_H3W_1W5",
  "InstitutionName": "IUGM",
  "InstitutionalDepartmentName": "Department",
  "MRAcquisitionType": "2D",
  "MagneticFieldStrength": 3,
  "Manufacturer": "Siemens",
  "ManufacturersModelName": "Prisma_fit",
  "Modality": "MR",
  "MultibandAccelerationFactor": 4,
  "PartialFourier": 1,
  "PatientPosition": "HFS",
  "PercentPhaseFOV": 100,
  "PhaseEncodingDirection": "j",
  "PhaseEncodingSteps": 104,
  "PhaseResolution": 1,
  "PixelBandwidth": 2290,
  "ProcedureStepDescription": "video_friends",
  "ProtocolName": "func_task-friends-s04e18b",
  "PulseSequenceDetails": "%CustomerSeq%_cmrr_mbep2d_bold",
  "ReceiveCoilActiveElements": "HC1-7;NC1,2",
  "ReceiveCoilName": "HeadNeck_64",
  "ReconMatrixPE": 104,
  "RepetitionTime": 1.49,
  "SAR": 0.0354755,
  "ScanOptions": "FS",
  "ScanningSequence": "EP",
  "SequenceName": "epfid2d1_104",
  "SequenceVariant": "SK_SS",
  "SeriesDescription": "func_task-friends-s04e18b",
  "SeriesNumber": 19,
  "ShimSetting": [624, -7217, -8855, 428, -22, -229, 1, -27],
  "SliceThickness": 2,
  "SliceTiming": [0, 0.7825, 0.0975, 0.88, 0.195, 0.98, 0.2925, 1.0775, 0.39, 1.175, 0.49, 1.2725, 0.5875, 1.37, 0.685, 0, 0.7825, 0.0975, 0.88, 0.195, 0.98, 0.2925, 1.0775, 0.39, 1.175, 0.49, 1.2725, 0.5875, 1.37, 0.685, 0, 0.7825, 0.0975, 0.88, 0.195, 0.98, 0.2925, 1.0775, 0.39, 1.175, 0.49, 1.2725, 0.5875, 1.37, 0.685, 0, 0.7825, 0.0975, 0.88, 0.195, 0.98, 0.2925, 1.0775, 0.39, 1.175, 0.49, 1.2725, 0.5875, 1.37, 0.685],
  "SoftwareVersions": "syngo_MR_E11",
  "SpacingBetweenSlices": 2,
  "StationName": "MRC35049",
  "TaskName": "s04e18b",
  "TotalReadoutTime": 0.0576811,
  "TxRefAmp": 248.5,
  "WipMemBlock": "b85d8050-6da5-4ff7-9a07-d4a455b3cb35||Sequence: R016 ve11c/master r/e634e98; Dec 19 2017 11:00:25 by eja",
  "dcmmeta_affine": [
    [-1.9996988773345947, -0.01919630356132984, 0.028913239017128944, 102.7562484741211],
    [-0.030822815373539925, 1.7481229305267334, -0.9711416959762573, -59.474510192871094],
    [0.015950782224535942, 0.9714410901069641, 1.7481554746627808, -94.28803253173828],
    [0.0, 0.0, 0.0, 1.0]
],
  "dcmmeta_reorient_transform": [
    [0.0, -1.0, 0.0, 103.0],
    [1.0, 0.0, 0.0, 0.0],
    [0.0, 0.0, 1.0, 0.0],
    [0.0, 0.0, 0.0, 1.0]
],
  "dcmmeta_shape": [104, 104, 60, 450],
  "dcmmeta_slice_dim": 2,
  "dcmmeta_version": 0.6,
  "global": {
    "const": {
      "AcquisitionMatrix": [104, 0, 0, 104],
      "AngioFlag": "N",
      "BitsAllocated": 16,
      "BitsStored": 16,
      "BodyPartExamined": "BRAIN",
      "Columns": 832,
      "EchoNumbers": 1,
      "EchoTime": 37.0,
      "EchoTrainLength": 104,
      "FlipAngle": 52.0,
      "HighBit": 15,
      "ImageOrientationPatient": [0.99984942948669, 0.01541140789967, 0.00797539100515, -0.0095981516524, 0.87406145874334, -0.4857205388125],
      "ImagePositionPatient": [-821.68196300514, -768.11839800841, 353.56886287808],
      "ImageType": [
        "ORIGINAL",
        "PRIMARY",
        "M",
        "MB",
        "ND",
        "MOSAIC"
],
      "ImagedNucleus": "1H",
      "ImagingFrequency": 123.259024,
      "InPlanePhaseEncodingDirection": "COL",
      "MRAcquisitionType": "2D",
      "MagneticFieldStrength": 3.0,
      "Manufacturer": "SIEMENS",
      "ManufacturerModelName": "Prisma_fit",
      "Modality": "MR",
      "NumberOfAverages": 1.0,
      "NumberOfPhaseEncodingSteps": 104,
      "PercentPhaseFieldOfView": 100.0,
      "PercentSampling": 100.0,
      "PerformedProcedureStepStartTime": "091743.923000",
      "PhotometricInterpretation": "MONOCHROME2",
      "PixelBandwidth": 2290.0,
      "PixelRepresentation": 0,
      "PixelSpacing": [2.0, 2.0],
      "ProtocolName": "func_task-friends-s04e18b",
      "RepetitionTime": 1490.0,
      "Rows": 832,
      "SAR": 0.03547552354988,
      "SamplesPerPixel": 1,
      "ScanOptions": "FS",
      "ScanningSequence": "EP",
      "SequenceName": "epfid2d1_104",
      "SequenceVariant": [
        "SK",
        "SS"
],
      "SeriesDescription": "func_task-friends-s04e18b",
      "SeriesNumber": 19,
      "SeriesTime": "111406.175000",
      "SliceLocation": -52.050479808,
      "SliceThickness": 2.0,
      "SmallestImagePixelValue": 0,
      "SoftwareVersions": "syngo MR E11",
      "SpacingBetweenSlices": 1.9999999787464,
      "SpecificCharacterSet": "ISO_IR 100",
      "StudyID": "1",
      "StudyTime": "091743.651000",
      "TransmitCoilName": "Body",
      "VariableFlipAngleFlag": "N",
      "WindowCenterWidthExplanation": "Algo1",
      "dBdt": 0.0},
    "slices": {}
  },
  "time": {
    "samples": {
      "AcquisitionNumber": [1, 2, 3, 4, 5, 6, 7, 8, 9, 10, 11, 12, 13, 14, 15, 16, 17, 18, 19, 20, 21, 22, 23, 24, 25, 26, 27, 28, 29, 30, 31, 32, 33, 34, 35, 36, 37, 38, 39, 40, 41, 42, 43, 44, 45, 46, 47, 48, 49, 50, 51, 52, 53, 54, 55, 56, 57, 58, 59, 60, 61, 62, 63, 64, 65, 66, 67, 68, 69, 70, 71, 72, 73, 74, 75, 76, 77, 78, 79, 80, 81, 82, 83, 84, 85, 86, 87, 88, 89, 90, 91, 92, 93, 94, 95, 96, 97, 98, 99, 100, 101, 102, 103, 104, 105, 106, 107, 108, 109, 110, 111, 112, 113, 114, 115, 116, 117, 118, 119, 120, 121, 122, 123, 124, 125, 126, 127, 128, 129, 130, 131, 132, 133, 134, 135, 136, 137, 138, 139, 140, 141, 142, 143, 144, 145, 146, 147, 148, 149, 150, 151, 152, 153, 154, 155, 156, 157, 158, 159, 160, 161, 162, 163, 164, 165, 166, 167, 168, 169, 170, 171, 172, 173, 174, 175, 176, 177, 178, 179, 180, 181, 182, 183, 184, 185, 186, 187, 188, 189, 190, 191, 192, 193, 194, 195, 196, 197, 198, 199, 200, 201, 202, 203, 204, 205, 206, 207, 208, 209, 210, 211, 212, 213, 214, 215, 216, 217, 218, 219, 220, 221, 222, 223, 224, 225, 226, 227, 228, 229, 230, 231, 232, 233, 234, 235, 236, 237, 238, 239, 240, 241, 242, 243, 244, 245, 246, 247, 248, 249, 250, 251, 252, 253, 254, 255, 256, 257, 258, 259, 260, 261, 262, 263, 264, 265, 266, 267, 268, 269, 270, 271, 272, 273, 274, 275, 276, 277, 278, 279, 280, 281, 282, 283, 284, 285, 286, 287, 288, 289, 290, 291, 292, 293, 294, 295, 296, 297, 298, 299, 300, 301, 302, 303, 304, 305, 306, 307, 308, 309, 310, 311, 312, 313, 314, 315, 316, 317, 318, 319, 320, 321, 322, 323, 324, 325, 326, 327, 328, 329, 330, 331, 332, 333, 334, 335, 336, 337, 338, 339, 340, 341, 342, 343, 344, 345, 346, 347, 348, 349, 350, 351, 352, 353, 354, 355, 356, 357, 358, 359, 360, 361, 362, 363, 364, 365, 366, 367, 368, 369, 370, 371, 372, 373, 374, 375, 376, 377, 378, 379, 380, 381, 382, 383, 384, 385, 386, 387, 388, 389, 390, 391, 392, 393, 394, 395, 396, 397, 398, 399, 400, 401, 402, 403, 404, 405, 406, 407, 408, 409, 410, 411, 412, 413, 414, 415, 416, 417, 418, 419, 420, 421, 422, 423, 424, 425, 426, 427, 428, 429, 430, 431, 432, 433, 434, 435, 436, 437, 438, 439, 440, 441, 442, 443, 444, 445, 446, 447, 448, 449, 450],
      "AcquisitionTime": ["111241.795000", "111243.285000", "111244.775000", "111246.265000", "111247.755000", "111249.245000", "111250.735000", "111252.225000", "111253.715000", "111255.205000", "111256.695000", "111258.185000", "111259.675000", "111301.165000", "111302.655000", "111304.145000", "111305.635000", "111307.125000", "111308.615000", "111310.105000", "111311.595000", "111313.085000", "111314.575000", "111316.065000", "111317.555000", "111319.045000", "111320.535000", "111322.025000", "111323.515000", "111325.005000", "111326.495000", "111327.985000", "111329.475000", "111330.965000", "111332.455000", "111333.945000", "111335.435000", "111336.925000", "111338.415000", "111339.905000", "111341.395000", "111342.885000", "111344.375000", "111345.865000", "111347.355000", "111348.845000", "111350.335000", "111351.825000", "111353.315000", "111354.805000", "111356.295000", "111357.785000", "111359.275000", "111400.765000", "111402.255000", "111403.745000", "111405.235000", "111406.725000", "111408.215000", "111409.705000", "111411.195000", "111412.685000", "111414.175000", "111415.665000", "111417.155000", "111418.645000", "111420.135000", "111421.625000", "111423.115000", "111424.605000", "111426.095000", "111427.585000", "111429.075000", "111430.565000", "111432.055000", "111433.545000", "111435.035000", "111436.525000", "111438.015000", "111439.505000", "111440.995000", "111442.485000", "111443.975000", "111445.465000", "111446.955000", "111448.445000", "111449.935000", "111451.425000", "111452.915000", "111454.405000", "111455.895000", "111457.385000", "111458.875000", "111500.365000", "111501.855000", "111503.345000", "111504.835000", "111506.325000", "111507.815000", "111509.305000", "111510.795000", "111512.285000", "111513.775000", "111515.265000", "111516.755000", "111518.245000", "111519.735000", "111521.225000", "111522.715000", "111524.205000", "111525.695000", "111527.185000", "111528.675000", "111530.165000", "111531.655000", "111533.145000", "111534.635000", "111536.125000", "111537.615000", "111539.105000", "111540.595000", "111542.085000", "111543.575000", "111545.065000", "111546.555000", "111548.045000", "111549.535000", "111551.025000", "111552.515000", "111554.005000", "111555.495000", "111556.985000", "111558.475000", "111559.965000", "111601.455000", "111602.945000", "111604.435000", "111605.925000", "111607.415000", "111608.905000", "111610.395000", "111611.885000", "111613.375000", "111614.865000", "111616.355000", "111617.845000", "111619.335000", "111620.825000", "111622.315000", "111623.805000", "111625.295000", "111626.785000", "111628.275000", "111629.765000", "111631.255000", "111632.745000", "111634.235000", "111635.725000", "111637.215000", "111638.705000", "111640.195000", "111641.685000", "111643.175000", "111644.665000", "111646.155000", "111647.645000", "111649.135000", "111650.625000", "111652.115000", "111653.605000", "111655.095000", "111656.585000", "111658.075000", "111659.565000", "111701.055000", "111702.545000", "111704.035000", "111705.525000", "111707.015000", "111708.505000", "111709.995000", "111711.485000", "111712.975000", "111714.465000", "111715.955000", "111717.445000", "111718.935000", "111720.425000", "111721.915000", "111723.405000", "111724.895000", "111726.385000", "111727.875000", "111729.365000", "111730.855000", "111732.345000", "111733.835000", "111735.325000", "111736.815000", "111738.305000", "111739.795000", "111741.285000", "111742.775000", "111744.265000", "111745.755000", "111747.245000", "111748.735000", "111750.225000", "111751.715000", "111753.205000", "111754.695000", "111756.185000", "111757.675000", "111759.165000", "111800.655000", "111802.145000", "111803.635000", "111805.125000", "111806.615000", "111808.105000", "111809.595000", "111811.085000", "111812.575000", "111814.065000", "111815.555000", "111817.045000", "111818.535000", "111820.025000", "111821.515000", "111823.005000", "111824.495000", "111825.985000", "111827.475000", "111828.965000", "111830.455000", "111831.945000", "111833.435000", "111834.925000", "111836.415000", "111837.905000", "111839.395000", "111840.885000", "111842.375000", "111843.865000", "111845.355000", "111846.845000", "111848.335000", "111849.825000", "111851.315000", "111852.805000", "111854.295000", "111855.785000", "111857.275000", "111858.765000", "111900.255000", "111901.745000", "111903.235000", "111904.725000", "111906.215000", "111907.705000", "111909.195000", "111910.685000", "111912.175000", "111913.665000", "111915.155000", "111916.645000", "111918.135000", "111919.625000", "111921.115000", "111922.605000", "111924.095000", "111925.585000", "111927.075000", "111928.565000", "111930.055000", "111931.545000", "111933.035000", "111934.525000", "111936.015000", "111937.505000", "111938.995000", "111940.485000", "111941.975000", "111943.465000", "111944.955000", "111946.445000", "111947.935000", "111949.425000", "111950.915000", "111952.405000", "111953.895000", "111955.385000", "111956.875000", "111958.365000", "111959.855000", "112001.345000", "112002.835000", "112004.325000", "112005.815000", "112007.305000", "112008.795000", "112010.285000", "112011.775000", "112013.265000", "112014.755000", "112016.245000", "112017.735000", "112019.225000", "112020.715000", "112022.205000", "112023.695000", "112025.185000", "112026.675000", "112028.165000", "112029.655000", "112031.145000", "112032.635000", "112034.125000", "112035.615000", "112037.105000", "112038.595000", "112040.085000", "112041.575000", "112043.065000", "112044.555000", "112046.045000", "112047.535000", "112049.025000", "112050.515000", "112052.005000", "112053.495000", "112054.985000", "112056.475000", "112057.965000", "112059.455000", "112100.945000", "112102.435000", "112103.925000", "112105.415000", "112106.905000", "112108.395000", "112109.885000", "112111.375000", "112112.865000", "112114.355000", "112115.845000", "112117.335000", "112118.825000", "112120.315000", "112121.805000", "112123.295000", "112124.785000", "112126.275000", "112127.765000", "112129.255000", "112130.745000", "112132.235000", "112133.725000", "112135.215000", "112136.705000", "112138.195000", "112139.685000", "112141.175000", "112142.665000", "112144.155000", "112145.645000", "112147.135000", "112148.625000", "112150.115000", "112151.605000", "112153.095000", "112154.585000", "112156.075000", "112157.565000", "112159.055000", "112200.545000", "112202.035000", "112203.525000", "112205.015000", "112206.505000", "112207.995000", "112209.485000", "112210.975000", "112212.465000", "112213.955000", "112215.445000", "112216.935000", "112218.425000", "112219.915000", "112221.405000", "112222.895000", "112224.385000", "112225.875000", "112227.365000", "112228.855000", "112230.345000", "112231.835000", "112233.325000", "112234.815000", "112236.305000", "112237.795000", "112239.285000", "112240.775000", "112242.265000", "112243.755000", "112245.245000", "112246.735000", "112248.225000", "112249.715000", "112251.205000", "112252.695000", "112254.185000", "112255.675000", "112257.165000", "112258.655000", "112300.145000", "112301.635000", "112303.125000", "112304.615000", "112306.105000", "112307.595000", "112309.085000", "112310.575000", "112312.065000", "112313.555000", "112315.045000", "112316.535000", "112318.025000", "112319.515000", "112321.005000", "112322.495000", "112323.985000", "112325.475000", "112326.965000", "112328.455000", "112329.945000", "112331.435000", "112332.925000", "112334.415000", "112335.905000", "112337.395000", "112338.885000", "112340.375000", "112341.865000", "112343.355000", "112344.845000", "112346.335000", "112347.825000", "112349.315000", "112350.805000"],
      "ContentTime": ["111406.180000", "111406.183000", "111406.206000", "111406.209000", "111406.212000", "111406.215000", "111406.218000", "111406.221000", "111406.224000", "111406.227000", "111406.230000", "111406.233000", "111406.236000", "111406.239000", "111406.242000", "111406.245000", "111406.248000", "111406.251000", "111406.258000", "111406.261000", "111406.264000", "111406.267000", "111406.270000", "111406.272000", "111406.276000", "111406.278000", "111406.281000", "111406.284000", "111406.287000", "111406.290000", "111406.299000", "111426.144000", "111426.147000", "111426.150000", "111426.153000", "111426.156000", "111426.164000", "111426.167000", "111426.170000", "111426.173000", "111426.176000", "111426.179000", "111426.182000", "111426.185000", "111426.188000", "111426.191000", "111426.194000", "111426.197000", "111426.200000", "111426.202000", "111426.205000", "111426.208000", "111446.144000", "111446.147000", "111446.150000", "111446.153000", "111446.156000", "111446.159000", "111446.162000", "111446.165000", "111446.168000", "111446.171000", "111446.174000", "111446.177000", "111446.180000", "111446.183000", "111446.186000", "111446.189000", "111446.192000", "111446.195000", "111446.198000", "111446.201000", "111506.144000", "111506.147000", "111506.150000", "111506.153000", "111506.156000", "111506.159000", "111506.162000", "111506.165000", "111506.168000", "111506.171000", "111506.174000", "111506.177000", "111506.180000", "111506.183000", "111506.186000", "111506.197000", "111506.200000", "111506.202000", "111506.205000", "111506.209000", "111546.144000", "111546.147000", "111546.150000", "111546.153000", "111546.156000", "111546.159000", "111546.162000", "111546.165000", "111546.168000", "111546.171000", "111546.174000", "111546.177000", "111546.180000", "111546.183000", "111546.186000", "111546.189000", "111546.192000", "111546.195000", "111546.198000", "111546.201000", "111546.204000", "111546.207000", "111546.210000", "111546.213000", "111546.216000", "111546.219000", "111546.222000", "111546.224000", "111546.227000", "111546.230000", "111546.233000", "111626.145000", "111626.148000", "111626.151000", "111626.154000", "111626.157000", "111626.160000", "111626.176000", "111626.178000", "111626.182000", "111626.185000", "111626.187000", "111626.190000", "111626.194000", "111626.196000", "111626.199000", "111626.202000", "111626.205000", "111626.208000", "111626.211000", "111626.214000", "111626.217000", "111626.220000", "111626.223000", "111626.226000", "111626.230000", "111626.233000", "111626.236000", "111706.144000", "111706.147000", "111706.150000", "111706.153000", "111706.156000", "111706.159000", "111706.162000", "111706.165000", "111706.168000", "111706.171000", "111706.174000", "111706.177000", "111706.180000", "111706.183000", "111706.186000", "111706.189000", "111706.192000", "111706.195000", "111706.198000", "111706.201000", "111706.204000", "111706.207000", "111706.210000", "111706.213000", "111706.216000", "111706.220000", "111706.223000", "111746.144000", "111746.147000", "111746.150000", "111746.153000", "111746.156000", "111746.159000", "111746.163000", "111746.166000", "111746.169000", "111746.172000", "111746.175000", "111746.178000", "111746.181000", "111746.184000", "111746.187000", "111746.190000", "111746.193000", "111746.196000", "111746.199000", "111746.202000", "111746.205000", "111746.208000", "111746.211000", "111746.214000", "111746.217000", "111746.220000", "111746.223000", "111826.145000", "111826.148000", "111826.151000", "111826.154000", "111826.157000", "111826.160000", "111826.163000", "111826.166000", "111826.169000", "111826.172000", "111826.175000", "111826.178000", "111826.181000", "111826.184000", "111826.187000", "111826.190000", "111826.193000", "111826.196000", "111826.199000", "111826.202000", "111826.205000", "111826.209000", "111826.211000", "111826.215000", "111826.218000", "111826.220000", "111846.145000", "111846.148000", "111846.151000", "111846.154000", "111846.157000", "111846.160000", "111846.163000", "111846.166000", "111846.169000", "111846.172000", "111846.175000", "111846.178000", "111846.181000", "111846.184000", "111926.144000", "111926.147000", "111926.150000", "111926.153000", "111926.156000", "111926.159000", "111926.162000", "111926.165000", "111926.168000", "111926.171000", "111926.174000", "111926.177000", "111926.180000", "111926.183000", "111926.186000", "111926.189000", "111926.192000", "111926.195000", "111926.198000", "111926.201000", "111926.204000", "111926.207000", "111926.210000", "111926.213000", "111926.215000", "111926.219000", "111926.221000", "112006.144000", "112006.147000", "112006.150000", "112006.153000", "112006.157000", "112006.161000", "112006.164000", "112006.168000", "112006.172000", "112006.175000", "112006.178000", "112006.181000", "112006.184000", "112006.187000", "112006.190000", "112006.193000", "112006.197000", "112006.199000", "112006.202000", "112006.205000", "112006.208000", "112006.211000", "112006.214000", "112006.217000", "112006.228000", "112006.231000", "112046.145000", "112046.148000", "112046.151000", "112046.154000", "112046.157000", "112046.160000", "112046.163000", "112046.166000", "112046.169000", "112046.172000", "112046.175000", "112046.178000", "112046.181000", "112046.184000", "112046.187000", "112046.190000", "112046.193000", "112046.196000", "112046.199000", "112046.202000", "112046.205000", "112046.207000", "112046.210000", "112046.213000", "112046.216000", "112046.219000", "112046.222000", "112126.144000", "112126.147000", "112126.150000", "112126.153000", "112126.156000", "112126.159000", "112126.162000", "112126.165000", "112126.168000", "112126.171000", "112126.174000", "112126.177000", "112126.180000", "112126.183000", "112126.186000", "112126.189000", "112126.192000", "112126.195000", "112126.198000", "112126.201000", "112126.204000", "112126.207000", "112126.210000", "112126.213000", "112126.216000", "112126.219000", "112126.222000", "112206.144000", "112206.147000", "112206.150000", "112206.153000", "112206.156000", "112206.159000", "112206.162000", "112206.165000", "112206.168000", "112206.171000", "112206.174000", "112206.177000", "112206.180000", "112206.183000", "112206.186000", "112206.189000", "112206.192000", "112206.195000", "112206.198000", "112206.201000", "112206.204000", "112206.207000", "112206.210000", "112206.213000", "112206.216000", "112206.219000", "112206.222000", "112246.144000", "112246.147000", "112246.168000", "112246.171000", "112246.174000", "112246.177000", "112246.180000", "112246.183000", "112246.186000", "112246.189000", "112246.192000", "112246.195000", "112246.198000", "112246.201000", "112246.204000", "112246.207000", "112246.210000", "112246.213000", "112246.216000", "112246.219000", "112246.222000", "112246.225000", "112246.228000", "112246.231000", "112246.234000", "112246.237000", "112246.240000", "112326.145000", "112326.148000", "112326.151000", "112326.154000", "112326.157000", "112326.160000", "112326.163000", "112326.166000", "112326.169000", "112326.172000", "112326.175000", "112326.178000", "112326.181000", "112326.184000", "112326.187000", "112326.190000", "112326.193000", "112326.196000", "112326.199000", "112326.202000", "112326.205000", "112326.208000", "112326.211000", "112326.214000", "112326.217000", "112326.220000", "112326.223000", "112352.682000", "112352.686000", "112352.689000", "112352.692000", "112352.695000", "112352.698000", "112352.700000", "112352.704000", "112352.706000", "112352.709000", "112352.712000", "112352.715000", "112352.719000", "112352.721000", "112352.724000", "112352.727000", "112352.730000", "112352.733000"],
