{
  "AcquisitionMatrixPE": 104,
  "AcquisitionNumber": 1,
  "AcquisitionTime": "10:10:48.510000",
  "BandwidthPerPixelPhaseEncode": 17.17,
  "BaseResolution": 104,
  "BodyPartExamined": "BRAIN",
  "CoilString": "HC1-7;NC1_2",
  "ConsistencyInfo": "N4_VE11C_LATEST_20160120",
  "ConversionSoftware": "dcm2niix",
  "ConversionSoftwareVersion": "v1.0.20190902",
  "DerivedVendorReportedEchoSpacing": 0.000560011,
  "DeviceSerialNumber": "167006",
  "DwellTime": 2.1e-06,
  "EchoTime": 0.037,
  "EchoTrainLength": 104,
  "EffectiveEchoSpacing": 0.000560011,
  "FlipAngle": 52,
  "ImageComments": "Unaliased_MB4_PE3_LB",
  "ImageOrientationPatientDICOM": [0.999849, 0.0154114, 0.00797539, -0.00959815, 0.874061, -0.485721],
  "ImageType": [
    "ORIGINAL",
    "PRIMARY",
    "M",
    "MB",
    "ND",
    "MOSAIC"
],
  "ImagingFrequency": 123.259,
  "InPlanePhaseEncodingDirectionDICOM": "COL",
  "InstitutionAddress": "Chemin_Queen-Mary_4565_Montreal_District_CA_H3W_1W5",
  "InstitutionName": "IUGM",
  "InstitutionalDepartmentName": "Department",
  "MRAcquisitionType": "2D",
  "MagneticFieldStrength": 3,
  "Manufacturer": "Siemens",
  "ManufacturersModelName": "Prisma_fit",
  "Modality": "MR",
  "MultibandAccelerationFactor": 4,
  "PartialFourier": 1,
  "PatientPosition": "HFS",
  "PercentPhaseFOV": 100,
  "PhaseEncodingDirection": "j",
  "PhaseEncodingSteps": 104,
  "PhaseResolution": 1,
  "PixelBandwidth": 2290,
  "ProcedureStepDescription": "video_friends",
  "ProtocolName": "func_task-friends-s04e16a",
  "PulseSequenceDetails": "%CustomerSeq%_cmrr_mbep2d_bold",
  "ReceiveCoilActiveElements": "HC1-7;NC1,2",
  "ReceiveCoilName": "HeadNeck_64",
  "ReconMatrixPE": 104,
  "RepetitionTime": 1.49,
  "SAR": 0.0354874,
  "ScanOptions": "FS",
  "ScanningSequence": "EP",
  "SequenceName": "epfid2d1_104",
  "SequenceVariant": "SK_SS",
  "SeriesDescription": "func_task-friends-s04e16a",
  "SeriesNumber": 9,
  "ShimSetting": [624, -7217, -8855, 428, -22, -229, 1, -27],
  "SliceThickness": 2,
  "SliceTiming": [0, 0.7825, 0.0975, 0.8825, 0.195, 0.98, 0.2925, 1.0775, 0.3925, 1.175, 0.49, 1.2725, 0.5875, 1.3725, 0.685, 0, 0.7825, 0.0975, 0.8825, 0.195, 0.98, 0.2925, 1.0775, 0.3925, 1.175, 0.49, 1.2725, 0.5875, 1.3725, 0.685, 0, 0.7825, 0.0975, 0.8825, 0.195, 0.98, 0.2925, 1.0775, 0.3925, 1.175, 0.49, 1.2725, 0.5875, 1.3725, 0.685, 0, 0.7825, 0.0975, 0.8825, 0.195, 0.98, 0.2925, 1.0775, 0.3925, 1.175, 0.49, 1.2725, 0.5875, 1.3725, 0.685],
  "SoftwareVersions": "syngo_MR_E11",
  "SpacingBetweenSlices": 2,
  "StationName": "MRC35049",
  "TaskName": "s04e16a",
  "TotalReadoutTime": 0.0576811,
  "TxRefAmp": 248.5,
  "WipMemBlock": "e30b285b-9710-4f70-a40c-b8aa01bcc5a7||Sequence: R016 ve11c/master r/e634e98; Dec 19 2017 11:00:25 by eja",
  "dcmmeta_affine": [
    [-1.9996988773345947, -0.01919630356132984, 0.028913239017128944, 102.7562484741211],
    [-0.030822815373539925, 1.7481229305267334, -0.9711416959762573, -59.474510192871094],
    [0.015950782224535942, 0.9714410901069641, 1.7481554746627808, -94.28803253173828],
    [0.0, 0.0, 0.0, 1.0]
],
  "dcmmeta_reorient_transform": [
    [0.0, -1.0, 0.0, 103.0],
    [1.0, 0.0, 0.0, 0.0],
    [0.0, 0.0, 1.0, 0.0],
    [0.0, 0.0, 0.0, 1.0]
],
  "dcmmeta_shape": [104, 104, 60, 487],
  "dcmmeta_slice_dim": 2,
  "dcmmeta_version": 0.6,
  "global": {
    "const": {
      "AcquisitionMatrix": [104, 0, 0, 104],
      "AngioFlag": "N",
      "BitsAllocated": 16,
      "BitsStored": 16,
      "BodyPartExamined": "BRAIN",
      "Columns": 832,
      "EchoNumbers": 1,
      "EchoTime": 37.0,
      "EchoTrainLength": 104,
      "FlipAngle": 52.0,
      "HighBit": 15,
      "ImageOrientationPatient": [0.99984942948669, 0.01541140789967, 0.00797539100515, -0.0095981516524, 0.87406145874334, -0.4857205388125],
      "ImagePositionPatient": [-821.68196300514, -768.11839800841, 353.56886287808],
      "ImageType": [
        "ORIGINAL",
        "PRIMARY",
        "M",
        "MB",
        "ND",
        "MOSAIC"
],
      "ImagedNucleus": "1H",
      "ImagingFrequency": 123.258994,
      "InPlanePhaseEncodingDirection": "COL",
      "MRAcquisitionType": "2D",
      "MagneticFieldStrength": 3.0,
      "Manufacturer": "SIEMENS",
      "ManufacturerModelName": "Prisma_fit",
      "Modality": "MR",
      "NumberOfAverages": 1.0,
      "NumberOfPhaseEncodingSteps": 104,
      "PercentPhaseFieldOfView": 100.0,
      "PercentSampling": 100.0,
      "PerformedProcedureStepStartTime": "091743.923000",
      "PhotometricInterpretation": "MONOCHROME2",
      "PixelBandwidth": 2290.0,
      "PixelRepresentation": 0,
      "PixelSpacing": [2.0, 2.0],
      "ProtocolName": "func_task-friends-s04e16a",
      "RepetitionTime": 1490.0,
      "Rows": 832,
      "SAR": 0.03548735573392,
      "SamplesPerPixel": 1,
      "ScanOptions": "FS",
      "ScanningSequence": "EP",
      "SequenceName": "epfid2d1_104",
      "SequenceVariant": [
        "SK",
        "SS"
],
      "SeriesDescription": "func_task-friends-s04e16a",
      "SeriesNumber": 9,
      "SeriesTime": "101219.829000",
      "SliceLocation": -52.050479808,
      "SliceThickness": 2.0,
      "SmallestImagePixelValue": 0,
      "SoftwareVersions": "syngo MR E11",
      "SpacingBetweenSlices": 1.9999999787464,
      "SpecificCharacterSet": "ISO_IR 100",
      "StudyID": "1",
      "StudyTime": "091743.651000",
      "TransmitCoilName": "Body",
      "VariableFlipAngleFlag": "N",
      "WindowCenterWidthExplanation": "Algo1",
      "dBdt": 0.0},
    "slices": {}
  },
  "time": {
    "samples": {
      "AcquisitionNumber": [1, 2, 3, 4, 5, 6, 7, 8, 9, 10, 11, 12, 13, 14, 15, 16, 17, 18, 19, 20, 21, 22, 23, 24, 25, 26, 27, 28, 29, 30, 31, 32, 33, 34, 35, 36, 37, 38, 39, 40, 41, 42, 43, 44, 45, 46, 47, 48, 49, 50, 51, 52, 53, 54, 55, 56, 57, 58, 59, 60, 61, 62, 63, 64, 65, 66, 67, 68, 69, 70, 71, 72, 73, 74, 75, 76, 77, 78, 79, 80, 81, 82, 83, 84, 85, 86, 87, 88, 89, 90, 91, 92, 93, 94, 95, 96, 97, 98, 99, 100, 101, 102, 103, 104, 105, 106, 107, 108, 109, 110, 111, 112, 113, 114, 115, 116, 117, 118, 119, 120, 121, 122, 123, 124, 125, 126, 127, 128, 129, 130, 131, 132, 133, 134, 135, 136, 137, 138, 139, 140, 141, 142, 143, 144, 145, 146, 147, 148, 149, 150, 151, 152, 153, 154, 155, 156, 157, 158, 159, 160, 161, 162, 163, 164, 165, 166, 167, 168, 169, 170, 171, 172, 173, 174, 175, 176, 177, 178, 179, 180, 181, 182, 183, 184, 185, 186, 187, 188, 189, 190, 191, 192, 193, 194, 195, 196, 197, 198, 199, 200, 201, 202, 203, 204, 205, 206, 207, 208, 209, 210, 211, 212, 213, 214, 215, 216, 217, 218, 219, 220, 221, 222, 223, 224, 225, 226, 227, 228, 229, 230, 231, 232, 233, 234, 235, 236, 237, 238, 239, 240, 241, 242, 243, 244, 245, 246, 247, 248, 249, 250, 251, 252, 253, 254, 255, 256, 257, 258, 259, 260, 261, 262, 263, 264, 265, 266, 267, 268, 269, 270, 271, 272, 273, 274, 275, 276, 277, 278, 279, 280, 281, 282, 283, 284, 285, 286, 287, 288, 289, 290, 291, 292, 293, 294, 295, 296, 297, 298, 299, 300, 301, 302, 303, 304, 305, 306, 307, 308, 309, 310, 311, 312, 313, 314, 315, 316, 317, 318, 319, 320, 321, 322, 323, 324, 325, 326, 327, 328, 329, 330, 331, 332, 333, 334, 335, 336, 337, 338, 339, 340, 341, 342, 343, 344, 345, 346, 347, 348, 349, 350, 351, 352, 353, 354, 355, 356, 357, 358, 359, 360, 361, 362, 363, 364, 365, 366, 367, 368, 369, 370, 371, 372, 373, 374, 375, 376, 377, 378, 379, 380, 381, 382, 383, 384, 385, 386, 387, 388, 389, 390, 391, 392, 393, 394, 395, 396, 397, 398, 399, 400, 401, 402, 403, 404, 405, 406, 407, 408, 409, 410, 411, 412, 413, 414, 415, 416, 417, 418, 419, 420, 421, 422, 423, 424, 425, 426, 427, 428, 429, 430, 431, 432, 433, 434, 435, 436, 437, 438, 439, 440, 441, 442, 443, 444, 445, 446, 447, 448, 449, 450, 451, 452, 453, 454, 455, 456, 457, 458, 459, 460, 461, 462, 463, 464, 465, 466, 467, 468, 469, 470, 471, 472, 473, 474, 475, 476, 477, 478, 479, 480, 481, 482, 483, 484, 485, 486, 487],
      "AcquisitionTime": ["101048.510000", "101050.000000", "101051.490000", "101052.980000", "101054.470000", "101055.960000", "101057.450000", "101058.940000", "101100.430000", "101101.920000", "101103.410000", "101104.900000", "101106.390000", "101107.880000", "101109.370000", "101110.860000", "101112.350000", "101113.840000", "101115.330000", "101116.820000", "101118.310000", "101119.800000", "101121.290000", "101122.780000", "101124.270000", "101125.760000", "101127.250000", "101128.740000", "101130.230000", "101131.720000", "101133.210000", "101134.700000", "101136.190000", "101137.680000", "101139.170000", "101140.660000", "101142.150000", "101143.640000", "101145.130000", "101146.620000", "101148.110000", "101149.600000", "101151.090000", "101152.580000", "101154.070000", "101155.560000", "101157.050000", "101158.540000", "101200.030000", "101201.520000", "101203.010000", "101204.500000", "101205.990000", "101207.480000", "101208.970000", "101210.460000", "101211.950000", "101213.440000", "101214.930000", "101216.420000", "101217.910000", "101219.400000", "101220.890000", "101222.380000", "101223.870000", "101225.360000", "101226.850000", "101228.340000", "101229.830000", "101231.320000", "101232.810000", "101234.300000", "101235.790000", "101237.280000", "101238.770000", "101240.260000", "101241.750000", "101243.240000", "101244.730000", "101246.220000", "101247.710000", "101249.200000", "101250.690000", "101252.180000", "101253.670000", "101255.160000", "101256.650000", "101258.140000", "101259.630000", "101301.120000", "101302.610000", "101304.100000", "101305.590000", "101307.080000", "101308.570000", "101310.060000", "101311.550000", "101313.040000", "101314.530000", "101316.020000", "101317.510000", "101319.000000", "101320.490000", "101321.980000", "101323.470000", "101324.960000", "101326.450000", "101327.940000", "101329.430000", "101330.920000", "101332.410000", "101333.900000", "101335.390000", "101336.880000", "101338.370000", "101339.860000", "101341.350000", "101342.840000", "101344.330000", "101345.820000", "101347.310000", "101348.800000", "101350.290000", "101351.780000", "101353.270000", "101354.760000", "101356.250000", "101357.740000", "101359.230000", "101400.720000", "101402.210000", "101403.700000", "101405.190000", "101406.680000", "101408.170000", "101409.660000", "101411.150000", "101412.640000", "101414.130000", "101415.620000", "101417.110000", "101418.600000", "101420.090000", "101421.580000", "101423.070000", "101424.560000", "101426.050000", "101427.540000", "101429.030000", "101430.520000", "101432.010000", "101433.500000", "101434.990000", "101436.480000", "101437.970000", "101439.460000", "101440.950000", "101442.440000", "101443.930000", "101445.420000", "101446.910000", "101448.400000", "101449.890000", "101451.380000", "101452.870000", "101454.360000", "101455.850000", "101457.340000", "101458.830000", "101500.320000", "101501.810000", "101503.300000", "101504.790000", "101506.280000", "101507.770000", "101509.260000", "101510.750000", "101512.240000", "101513.730000", "101515.220000", "101516.710000", "101518.200000", "101519.690000", "101521.180000", "101522.670000", "101524.160000", "101525.650000", "101527.140000", "101528.630000", "101530.120000", "101531.610000", "101533.100000", "101534.590000", "101536.080000", "101537.570000", "101539.060000", "101540.550000", "101542.040000", "101543.530000", "101545.020000", "101546.510000", "101548.000000", "101549.490000", "101550.980000", "101552.470000", "101553.960000", "101555.450000", "101556.940000", "101558.430000", "101559.920000", "101601.410000", "101602.900000", "101604.390000", "101605.880000", "101607.370000", "101608.860000", "101610.350000", "101611.840000", "101613.330000", "101614.820000", "101616.310000", "101617.800000", "101619.290000", "101620.780000", "101622.270000", "101623.760000", "101625.250000", "101626.740000", "101628.230000", "101629.720000", "101631.210000", "101632.700000", "101634.190000", "101635.680000", "101637.170000", "101638.660000", "101640.150000", "101641.640000", "101643.130000", "101644.620000", "101646.110000", "101647.600000", "101649.090000", "101650.580000", "101652.070000", "101653.560000", "101655.050000", "101656.540000", "101658.030000", "101659.520000", "101701.010000", "101702.500000", "101703.990000", "101705.480000", "101706.970000", "101708.460000", "101709.950000", "101711.440000", "101712.930000", "101714.420000", "101715.910000", "101717.400000", "101718.890000", "101720.380000", "101721.870000", "101723.360000", "101724.850000", "101726.340000", "101727.830000", "101729.320000", "101730.810000", "101732.300000", "101733.790000", "101735.280000", "101736.770000", "101738.260000", "101739.750000", "101741.240000", "101742.730000", "101744.220000", "101745.710000", "101747.200000", "101748.690000", "101750.180000", "101751.670000", "101753.160000", "101754.650000", "101756.140000", "101757.630000", "101759.120000", "101800.610000", "101802.100000", "101803.590000", "101805.080000", "101806.570000", "101808.060000", "101809.550000", "101811.040000", "101812.530000", "101814.020000", "101815.510000", "101817.000000", "101818.490000", "101819.980000", "101821.470000", "101822.960000", "101824.450000", "101825.940000", "101827.430000", "101828.920000", "101830.410000", "101831.900000", "101833.390000", "101834.880000", "101836.370000", "101837.860000", "101839.350000", "101840.840000", "101842.330000", "101843.820000", "101845.310000", "101846.800000", "101848.290000", "101849.780000", "101851.270000", "101852.760000", "101854.250000", "101855.740000", "101857.230000", "101858.720000", "101900.210000", "101901.700000", "101903.190000", "101904.680000", "101906.170000", "101907.660000", "101909.150000", "101910.640000", "101912.130000", "101913.620000", "101915.110000", "101916.600000", "101918.090000", "101919.580000", "101921.070000", "101922.560000", "101924.050000", "101925.540000", "101927.030000", "101928.520000", "101930.010000", "101931.500000", "101932.990000", "101934.480000", "101935.970000", "101937.460000", "101938.950000", "101940.440000", "101941.930000", "101943.420000", "101944.910000", "101946.400000", "101947.890000", "101949.380000", "101950.870000", "101952.360000", "101953.850000", "101955.340000", "101956.830000", "101958.320000", "101959.810000", "102001.300000", "102002.790000", "102004.280000", "102005.770000", "102007.260000", "102008.750000", "102010.240000", "102011.730000", "102013.220000", "102014.710000", "102016.200000", "102017.690000", "102019.180000", "102020.670000", "102022.160000", "102023.650000", "102025.140000", "102026.630000", "102028.120000", "102029.610000", "102031.100000", "102032.590000", "102034.080000", "102035.570000", "102037.060000", "102038.550000", "102040.040000", "102041.530000", "102043.020000", "102044.510000", "102046.000000", "102047.490000", "102048.980000", "102050.470000", "102051.960000", "102053.450000", "102054.940000", "102056.430000", "102057.920000", "102059.410000", "102100.900000", "102102.390000", "102103.880000", "102105.370000", "102106.860000", "102108.350000", "102109.840000", "102111.330000", "102112.820000", "102114.310000", "102115.800000", "102117.290000", "102118.780000", "102120.270000", "102121.760000", "102123.250000", "102124.740000", "102126.230000", "102127.720000", "102129.210000", "102130.700000", "102132.190000", "102133.680000", "102135.170000", "102136.660000", "102138.150000", "102139.640000", "102141.130000", "102142.620000", "102144.110000", "102145.600000", "102147.090000", "102148.580000", "102150.070000", "102151.560000", "102153.050000", "102154.540000", "102156.030000", "102157.520000", "102159.010000", "102200.500000", "102201.990000", "102203.480000", "102204.970000", "102206.460000", "102207.950000", "102209.440000", "102210.930000", "102212.420000", "102213.910000", "102215.400000", "102216.890000", "102218.380000", "102219.870000", "102221.360000", "102222.850000", "102224.340000", "102225.830000", "102227.320000", "102228.810000", "102230.300000", "102231.790000", "102233.280000", "102234.770000", "102236.260000", "102237.750000", "102239.240000", "102240.730000", "102242.220000", "102243.710000", "102245.200000", "102246.690000", "102248.180000", "102249.670000", "102251.160000", "102252.650000"],
      "ContentTime": ["101219.835000", "101219.841000", "101219.845000", "101219.848000", "101219.852000", "101219.857000", "101219.862000", "101219.865000", "101219.869000", "101219.873000", "101219.877000", "101219.880000", "101219.883000", "101219.886000", "101219.891000", "101219.901000", "101219.905000", "101219.907000", "101219.911000", "101219.914000", "101219.917000", "101219.920000", "101219.924000", "101219.927000", "101219.931000", "101219.935000", "101219.938000", "101219.942000", "101219.946000", "101219.949000", "101219.953000", "101219.956000", "101219.960000", "101219.963000", "101219.970000", "101219.974000", "101239.781000", "101239.785000", "101239.789000", "101239.792000", "101239.796000", "101239.799000", "101239.802000", "101239.805000", "101239.809000", "101239.812000", "101239.825000", "101239.828000", "101239.831000", "101239.835000", "101239.838000", "101239.842000", "101239.845000", "101239.849000", "101239.852000", "101239.855000", "101259.781000", "101259.784000", "101259.787000", "101259.790000", "101259.793000", "101259.796000", "101259.799000", "101259.802000", "101259.805000", "101259.808000", "101259.811000", "101259.814000", "101259.817000", "101259.820000", "101259.823000", "101259.825000", "101259.828000", "101259.831000", "101259.834000", "101259.837000", "101319.781000", "101319.784000", "101319.787000", "101319.790000", "101319.793000", "101319.796000", "101319.799000", "101319.802000", "101319.805000", "101319.808000", "101319.811000", "101319.814000", "101319.817000", "101319.820000", "101319.823000", "101319.826000", "101319.829000", "101319.832000", "101319.835000", "101319.838000", "101359.780000", "101359.783000", "101359.786000", "101359.789000", "101359.792000", "101359.795000", "101359.798000", "101359.801000", "101359.804000", "101359.807000", "101359.810000", "101359.813000", "101359.816000", "101359.819000", "101359.822000", "101359.825000", "101359.828000", "101359.831000", "101359.834000", "101359.837000", "101359.840000", "101359.843000", "101359.846000", "101359.866000", "101359.869000", "101359.872000", "101359.875000", "101359.878000", "101359.881000", "101359.884000", "101359.887000", "101359.890000", "101439.781000", "101439.784000", "101439.788000", "101439.791000", "101439.794000", "101439.797000", "101439.800000", "101439.803000", "101439.806000", "101439.809000", "101439.812000", "101439.815000", "101439.818000", "101439.821000", "101439.824000", "101439.827000", "101439.830000", "101439.833000", "101439.836000", "101439.839000", "101439.841000", "101439.845000", "101439.848000", "101439.851000", "101439.854000", "101439.857000", "101519.781000", "101519.784000", "101519.787000", "101519.790000", "101519.793000", "101519.796000", "101519.799000", "101519.802000", "101519.805000", "101519.808000", "101519.811000", "101519.814000", "101519.817000", "101519.820000", "101519.823000", "101519.826000", "101519.829000", "101519.832000", "101519.835000", "101519.838000", "101519.841000", "101519.844000", "101519.847000", "101519.850000", "101519.853000", "101519.856000", "101519.859000", "101559.780000", "101559.783000", "101559.786000", "101559.789000", "101559.792000", "101559.795000", "101559.798000", "101559.801000", "101559.804000", "101559.807000", "101559.810000", "101559.813000", "101559.817000", "101559.820000", "101559.822000", "101559.825000", "101559.828000", "101559.831000", "101559.834000", "101559.837000", "101559.840000", "101559.843000", "101559.846000", "101559.849000", "101559.852000", "101559.855000", "101559.858000", "101639.781000", "101639.784000", "101639.787000", "101639.790000", "101639.793000", "101639.796000", "101639.799000", "101639.802000", "101639.805000", "101639.808000", "101639.811000", "101639.814000", "101639.817000", "101639.820000", "101639.823000", "101639.826000", "101639.829000", "101639.832000", "101639.835000", "101639.838000", "101639.841000", "101639.844000", "101639.847000", "101639.850000", "101639.853000", "101639.856000", "101639.859000", "101719.781000", "101719.784000", "101719.787000", "101719.790000", "101719.793000", "101719.796000", "101719.799000", "101719.811000", "101719.814000", "101719.817000", "101719.822000", "101719.825000", "101719.828000", "101719.831000", "101719.834000", "101719.837000", "101719.840000", "101719.843000", "101719.846000", "101719.849000", "101719.852000", "101719.855000", "101719.858000", "101719.861000", "101719.864000", "101719.867000", "101719.870000", "101759.781000", "101759.784000", "101759.787000", "101759.790000", "101759.793000", "101759.796000", "101759.799000", "101759.802000", "101759.805000", "101759.808000", "101759.811000", "101759.814000", "101759.817000", "101759.820000", "101759.823000", "101759.826000", "101759.829000", "101759.832000", "101759.835000", "101759.838000", "101759.841000", "101759.844000", "101759.847000", "101759.850000", "101759.853000", "101759.856000", "101759.859000", "101839.780000", "101839.783000", "101839.786000", "101839.789000", "101839.792000", "101839.796000", "101839.799000", "101839.802000", "101839.805000", "101839.808000", "101839.812000", "101839.815000", "101839.818000", "101839.821000", "101839.824000", "101839.827000", "101839.830000", "101839.833000", "101839.836000", "101839.839000", "101839.842000", "101839.845000", "101839.848000", "101839.851000", "101839.854000", "101839.857000", "101859.781000", "101859.784000", "101859.787000", "101859.790000", "101859.793000", "101859.796000", "101859.814000", "101859.817000", "101859.820000", "101859.823000", "101859.826000", "101859.828000", "101859.832000", "101859.834000", "101939.781000", "101939.784000", "101939.787000", "101939.790000", "101939.793000", "101939.796000", "101939.799000", "101939.802000", "101939.805000", "101939.808000", "101939.811000", "101939.814000", "101939.817000", "101939.820000", "101939.823000", "101939.826000", "101939.829000", "101939.832000", "101939.835000", "101939.838000", "101939.841000", "101939.844000", "101939.847000", "101939.850000", "101939.853000", "101939.856000", "101939.859000", "102019.781000", "102019.784000", "102019.787000", "102019.790000", "102019.793000", "102019.796000", "102019.799000", "102019.802000", "102019.805000", "102019.808000", "102019.811000", "102019.815000", "102019.818000", "102019.821000", "102019.824000", "102019.827000", "102019.830000", "102019.833000", "102019.836000", "102019.839000", "102019.842000", "102019.845000", "102019.848000", "102019.851000", "102019.854000", "102019.857000", "102019.860000", "102059.780000", "102059.783000", "102059.786000", "102059.789000", "102059.793000", "102059.796000", "102059.799000", "102059.802000", "102059.805000", "102059.808000", "102059.811000", "102059.814000", "102059.817000", "102059.820000", "102059.823000", "102059.826000", "102059.829000", "102059.832000", "102059.834000", "102059.837000", "102059.848000", "102059.851000", "102059.854000", "102059.857000", "102059.860000", "102059.863000", "102139.781000", "102139.784000", "102139.787000", "102139.790000", "102139.793000", "102139.796000", "102139.799000", "102139.802000", "102139.805000", "102139.808000", "102139.811000", "102139.814000", "102139.817000", "102139.820000", "102139.823000", "102139.826000", "102139.829000", "102139.832000", "102139.835000", "102139.838000", "102139.841000", "102139.844000", "102139.847000", "102139.850000", "102139.853000", "102139.856000", "102139.859000", "102219.781000", "102219.784000", "102219.787000", "102219.790000", "102219.793000", "102219.796000", "102219.799000", "102219.802000", "102219.805000", "102219.808000", "102219.811000", "102219.814000", "102219.817000", "102219.820000", "102219.823000", "102219.826000", "102219.829000", "102219.832000", "102219.835000", "102219.838000", "102219.841000", "102219.844000", "102219.847000", "102219.850000", "102219.853000", "102219.856000", "102219.859000", "102254.661000", "102254.664000", "102254.667000", "102254.670000", "102254.681000", "102254.684000", "102254.688000", "102254.691000", "102254.694000", "102254.698000", "102254.701000", "102254.704000", "102254.707000", "102254.710000", "102254.713000", "102254.716000", "102254.720000", "102254.723000", "102254.726000", "102254.729000", "102254.732000", "102254.735000", "102254.738000", "102254.741000"],
