{
  "AcquisitionMatrixPE": 104,
  "AcquisitionNumber": 1,
  "AcquisitionTime": "10:36:4.107500",
  "BandwidthPerPixelPhaseEncode": 17.17,
  "BaseResolution": 104,
  "BodyPartExamined": "BRAIN",
  "CoilString": "HC1-7;NC1_2",
  "ConsistencyInfo": "N4_VE11C_LATEST_20160120",
  "ConversionSoftware": "dcm2niix",
  "ConversionSoftwareVersion": "v1.0.20190902",
  "DerivedVendorReportedEchoSpacing": 0.000560011,
  "DeviceSerialNumber": "167006",
  "DwellTime": 2.1e-06,
  "EchoTime": 0.037,
  "EchoTrainLength": 104,
  "EffectiveEchoSpacing": 0.000560011,
  "FlipAngle": 52,
  "ImageComments": "Unaliased_MB4_PE3_LB",
  "ImageOrientationPatientDICOM": [0.999849, 0.0154114, 0.00797539, -0.00959815, 0.874061, -0.485721],
  "ImageType": [
    "ORIGINAL",
    "PRIMARY",
    "M",
    "MB",
    "ND",
    "MOSAIC"
],
  "ImagingFrequency": 123.259,
  "InPlanePhaseEncodingDirectionDICOM": "COL",
  "InstitutionAddress": "Chemin_Queen-Mary_4565_Montreal_District_CA_H3W_1W5",
  "InstitutionName": "IUGM",
  "InstitutionalDepartmentName": "Department",
  "MRAcquisitionType": "2D",
  "MagneticFieldStrength": 3,
  "Manufacturer": "Siemens",
  "ManufacturersModelName": "Prisma_fit",
  "Modality": "MR",
  "MultibandAccelerationFactor": 4,
  "PartialFourier": 1,
  "PatientPosition": "HFS",
  "PercentPhaseFOV": 100,
  "PhaseEncodingDirection": "j",
  "PhaseEncodingSteps": 104,
  "PhaseResolution": 1,
  "PixelBandwidth": 2290,
  "ProcedureStepDescription": "video_friends",
  "ProtocolName": "func_task-friends-s04e17a",
  "PulseSequenceDetails": "%CustomerSeq%_cmrr_mbep2d_bold",
  "ReceiveCoilActiveElements": "HC1-7;NC1,2",
  "ReceiveCoilName": "HeadNeck_64",
  "ReconMatrixPE": 104,
  "RepetitionTime": 1.49,
  "SAR": 0.0354846,
  "ScanOptions": "FS",
  "ScanningSequence": "EP",
  "SequenceName": "epfid2d1_104",
  "SequenceVariant": "SK_SS",
  "SeriesDescription": "func_task-friends-s04e17a",
  "SeriesNumber": 13,
  "ShimSetting": [624, -7217, -8855, 428, -22, -229, 1, -27],
  "SliceThickness": 2,
  "SliceTiming": [0, 0.785, 0.0975, 0.8825, 0.195, 0.98, 0.295, 1.0775, 0.3925, 1.175, 0.49, 1.275, 0.5875, 1.3725, 0.685, 0, 0.785, 0.0975, 0.8825, 0.195, 0.98, 0.295, 1.0775, 0.3925, 1.175, 0.49, 1.275, 0.5875, 1.3725, 0.685, 0, 0.785, 0.0975, 0.8825, 0.195, 0.98, 0.295, 1.0775, 0.3925, 1.175, 0.49, 1.275, 0.5875, 1.3725, 0.685, 0, 0.785, 0.0975, 0.8825, 0.195, 0.98, 0.295, 1.0775, 0.3925, 1.175, 0.49, 1.275, 0.5875, 1.3725, 0.685],
  "SoftwareVersions": "syngo_MR_E11",
  "SpacingBetweenSlices": 2,
  "StationName": "MRC35049",
  "TaskName": "s04e17a",
  "TotalReadoutTime": 0.0576811,
  "TxRefAmp": 248.5,
  "WipMemBlock": "86139ad2-52c6-4246-a8d1-e6fe37f660c2||Sequence: R016 ve11c/master r/e634e98; Dec 19 2017 11:00:25 by eja",
  "dcmmeta_affine": [
    [-1.9996988773345947, -0.01919630356132984, 0.028913239017128944, 102.7562484741211],
    [-0.030822815373539925, 1.7481229305267334, -0.9711416959762573, -59.474510192871094],
    [0.015950782224535942, 0.9714410901069641, 1.7481554746627808, -94.28803253173828],
    [0.0, 0.0, 0.0, 1.0]
],
  "dcmmeta_reorient_transform": [
    [0.0, -1.0, 0.0, 103.0],
    [1.0, 0.0, 0.0, 0.0],
    [0.0, 0.0, 1.0, 0.0],
    [0.0, 0.0, 0.0, 1.0]
],
  "dcmmeta_shape": [104, 104, 60, 478],
  "dcmmeta_slice_dim": 2,
  "dcmmeta_version": 0.6,
  "global": {
    "const": {
      "AcquisitionMatrix": [104, 0, 0, 104],
      "AngioFlag": "N",
      "BitsAllocated": 16,
      "BitsStored": 16,
      "BodyPartExamined": "BRAIN",
      "Columns": 832,
      "EchoNumbers": 1,
      "EchoTime": 37.0,
      "EchoTrainLength": 104,
      "FlipAngle": 52.0,
      "HighBit": 15,
      "ImageOrientationPatient": [0.99984942948669, 0.01541140789967, 0.00797539100515, -0.0095981516524, 0.87406145874334, -0.4857205388125],
      "ImagePositionPatient": [-821.68196300514, -768.11839800841, 353.56886287808],
      "ImageType": [
        "ORIGINAL",
        "PRIMARY",
        "M",
        "MB",
        "ND",
        "MOSAIC"
],
      "ImagedNucleus": "1H",
      "ImagingFrequency": 123.25901,
      "InPlanePhaseEncodingDirection": "COL",
      "MRAcquisitionType": "2D",
      "MagneticFieldStrength": 3.0,
      "Manufacturer": "SIEMENS",
      "ManufacturerModelName": "Prisma_fit",
      "Modality": "MR",
      "NumberOfAverages": 1.0,
      "NumberOfPhaseEncodingSteps": 104,
      "PercentPhaseFieldOfView": 100.0,
      "PercentSampling": 100.0,
      "PerformedProcedureStepStartTime": "091743.923000",
      "PhotometricInterpretation": "MONOCHROME2",
      "PixelBandwidth": 2290.0,
      "PixelRepresentation": 0,
      "PixelSpacing": [2.0, 2.0],
      "ProtocolName": "func_task-friends-s04e17a",
      "RepetitionTime": 1490.0,
      "Rows": 832,
      "SAR": 0.03548464437987,
      "SamplesPerPixel": 1,
      "ScanOptions": "FS",
      "ScanningSequence": "EP",
      "SequenceName": "epfid2d1_104",
      "SequenceVariant": [
        "SK",
        "SS"
],
      "SeriesDescription": "func_task-friends-s04e17a",
      "SeriesNumber": 13,
      "SeriesTime": "103726.173000",
      "SliceLocation": -52.050479808,
      "SliceThickness": 2.0,
      "SmallestImagePixelValue": 0,
      "SoftwareVersions": "syngo MR E11",
      "SpacingBetweenSlices": 1.9999999787464,
      "SpecificCharacterSet": "ISO_IR 100",
      "StudyID": "1",
      "StudyTime": "091743.651000",
      "TransmitCoilName": "Body",
      "VariableFlipAngleFlag": "N",
      "WindowCenterWidthExplanation": "Algo1",
      "dBdt": 0.0},
    "slices": {}
  },
  "time": {
    "samples": {
      "AcquisitionNumber": [1, 2, 3, 4, 5, 6, 7, 8, 9, 10, 11, 12, 13, 14, 15, 16, 17, 18, 19, 20, 21, 22, 23, 24, 25, 26, 27, 28, 29, 30, 31, 32, 33, 34, 35, 36, 37, 38, 39, 40, 41, 42, 43, 44, 45, 46, 47, 48, 49, 50, 51, 52, 53, 54, 55, 56, 57, 58, 59, 60, 61, 62, 63, 64, 65, 66, 67, 68, 69, 70, 71, 72, 73, 74, 75, 76, 77, 78, 79, 80, 81, 82, 83, 84, 85, 86, 87, 88, 89, 90, 91, 92, 93, 94, 95, 96, 97, 98, 99, 100, 101, 102, 103, 104, 105, 106, 107, 108, 109, 110, 111, 112, 113, 114, 115, 116, 117, 118, 119, 120, 121, 122, 123, 124, 125, 126, 127, 128, 129, 130, 131, 132, 133, 134, 135, 136, 137, 138, 139, 140, 141, 142, 143, 144, 145, 146, 147, 148, 149, 150, 151, 152, 153, 154, 155, 156, 157, 158, 159, 160, 161, 162, 163, 164, 165, 166, 167, 168, 169, 170, 171, 172, 173, 174, 175, 176, 177, 178, 179, 180, 181, 182, 183, 184, 185, 186, 187, 188, 189, 190, 191, 192, 193, 194, 195, 196, 197, 198, 199, 200, 201, 202, 203, 204, 205, 206, 207, 208, 209, 210, 211, 212, 213, 214, 215, 216, 217, 218, 219, 220, 221, 222, 223, 224, 225, 226, 227, 228, 229, 230, 231, 232, 233, 234, 235, 236, 237, 238, 239, 240, 241, 242, 243, 244, 245, 246, 247, 248, 249, 250, 251, 252, 253, 254, 255, 256, 257, 258, 259, 260, 261, 262, 263, 264, 265, 266, 267, 268, 269, 270, 271, 272, 273, 274, 275, 276, 277, 278, 279, 280, 281, 282, 283, 284, 285, 286, 287, 288, 289, 290, 291, 292, 293, 294, 295, 296, 297, 298, 299, 300, 301, 302, 303, 304, 305, 306, 307, 308, 309, 310, 311, 312, 313, 314, 315, 316, 317, 318, 319, 320, 321, 322, 323, 324, 325, 326, 327, 328, 329, 330, 331, 332, 333, 334, 335, 336, 337, 338, 339, 340, 341, 342, 343, 344, 345, 346, 347, 348, 349, 350, 351, 352, 353, 354, 355, 356, 357, 358, 359, 360, 361, 362, 363, 364, 365, 366, 367, 368, 369, 370, 371, 372, 373, 374, 375, 376, 377, 378, 379, 380, 381, 382, 383, 384, 385, 386, 387, 388, 389, 390, 391, 392, 393, 394, 395, 396, 397, 398, 399, 400, 401, 402, 403, 404, 405, 406, 407, 408, 409, 410, 411, 412, 413, 414, 415, 416, 417, 418, 419, 420, 421, 422, 423, 424, 425, 426, 427, 428, 429, 430, 431, 432, 433, 434, 435, 436, 437, 438, 439, 440, 441, 442, 443, 444, 445, 446, 447, 448, 449, 450, 451, 452, 453, 454, 455, 456, 457, 458, 459, 460, 461, 462, 463, 464, 465, 466, 467, 468, 469, 470, 471, 472, 473, 474, 475, 476, 477, 478],
      "AcquisitionTime": ["103604.107500", "103605.597500", "103607.087500", "103608.577500", "103610.067500", "103611.557500", "103613.047500", "103614.537500", "103616.027500", "103617.517500", "103619.007500", "103620.497500", "103621.987500", "103623.477500", "103624.967500", "103626.457500", "103627.947500", "103629.437500", "103630.927500", "103632.417500", "103633.907500", "103635.397500", "103636.887500", "103638.377500", "103639.867500", "103641.357500", "103642.847500", "103644.337500", "103645.827500", "103647.317500", "103648.807500", "103650.297500", "103651.787500", "103653.277500", "103654.767500", "103656.257500", "103657.747500", "103659.237500", "103700.727500", "103702.217500", "103703.707500", "103705.197500", "103706.687500", "103708.177500", "103709.667500", "103711.157500", "103712.647500", "103714.137500", "103715.627500", "103717.117500", "103718.607500", "103720.097500", "103721.587500", "103723.077500", "103724.567500", "103726.057500", "103727.547500", "103729.037500", "103730.527500", "103732.017500", "103733.507500", "103734.997500", "103736.487500", "103737.977500", "103739.467500", "103740.957500", "103742.447500", "103743.937500", "103745.427500", "103746.917500", "103748.407500", "103749.897500", "103751.387500", "103752.877500", "103754.367500", "103755.857500", "103757.347500", "103758.837500", "103800.327500", "103801.817500", "103803.307500", "103804.797500", "103806.287500", "103807.777500", "103809.267500", "103810.757500", "103812.247500", "103813.737500", "103815.227500", "103816.717500", "103818.207500", "103819.697500", "103821.187500", "103822.677500", "103824.167500", "103825.657500", "103827.147500", "103828.637500", "103830.127500", "103831.617500", "103833.107500", "103834.597500", "103836.087500", "103837.577500", "103839.067500", "103840.557500", "103842.047500", "103843.537500", "103845.027500", "103846.517500", "103848.007500", "103849.497500", "103850.987500", "103852.477500", "103853.967500", "103855.457500", "103856.947500", "103858.437500", "103859.927500", "103901.417500", "103902.907500", "103904.397500", "103905.887500", "103907.377500", "103908.867500", "103910.357500", "103911.847500", "103913.337500", "103914.827500", "103916.317500", "103917.807500", "103919.297500", "103920.787500", "103922.277500", "103923.767500", "103925.257500", "103926.747500", "103928.237500", "103929.727500", "103931.217500", "103932.707500", "103934.197500", "103935.687500", "103937.177500", "103938.667500", "103940.157500", "103941.647500", "103943.137500", "103944.627500", "103946.117500", "103947.607500", "103949.097500", "103950.587500", "103952.077500", "103953.567500", "103955.057500", "103956.547500", "103958.037500", "103959.527500", "104001.017500", "104002.507500", "104003.997500", "104005.487500", "104006.977500", "104008.467500", "104009.957500", "104011.447500", "104012.937500", "104014.427500", "104015.917500", "104017.407500", "104018.897500", "104020.387500", "104021.877500", "104023.367500", "104024.857500", "104026.347500", "104027.837500", "104029.327500", "104030.817500", "104032.307500", "104033.797500", "104035.287500", "104036.777500", "104038.267500", "104039.757500", "104041.247500", "104042.737500", "104044.227500", "104045.717500", "104047.207500", "104048.697500", "104050.187500", "104051.677500", "104053.167500", "104054.657500", "104056.147500", "104057.637500", "104059.127500", "104100.617500", "104102.107500", "104103.597500", "104105.087500", "104106.577500", "104108.067500", "104109.557500", "104111.047500", "104112.537500", "104114.027500", "104115.517500", "104117.007500", "104118.497500", "104119.987500", "104121.477500", "104122.967500", "104124.457500", "104125.947500", "104127.437500", "104128.927500", "104130.417500", "104131.907500", "104133.397500", "104134.887500", "104136.377500", "104137.867500", "104139.357500", "104140.847500", "104142.337500", "104143.827500", "104145.317500", "104146.807500", "104148.297500", "104149.787500", "104151.277500", "104152.767500", "104154.257500", "104155.747500", "104157.237500", "104158.727500", "104200.217500", "104201.707500", "104203.197500", "104204.687500", "104206.177500", "104207.667500", "104209.157500", "104210.647500", "104212.137500", "104213.627500", "104215.117500", "104216.607500", "104218.097500", "104219.587500", "104221.077500", "104222.567500", "104224.057500", "104225.547500", "104227.037500", "104228.527500", "104230.017500", "104231.507500", "104232.997500", "104234.487500", "104235.977500", "104237.467500", "104238.957500", "104240.447500", "104241.937500", "104243.427500", "104244.917500", "104246.407500", "104247.897500", "104249.387500", "104250.877500", "104252.367500", "104253.857500", "104255.347500", "104256.837500", "104258.327500", "104259.817500", "104301.307500", "104302.797500", "104304.287500", "104305.777500", "104307.267500", "104308.757500", "104310.247500", "104311.737500", "104313.227500", "104314.717500", "104316.207500", "104317.697500", "104319.187500", "104320.677500", "104322.167500", "104323.657500", "104325.147500", "104326.637500", "104328.127500", "104329.617500", "104331.107500", "104332.597500", "104334.087500", "104335.577500", "104337.067500", "104338.557500", "104340.047500", "104341.537500", "104343.027500", "104344.517500", "104346.007500", "104347.497500", "104348.987500", "104350.477500", "104351.967500", "104353.457500", "104354.947500", "104356.437500", "104357.927500", "104359.417500", "104400.907500", "104402.397500", "104403.887500", "104405.377500", "104406.867500", "104408.357500", "104409.847500", "104411.337500", "104412.827500", "104414.317500", "104415.807500", "104417.297500", "104418.787500", "104420.277500", "104421.767500", "104423.257500", "104424.747500", "104426.237500", "104427.727500", "104429.217500", "104430.707500", "104432.197500", "104433.687500", "104435.177500", "104436.667500", "104438.157500", "104439.647500", "104441.137500", "104442.627500", "104444.117500", "104445.607500", "104447.097500", "104448.587500", "104450.077500", "104451.567500", "104453.057500", "104454.547500", "104456.037500", "104457.527500", "104459.017500", "104500.507500", "104501.997500", "104503.487500", "104504.977500", "104506.467500", "104507.957500", "104509.447500", "104510.937500", "104512.427500", "104513.917500", "104515.407500", "104516.897500", "104518.387500", "104519.877500", "104521.367500", "104522.857500", "104524.347500", "104525.837500", "104527.327500", "104528.817500", "104530.307500", "104531.797500", "104533.287500", "104534.777500", "104536.267500", "104537.757500", "104539.247500", "104540.737500", "104542.227500", "104543.717500", "104545.207500", "104546.697500", "104548.187500", "104549.677500", "104551.167500", "104552.657500", "104554.147500", "104555.637500", "104557.127500", "104558.617500", "104600.107500", "104601.597500", "104603.087500", "104604.577500", "104606.067500", "104607.557500", "104609.047500", "104610.537500", "104612.027500", "104613.517500", "104615.007500", "104616.497500", "104617.987500", "104619.477500", "104620.967500", "104622.457500", "104623.947500", "104625.437500", "104626.927500", "104628.417500", "104629.907500", "104631.397500", "104632.887500", "104634.377500", "104635.867500", "104637.357500", "104638.847500", "104640.337500", "104641.827500", "104643.317500", "104644.807500", "104646.297500", "104647.787500", "104649.277500", "104650.767500", "104652.257500", "104653.747500", "104655.237500", "104656.727500", "104658.217500", "104659.707500", "104701.197500", "104702.687500", "104704.177500", "104705.667500", "104707.157500", "104708.647500", "104710.137500", "104711.627500", "104713.117500", "104714.607500", "104716.097500", "104717.587500", "104719.077500", "104720.567500", "104722.057500", "104723.547500", "104725.037500", "104726.527500", "104728.017500", "104729.507500", "104730.997500", "104732.487500", "104733.977500", "104735.467500", "104736.957500", "104738.447500", "104739.937500", "104741.427500", "104742.917500", "104744.407500", "104745.897500", "104747.387500", "104748.877500", "104750.367500", "104751.857500", "104753.347500", "104754.837500"],
      "ContentTime": ["103726.176000", "103726.179000", "103726.187000", "103726.190000", "103726.196000", "103726.199000", "103726.202000", "103726.205000", "103726.208000", "103726.211000", "103726.214000", "103726.217000", "103726.220000", "103726.223000", "103726.226000", "103726.229000", "103726.232000", "103726.234000", "103726.237000", "103726.240000", "103726.243000", "103726.246000", "103726.249000", "103726.252000", "103726.255000", "103726.258000", "103726.261000", "103746.144000", "103746.147000", "103746.150000", "103746.153000", "103746.156000", "103746.159000", "103746.162000", "103746.165000", "103746.171000", "103746.173000", "103746.177000", "103746.180000", "103746.182000", "103746.185000", "103746.188000", "103746.191000", "103746.194000", "103746.197000", "103746.200000", "103746.203000", "103806.144000", "103806.147000", "103806.150000", "103806.153000", "103806.156000", "103806.159000", "103806.162000", "103806.165000", "103806.168000", "103806.171000", "103806.174000", "103806.177000", "103806.179000", "103806.182000", "103806.185000", "103806.188000", "103806.191000", "103806.199000", "103806.202000", "103806.205000", "103826.144000", "103826.147000", "103826.150000", "103826.153000", "103826.156000", "103826.159000", "103826.168000", "103826.171000", "103826.173000", "103826.176000", "103826.180000", "103826.182000", "103826.185000", "103826.188000", "103826.191000", "103826.194000", "103826.197000", "103826.200000", "103826.203000", "103826.206000", "103846.144000", "103846.147000", "103846.150000", "103846.153000", "103846.156000", "103846.159000", "103846.162000", "103846.165000", "103846.168000", "103846.171000", "103846.174000", "103846.176000", "103846.182000", "103846.185000", "103846.188000", "103846.191000", "103846.194000", "103846.197000", "103846.200000", "103846.203000", "103846.206000", "103926.145000", "103926.148000", "103926.151000", "103926.154000", "103926.157000", "103926.160000", "103926.163000", "103926.166000", "103926.169000", "103926.172000", "103926.175000", "103926.178000", "103926.181000", "103926.184000", "103926.187000", "103926.190000", "103926.193000", "103926.196000", "103926.199000", "103926.202000", "103926.204000", "103926.208000", "103926.211000", "103926.213000", "103926.216000", "103926.219000", "103926.222000", "104006.144000", "104006.147000", "104006.150000", "104006.153000", "104006.156000", "104006.159000", "104006.162000", "104006.165000", "104006.168000", "104006.171000", "104006.174000", "104006.177000", "104006.180000", "104006.183000", "104006.186000", "104006.188000", "104006.192000", "104006.194000", "104006.197000", "104006.200000", "104006.203000", "104006.206000", "104006.209000", "104006.212000", "104006.215000", "104006.218000", "104006.221000", "104046.144000", "104046.147000", "104046.150000", "104046.153000", "104046.156000", "104046.159000", "104046.162000", "104046.165000", "104046.168000", "104046.171000", "104046.174000", "104046.177000", "104046.180000", "104046.183000", "104046.186000", "104046.189000", "104046.192000", "104046.195000", "104046.198000", "104046.201000", "104046.204000", "104046.207000", "104046.210000", "104046.213000", "104046.216000", "104046.219000", "104126.145000", "104126.148000", "104126.151000", "104126.154000", "104126.157000", "104126.160000", "104126.163000", "104126.166000", "104126.169000", "104126.172000", "104126.175000", "104126.178000", "104126.181000", "104126.184000", "104126.187000", "104126.190000", "104126.193000", "104126.196000", "104126.199000", "104126.202000", "104126.205000", "104126.208000", "104126.211000", "104126.214000", "104126.217000", "104126.220000", "104126.223000", "104206.144000", "104206.147000", "104206.150000", "104206.153000", "104206.156000", "104206.159000", "104206.162000", "104206.165000", "104206.168000", "104206.171000", "104206.174000", "104206.177000", "104206.180000", "104206.183000", "104206.186000", "104206.189000", "104206.192000", "104206.195000", "104206.198000", "104206.201000", "104206.204000", "104206.207000", "104206.210000", "104206.213000", "104206.216000", "104206.219000", "104206.222000", "104246.144000", "104246.147000", "104246.150000", "104246.153000", "104246.156000", "104246.159000", "104246.162000", "104246.165000", "104246.168000", "104246.171000", "104246.174000", "104246.177000", "104246.180000", "104246.183000", "104246.186000", "104246.189000", "104246.192000", "104246.195000", "104246.215000", "104246.219000", "104246.221000", "104246.224000", "104246.227000", "104246.230000", "104246.233000", "104246.236000", "104246.239000", "104326.144000", "104326.147000", "104326.150000", "104326.153000", "104326.156000", "104326.159000", "104326.162000", "104326.165000", "104326.168000", "104326.171000", "104326.174000", "104326.177000", "104326.180000", "104326.183000", "104326.186000", "104326.189000", "104326.192000", "104326.195000", "104326.198000", "104326.201000", "104326.204000", "104326.207000", "104326.210000", "104326.213000", "104326.216000", "104326.219000", "104326.222000", "104406.145000", "104406.148000", "104406.151000", "104406.154000", "104406.157000", "104406.161000", "104406.163000", "104406.166000", "104406.169000", "104406.172000", "104406.175000", "104406.178000", "104406.181000", "104406.184000", "104406.187000", "104406.190000", "104406.193000", "104406.196000", "104406.199000", "104406.202000", "104406.205000", "104406.208000", "104406.211000", "104406.214000", "104406.217000", "104406.220000", "104406.223000", "104446.144000", "104446.147000", "104446.150000", "104446.154000", "104446.157000", "104446.164000", "104446.167000", "104446.170000", "104446.173000", "104446.176000", "104446.179000", "104446.182000", "104446.185000", "104446.188000", "104446.191000", "104446.194000", "104446.198000", "104446.201000", "104446.203000", "104446.206000", "104446.209000", "104446.212000", "104446.215000", "104446.218000", "104446.221000", "104446.224000", "104526.144000", "104526.147000", "104526.150000", "104526.153000", "104526.156000", "104526.159000", "104526.162000", "104526.165000", "104526.168000", "104526.171000", "104526.174000", "104526.177000", "104526.180000", "104526.183000", "104526.186000", "104526.189000", "104526.192000", "104526.195000", "104526.198000", "104526.201000", "104526.204000", "104526.207000", "104526.210000", "104526.213000", "104526.216000", "104526.219000", "104526.222000", "104606.145000", "104606.148000", "104606.151000", "104606.154000", "104606.157000", "104606.160000", "104606.163000", "104606.166000", "104606.169000", "104606.172000", "104606.175000", "104606.178000", "104606.181000", "104606.184000", "104606.187000", "104606.190000", "104606.193000", "104606.196000", "104606.199000", "104606.202000", "104606.205000", "104606.208000", "104606.211000", "104606.214000", "104606.217000", "104606.220000", "104606.223000", "104646.144000", "104646.147000", "104646.150000", "104646.153000", "104646.156000", "104646.159000", "104646.162000", "104646.165000", "104646.168000", "104646.171000", "104646.174000", "104646.177000", "104646.180000", "104646.183000", "104646.186000", "104646.189000", "104646.192000", "104646.195000", "104646.198000", "104646.201000", "104646.204000", "104646.207000", "104646.210000", "104646.213000", "104646.216000", "104646.219000", "104646.222000", "104726.144000", "104726.160000", "104726.163000", "104726.166000", "104726.169000", "104726.172000", "104726.174000", "104726.178000", "104726.181000", "104726.183000", "104726.186000", "104726.190000", "104726.192000", "104726.195000", "104726.198000", "104726.202000", "104726.205000", "104726.207000", "104726.210000", "104726.213000", "104726.216000", "104726.219000", "104726.222000", "104726.225000", "104726.228000", "104726.231000", "104726.234000", "104756.924000", "104756.927000", "104756.935000", "104756.938000", "104756.941000", "104756.944000", "104756.947000", "104756.950000", "104756.953000", "104756.956000", "104756.959000", "104756.962000", "104756.965000", "104756.968000", "104756.972000", "104756.975000", "104756.978000", "104756.981000", "104756.984000", "104756.987000", "104756.990000"],
