{
  "AcquisitionMatrixPE": 104,
  "AcquisitionNumber": 1,
  "AcquisitionTime": "19:37:17.632500",
  "BandwidthPerPixelPhaseEncode": 17.17,
  "BaseResolution": 104,
  "BodyPartExamined": "BRAIN",
  "CoilCombinationMethod": "Sum of Squares",
  "ConsistencyInfo": "N4_VE11C_LATEST_20160120",
  "ConversionSoftware": "dcm2niix",
  "ConversionSoftwareVersion": "v1.0.20230411",
  "DerivedVendorReportedEchoSpacing": 0.000560011,
  "DeviceSerialNumber": "167006",
  "DwellTime": 2.1e-06,
  "EchoTime": 0.037,
  "EchoTrainLength": 104,
  "EffectiveEchoSpacing": 0.000560011,
  "FlipAngle": 52,
  "HeudiconvVersion": "0.5.3.post861+ge7d3c7f",
  "ImageComments": "Unaliased MB4/PE3/LB",
  "ImageOrientationPatientDICOM": [0.999915, -0.0130074, -0.00128441, 0.0115187, 0.923366, -0.383747],
  "ImageOrientationText": "Tra>Cor(-22.6)>Sag(-0.4)",
  "ImageType": [
    "ORIGINAL",
    "PRIMARY",
    "M",
    "MB",
    "ND",
    "MOSAIC"
],
  "ImagingFrequency": 123.249578,
  "InPlanePhaseEncodingDirectionDICOM": "COL",
  "InstitutionAddress": "Chemin Queen-Mary 4565,Montreal,District,CA,H3W 1W5",
  "InstitutionName": "IUGM",
  "InstitutionalDepartmentName": "Department",
  "MRAcquisitionType": "2D",
  "MagneticFieldStrength": 3,
  "Manufacturer": "Siemens",
  "ManufacturersModelName": "Prisma_fit",
  "MatrixCoilMode": "SENSE",
  "Modality": "MR",
  "MultibandAccelerationFactor": 4,
  "NonlinearGradientCorrection": false,
  "PartialFourier": 1,
  "PatientPosition": "HFS",
  "PercentPhaseFOV": 100,
  "PercentSampling": 100,
  "PhaseEncodingDirection": "j",
  "PhaseEncodingSteps": 104,
  "PhaseResolution": 1,
  "PixelBandwidth": 2290,
  "ProcedureStepDescription": "video^friends",
  "ProtocolName": "func_task-friends-s07e09a",
  "PulseSequenceDetails": "%CustomerSeq%\\cmrr_mbep2d_bold",
  "ReceiveCoilActiveElements": "HC1-7;NC1,2",
  "ReceiveCoilName": "HeadNeck_64",
  "ReconMatrixPE": 104,
  "RepetitionTime": 1.49,
  "SAR": 0.0583979,
  "ScanOptions": "FS",
  "ScanningSequence": "EP",
  "SequenceName": "epfid2d1_104",
  "SequenceVariant": "SK\\SS",
  "SeriesDescription": "func_task-friends-s07e09a",
  "SeriesNumber": 20,
  "ShimSetting": [589, -7285, -8809, 405, 25, -403, -35, 103],
  "SliceThickness": 2,
  "SliceTiming": [0, 0.785, 0.1, 0.8825, 0.1975, 0.98, 0.295, 1.08, 0.3925, 1.1775, 0.49, 1.275, 0.59, 1.3725, 0.6875, 0, 0.785, 0.1, 0.8825, 0.1975, 0.98, 0.295, 1.08, 0.3925, 1.1775, 0.49, 1.275, 0.59, 1.3725, 0.6875, 0, 0.785, 0.1, 0.8825, 0.1975, 0.98, 0.295, 1.08, 0.3925, 1.1775, 0.49, 1.275, 0.59, 1.3725, 0.6875, 0, 0.785, 0.1, 0.8825, 0.1975, 0.98, 0.295, 1.08, 0.3925, 1.1775, 0.49, 1.275, 0.59, 1.3725, 0.6875],
  "SoftwareVersions": "syngo MR E11",
  "SpacingBetweenSlices": 2,
  "StationName": "MRC35049",
  "TaskName": "s07e09a",
  "TotalReadoutTime": 0.0576811,
  "TxRefAmp": 268.905,
  "WipMemBlock": "2c29c295-b0f8-4139-9a1a-aef34ca0bd6a||Sequence: R017 ve11c/master r/75a17815+; Jun 28 2022 16:32:11 by eja",
  "dcmmeta_affine": [
    [-1.9998291730880737, 0.02303735539317131, -0.012355050072073936, 100.41140747070312],
    [0.026014769449830055, 1.84673273563385, -0.7673990726470947, -70.27384185791016],
    [-0.002568814903497696, 0.767494261264801, 1.846874713897705, -65.7353286743164],
    [0.0, 0.0, 0.0, 1.0]
],
  "dcmmeta_reorient_transform": [
    [0.0, -1.0, 0.0, 103.0],
    [1.0, 0.0, 0.0, 0.0],
    [0.0, 0.0, 1.0, 0.0],
    [0.0, 0.0, 0.0, 1.0]
],
  "dcmmeta_shape": [104, 104, 60, 450],
  "dcmmeta_slice_dim": 2,
  "dcmmeta_version": 0.6,
  "global": {
    "const": {
      "AcquisitionMatrix": [104, 0, 0, 104],
      "AngioFlag": "N",
      "BitsAllocated": 16,
      "BitsStored": 16,
      "BodyPartExamined": "BRAIN",
      "Columns": 832,
      "EchoNumbers": 1,
      "EchoTime": 37.0,
      "EchoTrainLength": 104,
      "FlipAngle": 52.0,
      "HighBit": 15,
      "ImageOrientationPatient": [0.99991457547081, -0.0130073847633, -0.0012844075064, 0.01151867803854, 0.92336637713989, -0.3837471219746],
      "ImagePositionPatient": [-839.10766197478, -782.68098024133, 293.61953460649],
      "ImageType": [
        "ORIGINAL",
        "PRIMARY",
        "M",
        "MB",
        "ND",
        "MOSAIC"
],
      "ImagedNucleus": "1H",
      "ImagingFrequency": 123.249578,
      "InPlanePhaseEncodingDirection": "COL",
      "MRAcquisitionType": "2D",
      "MagneticFieldStrength": 3.0,
      "Manufacturer": "SIEMENS",
      "ManufacturerModelName": "Prisma_fit",
      "Modality": "MR",
      "NumberOfAverages": 1.0,
      "NumberOfPhaseEncodingSteps": 104,
      "PercentPhaseFieldOfView": 100.0,
      "PercentSampling": 100.0,
      "PerformedProcedureStepStartTime": "181109.896000",
      "PhotometricInterpretation": "MONOCHROME2",
      "PixelBandwidth": 2290.0,
      "PixelRepresentation": 0,
      "PixelSpacing": [2.0, 2.0],
      "ProtocolName": "func_task-friends-s07e09a",
      "RepetitionTime": 1490.0,
      "Rows": 832,
      "SAR": 0.05839788039399,
      "SamplesPerPixel": 1,
      "ScanOptions": "FS",
      "ScanningSequence": "EP",
      "SequenceName": "epfid2d1_104",
      "SequenceVariant": [
        "SK",
        "SS"
],
      "SeriesDescription": "func_task-friends-s07e09a",
      "SeriesNumber": 20,
      "SeriesTime": "193836.121000",
      "SliceLocation": -34.358707236665,
      "SliceThickness": 2.0,
      "SmallestImagePixelValue": 0,
      "SoftwareVersions": "syngo MR E11",
      "SpacingBetweenSlices": 2.0000000161056,
      "SpecificCharacterSet": "ISO_IR 100",
      "StudyID": "1",
      "StudyTime": "181109.828000",
      "TransmitCoilName": "Body",
      "VariableFlipAngleFlag": "N",
      "WindowCenterWidthExplanation": "Algo1",
      "dBdt": 0.0},
    "slices": {}
  },
  "time": {
    "samples": {
      "AcquisitionNumber": [1, 2, 3, 4, 5, 6, 7, 8, 9, 10, 11, 12, 13, 14, 15, 16, 17, 18, 19, 20, 21, 22, 23, 24, 25, 26, 27, 28, 29, 30, 31, 32, 33, 34, 35, 36, 37, 38, 39, 40, 41, 42, 43, 44, 45, 46, 47, 48, 49, 50, 51, 52, 53, 54, 55, 56, 57, 58, 59, 60, 61, 62, 63, 64, 65, 66, 67, 68, 69, 70, 71, 72, 73, 74, 75, 76, 77, 78, 79, 80, 81, 82, 83, 84, 85, 86, 87, 88, 89, 90, 91, 92, 93, 94, 95, 96, 97, 98, 99, 100, 101, 102, 103, 104, 105, 106, 107, 108, 109, 110, 111, 112, 113, 114, 115, 116, 117, 118, 119, 120, 121, 122, 123, 124, 125, 126, 127, 128, 129, 130, 131, 132, 133, 134, 135, 136, 137, 138, 139, 140, 141, 142, 143, 144, 145, 146, 147, 148, 149, 150, 151, 152, 153, 154, 155, 156, 157, 158, 159, 160, 161, 162, 163, 164, 165, 166, 167, 168, 169, 170, 171, 172, 173, 174, 175, 176, 177, 178, 179, 180, 181, 182, 183, 184, 185, 186, 187, 188, 189, 190, 191, 192, 193, 194, 195, 196, 197, 198, 199, 200, 201, 202, 203, 204, 205, 206, 207, 208, 209, 210, 211, 212, 213, 214, 215, 216, 217, 218, 219, 220, 221, 222, 223, 224, 225, 226, 227, 228, 229, 230, 231, 232, 233, 234, 235, 236, 237, 238, 239, 240, 241, 242, 243, 244, 245, 246, 247, 248, 249, 250, 251, 252, 253, 254, 255, 256, 257, 258, 259, 260, 261, 262, 263, 264, 265, 266, 267, 268, 269, 270, 271, 272, 273, 274, 275, 276, 277, 278, 279, 280, 281, 282, 283, 284, 285, 286, 287, 288, 289, 290, 291, 292, 293, 294, 295, 296, 297, 298, 299, 300, 301, 302, 303, 304, 305, 306, 307, 308, 309, 310, 311, 312, 313, 314, 315, 316, 317, 318, 319, 320, 321, 322, 323, 324, 325, 326, 327, 328, 329, 330, 331, 332, 333, 334, 335, 336, 337, 338, 339, 340, 341, 342, 343, 344, 345, 346, 347, 348, 349, 350, 351, 352, 353, 354, 355, 356, 357, 358, 359, 360, 361, 362, 363, 364, 365, 366, 367, 368, 369, 370, 371, 372, 373, 374, 375, 376, 377, 378, 379, 380, 381, 382, 383, 384, 385, 386, 387, 388, 389, 390, 391, 392, 393, 394, 395, 396, 397, 398, 399, 400, 401, 402, 403, 404, 405, 406, 407, 408, 409, 410, 411, 412, 413, 414, 415, 416, 417, 418, 419, 420, 421, 422, 423, 424, 425, 426, 427, 428, 429, 430, 431, 432, 433, 434, 435, 436, 437, 438, 439, 440, 441, 442, 443, 444, 445, 446, 447, 448, 449, 450],
      "AcquisitionTime": ["193717.632500", "193719.122500", "193720.612500", "193722.102500", "193723.592500", "193725.082500", "193726.572500", "193728.062500", "193729.552500", "193731.042500", "193732.532500", "193734.022500", "193735.512500", "193737.002500", "193738.492500", "193739.982500", "193741.472500", "193742.962500", "193744.452500", "193745.942500", "193747.432500", "193748.922500", "193750.412500", "193751.902500", "193753.392500", "193754.882500", "193756.372500", "193757.862500", "193759.352500", "193800.842500", "193802.332500", "193803.822500", "193805.312500", "193806.802500", "193808.292500", "193809.782500", "193811.272500", "193812.762500", "193814.252500", "193815.742500", "193817.232500", "193818.722500", "193820.212500", "193821.702500", "193823.192500", "193824.682500", "193826.172500", "193827.662500", "193829.152500", "193830.642500", "193832.132500", "193833.622500", "193835.112500", "193836.602500", "193838.092500", "193839.582500", "193841.072500", "193842.562500", "193844.052500", "193845.542500", "193847.032500", "193848.522500", "193850.012500", "193851.502500", "193852.992500", "193854.482500", "193855.972500", "193857.462500", "193858.952500", "193900.442500", "193901.932500", "193903.422500", "193904.912500", "193906.402500", "193907.892500", "193909.382500", "193910.872500", "193912.362500", "193913.852500", "193915.342500", "193916.832500", "193918.322500", "193919.812500", "193921.302500", "193922.792500", "193924.282500", "193925.772500", "193927.262500", "193928.752500", "193930.242500", "193931.732500", "193933.222500", "193934.712500", "193936.202500", "193937.692500", "193939.182500", "193940.672500", "193942.162500", "193943.652500", "193945.142500", "193946.632500", "193948.122500", "193949.612500", "193951.102500", "193952.592500", "193954.082500", "193955.572500", "193957.062500", "193958.552500", "194000.042500", "194001.532500", "194003.022500", "194004.512500", "194006.002500", "194007.492500", "194008.982500", "194010.472500", "194011.962500", "194013.452500", "194014.942500", "194016.432500", "194017.922500", "194019.412500", "194020.902500", "194022.392500", "194023.882500", "194025.372500", "194026.862500", "194028.352500", "194029.842500", "194031.332500", "194032.822500", "194034.312500", "194035.802500", "194037.292500", "194038.782500", "194040.272500", "194041.762500", "194043.252500", "194044.742500", "194046.232500", "194047.722500", "194049.212500", "194050.702500", "194052.192500", "194053.682500", "194055.172500", "194056.662500", "194058.152500", "194059.642500", "194101.132500", "194102.622500", "194104.112500", "194105.602500", "194107.092500", "194108.582500", "194110.072500", "194111.562500", "194113.052500", "194114.542500", "194116.032500", "194117.522500", "194119.012500", "194120.502500", "194121.992500", "194123.482500", "194124.972500", "194126.462500", "194127.952500", "194129.442500", "194130.932500", "194132.422500", "194133.912500", "194135.402500", "194136.892500", "194138.382500", "194139.872500", "194141.362500", "194142.852500", "194144.342500", "194145.832500", "194147.322500", "194148.812500", "194150.302500", "194151.792500", "194153.282500", "194154.772500", "194156.262500", "194157.752500", "194159.242500", "194200.732500", "194202.222500", "194203.712500", "194205.202500", "194206.692500", "194208.182500", "194209.672500", "194211.162500", "194212.652500", "194214.142500", "194215.632500", "194217.122500", "194218.612500", "194220.102500", "194221.592500", "194223.082500", "194224.572500", "194226.062500", "194227.552500", "194229.042500", "194230.532500", "194232.022500", "194233.512500", "194235.002500", "194236.492500", "194237.982500", "194239.472500", "194240.962500", "194242.452500", "194243.942500", "194245.432500", "194246.922500", "194248.412500", "194249.902500", "194251.392500", "194252.882500", "194254.372500", "194255.862500", "194257.352500", "194258.842500", "194300.332500", "194301.822500", "194303.312500", "194304.802500", "194306.292500", "194307.782500", "194309.272500", "194310.762500", "194312.252500", "194313.742500", "194315.232500", "194316.722500", "194318.212500", "194319.702500", "194321.192500", "194322.682500", "194324.172500", "194325.662500", "194327.152500", "194328.642500", "194330.132500", "194331.622500", "194333.112500", "194334.602500", "194336.092500", "194337.582500", "194339.072500", "194340.562500", "194342.052500", "194343.542500", "194345.032500", "194346.522500", "194348.012500", "194349.502500", "194350.992500", "194352.482500", "194353.972500", "194355.462500", "194356.952500", "194358.442500", "194359.932500", "194401.422500", "194402.912500", "194404.402500", "194405.892500", "194407.382500", "194408.872500", "194410.362500", "194411.852500", "194413.342500", "194414.832500", "194416.322500", "194417.812500", "194419.302500", "194420.792500", "194422.282500", "194423.772500", "194425.262500", "194426.752500", "194428.242500", "194429.732500", "194431.222500", "194432.712500", "194434.202500", "194435.692500", "194437.182500", "194438.672500", "194440.162500", "194441.652500", "194443.142500", "194444.632500", "194446.122500", "194447.612500", "194449.102500", "194450.592500", "194452.082500", "194453.572500", "194455.062500", "194456.552500", "194458.042500", "194459.532500", "194501.022500", "194502.512500", "194504.002500", "194505.492500", "194506.982500", "194508.472500", "194509.962500", "194511.452500", "194512.942500", "194514.432500", "194515.922500", "194517.412500", "194518.902500", "194520.392500", "194521.882500", "194523.372500", "194524.862500", "194526.352500", "194527.842500", "194529.332500", "194530.822500", "194532.312500", "194533.802500", "194535.292500", "194536.782500", "194538.272500", "194539.762500", "194541.252500", "194542.742500", "194544.232500", "194545.722500", "194547.212500", "194548.702500", "194550.192500", "194551.682500", "194553.172500", "194554.662500", "194556.152500", "194557.642500", "194559.132500", "194600.622500", "194602.112500", "194603.602500", "194605.092500", "194606.582500", "194608.072500", "194609.562500", "194611.052500", "194612.542500", "194614.032500", "194615.522500", "194617.012500", "194618.502500", "194619.992500", "194621.482500", "194622.972500", "194624.462500", "194625.952500", "194627.442500", "194628.932500", "194630.422500", "194631.912500", "194633.402500", "194634.892500", "194636.382500", "194637.872500", "194639.362500", "194640.852500", "194642.342500", "194643.832500", "194645.322500", "194646.812500", "194648.302500", "194649.792500", "194651.282500", "194652.772500", "194654.262500", "194655.752500", "194657.242500", "194658.732500", "194700.222500", "194701.712500", "194703.202500", "194704.692500", "194706.182500", "194707.672500", "194709.162500", "194710.652500", "194712.142500", "194713.632500", "194715.122500", "194716.612500", "194718.102500", "194719.592500", "194721.082500", "194722.572500", "194724.062500", "194725.552500", "194727.042500", "194728.532500", "194730.022500", "194731.512500", "194733.002500", "194734.492500", "194735.982500", "194737.472500", "194738.962500", "194740.452500", "194741.942500", "194743.432500", "194744.922500", "194746.412500", "194747.902500", "194749.392500", "194750.882500", "194752.372500", "194753.862500", "194755.352500", "194756.842500", "194758.332500", "194759.822500", "194801.312500", "194802.802500", "194804.292500", "194805.782500", "194807.272500", "194808.762500", "194810.252500", "194811.742500", "194813.232500", "194814.722500", "194816.212500", "194817.702500", "194819.192500", "194820.682500", "194822.172500", "194823.662500", "194825.152500", "194826.642500"],
      "ContentTime": ["193836.123000", "193836.127000", "193836.130000", "193836.133000", "193836.136000", "193836.138000", "193836.141000", "193836.144000", "193836.147000", "193836.152000", "193836.155000", "193836.164000", "193836.175000", "193836.178000", "193836.181000", "193836.184000", "193836.186000", "193836.189000", "193836.192000", "193856.087000", "193856.090000", "193856.100000", "193856.103000", "193856.106000", "193856.109000", "193856.112000", "193856.115000", "193856.118000", "193856.121000", "193856.124000", "193856.127000", "193856.130000", "193856.133000", "193856.136000", "193856.139000", "193856.142000", "193856.145000", "193856.148000", "193856.151000", "193916.087000", "193916.090000", "193916.093000", "193916.096000", "193916.099000", "193916.101000", "193916.104000", "193916.107000", "193916.110000", "193916.113000", "193916.116000", "193916.118000", "193916.121000", "193916.124000", "193916.127000", "193916.130000", "193916.133000", "193916.136000", "193916.139000", "193916.142000", "193936.087000", "193936.090000", "193936.093000", "193936.096000", "193936.099000", "193936.102000", "193936.105000", "193936.108000", "193936.111000", "193936.114000", "193936.117000", "193936.120000", "193936.122000", "193936.125000", "193936.128000", "193936.131000", "193936.134000", "193936.137000", "193936.140000", "193936.143000", "193936.145000", "194016.087000", "194016.090000", "194016.093000", "194016.099000", "194016.103000", "194016.106000", "194016.108000", "194016.111000", "194016.114000", "194016.117000", "194016.120000", "194016.123000", "194016.126000", "194016.129000", "194016.131000", "194016.134000", "194016.137000", "194016.140000", "194016.143000", "194016.146000", "194016.149000", "194016.152000", "194016.155000", "194016.158000", "194016.160000", "194016.163000", "194016.166000", "194016.169000", "194016.172000", "194016.175000", "194016.178000", "194016.181000", "194056.087000", "194056.090000", "194056.093000", "194056.096000", "194056.099000", "194056.101000", "194056.104000", "194056.107000", "194056.110000", "194056.113000", "194056.116000", "194056.119000", "194056.122000", "194056.125000", "194056.128000", "194056.130000", "194056.133000", "194056.136000", "194056.147000", "194056.150000", "194056.153000", "194056.156000", "194056.159000", "194056.161000", "194056.164000", "194056.167000", "194056.170000", "194136.087000", "194136.090000", "194136.093000", "194136.096000", "194136.099000", "194136.102000", "194136.104000", "194136.107000", "194136.110000", "194136.113000", "194136.116000", "194136.119000", "194136.122000", "194136.125000", "194136.128000", "194136.130000", "194136.133000", "194136.136000", "194136.139000", "194136.142000", "194136.145000", "194136.148000", "194136.151000", "194136.153000", "194136.156000", "194136.159000", "194136.162000", "194216.087000", "194216.090000", "194216.093000", "194216.096000", "194216.099000", "194216.102000", "194216.104000", "194216.123000", "194216.126000", "194216.129000", "194216.132000", "194216.135000", "194216.138000", "194216.141000", "194216.144000", "194216.147000", "194216.150000", "194216.153000", "194216.156000", "194216.159000", "194216.162000", "194216.165000", "194216.168000", "194216.171000", "194216.174000", "194216.177000", "194216.180000", "194256.087000", "194256.090000", "194256.093000", "194256.096000", "194256.099000", "194256.101000", "194256.104000", "194256.107000", "194256.110000", "194256.113000", "194256.116000", "194256.119000", "194256.122000", "194256.125000", "194256.127000", "194256.131000", "194256.134000", "194256.137000", "194256.140000", "194256.143000", "194256.146000", "194256.149000", "194256.152000", "194256.155000", "194256.158000", "194256.161000", "194256.164000", "194336.087000", "194336.090000", "194336.093000", "194336.096000", "194336.098000", "194336.101000", "194336.104000", "194336.107000", "194336.111000", "194336.114000", "194336.117000", "194336.120000", "194336.123000", "194336.126000", "194336.128000", "194336.131000", "194336.134000", "194336.137000", "194336.140000", "194336.143000", "194336.146000", "194336.149000", "194336.152000", "194336.155000", "194336.158000", "194336.161000", "194336.163000", "194416.087000", "194416.090000", "194416.093000", "194416.096000", "194416.099000", "194416.102000", "194416.105000", "194416.108000", "194416.111000", "194416.113000", "194416.116000", "194416.119000", "194416.122000", "194416.125000", "194416.134000", "194416.137000", "194416.140000", "194416.143000", "194416.146000", "194416.150000", "194416.154000", "194416.157000", "194416.159000", "194416.162000", "194416.165000", "194416.168000", "194456.087000", "194456.090000", "194456.093000", "194456.096000", "194456.099000", "194456.102000", "194456.104000", "194456.107000", "194456.110000", "194456.113000", "194456.116000", "194456.119000", "194456.122000", "194456.125000", "194456.128000", "194456.131000", "194456.133000", "194456.136000", "194456.139000", "194456.142000", "194456.145000", "194456.148000", "194456.151000", "194456.154000", "194456.157000", "194456.160000", "194456.163000", "194516.087000", "194516.090000", "194516.093000", "194516.096000", "194516.099000", "194516.102000", "194516.104000", "194516.107000", "194516.110000", "194516.113000", "194516.116000", "194516.119000", "194516.122000", "194516.125000", "194556.087000", "194556.090000", "194556.095000", "194556.099000", "194556.103000", "194556.106000", "194556.109000", "194556.112000", "194556.115000", "194556.118000", "194556.121000", "194556.124000", "194556.126000", "194556.129000", "194556.132000", "194556.135000", "194556.138000", "194556.141000", "194556.144000", "194556.147000", "194556.150000", "194556.153000", "194556.156000", "194556.159000", "194556.162000", "194556.165000", "194636.088000", "194636.091000", "194636.094000", "194636.097000", "194636.100000", "194636.102000", "194636.105000", "194636.108000", "194636.111000", "194636.114000", "194636.117000", "194636.120000", "194636.123000", "194636.126000", "194636.129000", "194636.131000", "194636.134000", "194636.137000", "194636.140000", "194636.143000", "194636.146000", "194636.149000", "194636.152000", "194636.155000", "194636.158000", "194636.161000", "194636.165000", "194716.087000", "194716.090000", "194716.093000", "194716.096000", "194716.099000", "194716.102000", "194716.105000", "194716.108000", "194716.111000", "194716.113000", "194716.116000", "194716.119000", "194716.122000", "194716.125000", "194716.128000", "194716.131000", "194716.134000", "194716.137000", "194716.140000", "194716.142000", "194716.145000", "194716.148000", "194716.151000", "194716.154000", "194716.157000", "194716.160000", "194716.163000", "194756.087000", "194756.090000", "194756.093000", "194756.096000", "194756.099000", "194756.102000", "194756.105000", "194756.108000", "194756.111000", "194756.113000", "194756.116000", "194756.119000", "194756.122000", "194756.125000", "194756.128000", "194756.131000", "194756.134000", "194756.137000", "194756.140000", "194756.143000", "194756.146000", "194756.149000", "194756.151000", "194756.154000", "194756.157000", "194756.160000", "194756.163000", "194836.087000", "194836.090000", "194836.093000", "194836.096000", "194836.099000", "194836.102000", "194836.105000", "194836.108000", "194836.111000", "194836.114000", "194836.117000", "194836.120000", "194836.123000", "194836.126000", "194836.129000", "194836.132000", "194836.135000", "194836.138000", "194836.141000", "194836.144000", "194836.147000", "194836.150000", "194836.153000", "194836.156000", "194836.159000", "194836.161000", "194836.164000", "194838.564000", "194838.567000"],
