{
  "AcquisitionMatrixPE": 104,
  "AcquisitionNumber": 1,
  "AcquisitionTime": "18:54:7.000000",
  "BandwidthPerPixelPhaseEncode": 17.17,
  "BaseResolution": 104,
  "BodyPartExamined": "BRAIN",
  "CoilCombinationMethod": "Sum of Squares",
  "ConsistencyInfo": "N4_VE11C_LATEST_20160120",
  "ConversionSoftware": "dcm2niix",
  "ConversionSoftwareVersion": "v1.0.20230411",
  "DerivedVendorReportedEchoSpacing": 0.000560011,
  "DeviceSerialNumber": "167006",
  "DwellTime": 2.1e-06,
  "EchoTime": 0.037,
  "EchoTrainLength": 104,
  "EffectiveEchoSpacing": 0.000560011,
  "FlipAngle": 52,
  "HeudiconvVersion": "0.5.3.post861+ge7d3c7f",
  "ImageComments": "Unaliased MB4/PE3/LB",
  "ImageOrientationPatientDICOM": [0.999915, -0.0130074, -0.00128441, 0.0115187, 0.923366, -0.383747],
  "ImageOrientationText": "Tra>Cor(-22.6)>Sag(-0.4)",
  "ImageType": [
    "ORIGINAL",
    "PRIMARY",
    "M",
    "MB",
    "ND",
    "MOSAIC"
],
  "ImagingFrequency": 123.249572,
  "InPlanePhaseEncodingDirectionDICOM": "COL",
  "InstitutionAddress": "Chemin Queen-Mary 4565,Montreal,District,CA,H3W 1W5",
  "InstitutionName": "IUGM",
  "InstitutionalDepartmentName": "Department",
  "MRAcquisitionType": "2D",
  "MagneticFieldStrength": 3,
  "Manufacturer": "Siemens",
  "ManufacturersModelName": "Prisma_fit",
  "MatrixCoilMode": "SENSE",
  "Modality": "MR",
  "MultibandAccelerationFactor": 4,
  "NonlinearGradientCorrection": false,
  "PartialFourier": 1,
  "PatientPosition": "HFS",
  "PercentPhaseFOV": 100,
  "PercentSampling": 100,
  "PhaseEncodingDirection": "j",
  "PhaseEncodingSteps": 104,
  "PhaseResolution": 1,
  "PixelBandwidth": 2290,
  "ProcedureStepDescription": "video^friends",
  "ProtocolName": "func_task-friends-s07e07b",
  "PulseSequenceDetails": "%CustomerSeq%\\cmrr_mbep2d_bold",
  "ReceiveCoilActiveElements": "HC1-7;NC1,2",
  "ReceiveCoilName": "HeadNeck_64",
  "ReconMatrixPE": 104,
  "RepetitionTime": 1.49,
  "SAR": 0.0583979,
  "ScanOptions": "FS",
  "ScanningSequence": "EP",
  "SequenceName": "epfid2d1_104",
  "SequenceVariant": "SK\\SS",
  "SeriesDescription": "func_task-friends-s07e07b",
  "SeriesNumber": 14,
  "ShimSetting": [589, -7285, -8809, 405, 25, -403, -35, 103],
  "SliceThickness": 2,
  "SliceTiming": [0, 0.7825, 0.0975, 0.8825, 0.195, 0.98, 0.295, 1.0775, 0.3925, 1.175, 0.49, 1.2725, 0.5875, 1.3725, 0.685, 0, 0.7825, 0.0975, 0.8825, 0.195, 0.98, 0.295, 1.0775, 0.3925, 1.175, 0.49, 1.2725, 0.5875, 1.3725, 0.685, 0, 0.7825, 0.0975, 0.8825, 0.195, 0.98, 0.295, 1.0775, 0.3925, 1.175, 0.49, 1.2725, 0.5875, 1.3725, 0.685, 0, 0.7825, 0.0975, 0.8825, 0.195, 0.98, 0.295, 1.0775, 0.3925, 1.175, 0.49, 1.2725, 0.5875, 1.3725, 0.685],
  "SoftwareVersions": "syngo MR E11",
  "SpacingBetweenSlices": 2,
  "StationName": "MRC35049",
  "TaskName": "s07e07b",
  "TotalReadoutTime": 0.0576811,
  "TxRefAmp": 268.905,
  "WipMemBlock": "236c5b97-03d4-4347-9c76-0237e6bbbb16||Sequence: R017 ve11c/master r/75a17815+; Jun 28 2022 16:32:11 by eja",
  "dcmmeta_affine": [
    [-1.9998291730880737, 0.02303735539317131, -0.012355050072073936, 100.41140747070312],
    [0.026014769449830055, 1.84673273563385, -0.7673990726470947, -70.27384185791016],
    [-0.002568814903497696, 0.767494261264801, 1.846874713897705, -65.7353286743164],
    [0.0, 0.0, 0.0, 1.0]
],
  "dcmmeta_reorient_transform": [
    [0.0, -1.0, 0.0, 103.0],
    [1.0, 0.0, 0.0, 0.0],
    [0.0, 0.0, 1.0, 0.0],
    [0.0, 0.0, 0.0, 1.0]
],
  "dcmmeta_shape": [104, 104, 60, 507],
  "dcmmeta_slice_dim": 2,
  "dcmmeta_version": 0.6,
  "global": {
    "const": {
      "AcquisitionMatrix": [104, 0, 0, 104],
      "AngioFlag": "N",
      "BitsAllocated": 16,
      "BitsStored": 16,
      "BodyPartExamined": "BRAIN",
      "Columns": 832,
      "EchoNumbers": 1,
      "EchoTime": 37.0,
      "EchoTrainLength": 104,
      "FlipAngle": 52.0,
      "HighBit": 15,
      "ImageOrientationPatient": [0.99991457547081, -0.0130073847633, -0.0012844075064, 0.01151867803854, 0.92336637713989, -0.3837471219746],
      "ImagePositionPatient": [-839.10766197478, -782.68098024133, 293.61953460649],
      "ImageType": [
        "ORIGINAL",
        "PRIMARY",
        "M",
        "MB",
        "ND",
        "MOSAIC"
],
      "ImagedNucleus": "1H",
      "ImagingFrequency": 123.249572,
      "InPlanePhaseEncodingDirection": "COL",
      "MRAcquisitionType": "2D",
      "MagneticFieldStrength": 3.0,
      "Manufacturer": "SIEMENS",
      "ManufacturerModelName": "Prisma_fit",
      "Modality": "MR",
      "NumberOfAverages": 1.0,
      "NumberOfPhaseEncodingSteps": 104,
      "PercentPhaseFieldOfView": 100.0,
      "PercentSampling": 100.0,
      "PerformedProcedureStepStartTime": "181109.896000",
      "PhotometricInterpretation": "MONOCHROME2",
      "PixelBandwidth": 2290.0,
      "PixelRepresentation": 0,
      "PixelSpacing": [2.0, 2.0],
      "ProtocolName": "func_task-friends-s07e07b",
      "RepetitionTime": 1490.0,
      "Rows": 832,
      "SAR": 0.05839787742099,
      "SamplesPerPixel": 1,
      "ScanOptions": "FS",
      "ScanningSequence": "EP",
      "SequenceName": "epfid2d1_104",
      "SequenceVariant": [
        "SK",
        "SS"
],
      "SeriesDescription": "func_task-friends-s07e07b",
      "SeriesNumber": 14,
      "SeriesTime": "185516.129000",
      "SliceLocation": -34.358707236665,
      "SliceThickness": 2.0,
      "SmallestImagePixelValue": 0,
      "SoftwareVersions": "syngo MR E11",
      "SpacingBetweenSlices": 2.0000000161056,
      "SpecificCharacterSet": "ISO_IR 100",
      "StudyID": "1",
      "StudyTime": "181109.828000",
      "TransmitCoilName": "Body",
      "VariableFlipAngleFlag": "N",
      "WindowCenterWidthExplanation": "Algo1",
      "dBdt": 0.0},
    "slices": {}
  },
  "time": {
    "samples": {
      "AcquisitionNumber": [1, 2, 3, 4, 5, 6, 7, 8, 9, 10, 11, 12, 13, 14, 15, 16, 17, 18, 19, 20, 21, 22, 23, 24, 25, 26, 27, 28, 29, 30, 31, 32, 33, 34, 35, 36, 37, 38, 39, 40, 41, 42, 43, 44, 45, 46, 47, 48, 49, 50, 51, 52, 53, 54, 55, 56, 57, 58, 59, 60, 61, 62, 63, 64, 65, 66, 67, 68, 69, 70, 71, 72, 73, 74, 75, 76, 77, 78, 79, 80, 81, 82, 83, 84, 85, 86, 87, 88, 89, 90, 91, 92, 93, 94, 95, 96, 97, 98, 99, 100, 101, 102, 103, 104, 105, 106, 107, 108, 109, 110, 111, 112, 113, 114, 115, 116, 117, 118, 119, 120, 121, 122, 123, 124, 125, 126, 127, 128, 129, 130, 131, 132, 133, 134, 135, 136, 137, 138, 139, 140, 141, 142, 143, 144, 145, 146, 147, 148, 149, 150, 151, 152, 153, 154, 155, 156, 157, 158, 159, 160, 161, 162, 163, 164, 165, 166, 167, 168, 169, 170, 171, 172, 173, 174, 175, 176, 177, 178, 179, 180, 181, 182, 183, 184, 185, 186, 187, 188, 189, 190, 191, 192, 193, 194, 195, 196, 197, 198, 199, 200, 201, 202, 203, 204, 205, 206, 207, 208, 209, 210, 211, 212, 213, 214, 215, 216, 217, 218, 219, 220, 221, 222, 223, 224, 225, 226, 227, 228, 229, 230, 231, 232, 233, 234, 235, 236, 237, 238, 239, 240, 241, 242, 243, 244, 245, 246, 247, 248, 249, 250, 251, 252, 253, 254, 255, 256, 257, 258, 259, 260, 261, 262, 263, 264, 265, 266, 267, 268, 269, 270, 271, 272, 273, 274, 275, 276, 277, 278, 279, 280, 281, 282, 283, 284, 285, 286, 287, 288, 289, 290, 291, 292, 293, 294, 295, 296, 297, 298, 299, 300, 301, 302, 303, 304, 305, 306, 307, 308, 309, 310, 311, 312, 313, 314, 315, 316, 317, 318, 319, 320, 321, 322, 323, 324, 325, 326, 327, 328, 329, 330, 331, 332, 333, 334, 335, 336, 337, 338, 339, 340, 341, 342, 343, 344, 345, 346, 347, 348, 349, 350, 351, 352, 353, 354, 355, 356, 357, 358, 359, 360, 361, 362, 363, 364, 365, 366, 367, 368, 369, 370, 371, 372, 373, 374, 375, 376, 377, 378, 379, 380, 381, 382, 383, 384, 385, 386, 387, 388, 389, 390, 391, 392, 393, 394, 395, 396, 397, 398, 399, 400, 401, 402, 403, 404, 405, 406, 407, 408, 409, 410, 411, 412, 413, 414, 415, 416, 417, 418, 419, 420, 421, 422, 423, 424, 425, 426, 427, 428, 429, 430, 431, 432, 433, 434, 435, 436, 437, 438, 439, 440, 441, 442, 443, 444, 445, 446, 447, 448, 449, 450, 451, 452, 453, 454, 455, 456, 457, 458, 459, 460, 461, 462, 463, 464, 465, 466, 467, 468, 469, 470, 471, 472, 473, 474, 475, 476, 477, 478, 479, 480, 481, 482, 483, 484, 485, 486, 487, 488, 489, 490, 491, 492, 493, 494, 495, 496, 497, 498, 499, 500, 501, 502, 503, 504, 505, 506, 507],
      "AcquisitionTime": ["185407.000000", "185408.490000", "185409.980000", "185411.470000", "185412.960000", "185414.450000", "185415.940000", "185417.430000", "185418.920000", "185420.410000", "185421.900000", "185423.390000", "185424.880000", "185426.370000", "185427.860000", "185429.350000", "185430.840000", "185432.330000", "185433.820000", "185435.310000", "185436.800000", "185438.290000", "185439.780000", "185441.270000", "185442.760000", "185444.250000", "185445.740000", "185447.230000", "185448.720000", "185450.210000", "185451.700000", "185453.190000", "185454.680000", "185456.170000", "185457.660000", "185459.150000", "185500.640000", "185502.130000", "185503.620000", "185505.110000", "185506.600000", "185508.090000", "185509.580000", "185511.070000", "185512.560000", "185514.050000", "185515.540000", "185517.030000", "185518.520000", "185520.010000", "185521.500000", "185522.990000", "185524.480000", "185525.970000", "185527.460000", "185528.950000", "185530.440000", "185531.930000", "185533.420000", "185534.910000", "185536.400000", "185537.890000", "185539.380000", "185540.870000", "185542.360000", "185543.850000", "185545.340000", "185546.830000", "185548.320000", "185549.810000", "185551.300000", "185552.790000", "185554.280000", "185555.770000", "185557.260000", "185558.750000", "185600.240000", "185601.730000", "185603.220000", "185604.710000", "185606.200000", "185607.690000", "185609.180000", "185610.670000", "185612.160000", "185613.650000", "185615.140000", "185616.630000", "185618.120000", "185619.610000", "185621.100000", "185622.590000", "185624.080000", "185625.570000", "185627.060000", "185628.550000", "185630.040000", "185631.530000", "185633.020000", "185634.510000", "185636.000000", "185637.490000", "185638.980000", "185640.470000", "185641.960000", "185643.450000", "185644.940000", "185646.430000", "185647.920000", "185649.410000", "185650.900000", "185652.390000", "185653.880000", "185655.370000", "185656.860000", "185658.350000", "185659.840000", "185701.330000", "185702.820000", "185704.310000", "185705.800000", "185707.290000", "185708.780000", "185710.270000", "185711.760000", "185713.250000", "185714.740000", "185716.230000", "185717.720000", "185719.210000", "185720.700000", "185722.190000", "185723.680000", "185725.170000", "185726.660000", "185728.150000", "185729.640000", "185731.130000", "185732.620000", "185734.110000", "185735.600000", "185737.090000", "185738.580000", "185740.070000", "185741.560000", "185743.050000", "185744.540000", "185746.030000", "185747.520000", "185749.010000", "185750.500000", "185751.990000", "185753.480000", "185754.970000", "185756.460000", "185757.950000", "185759.440000", "185800.930000", "185802.420000", "185803.910000", "185805.400000", "185806.890000", "185808.380000", "185809.870000", "185811.360000", "185812.850000", "185814.340000", "185815.830000", "185817.320000", "185818.810000", "185820.300000", "185821.790000", "185823.280000", "185824.770000", "185826.260000", "185827.750000", "185829.240000", "185830.730000", "185832.220000", "185833.710000", "185835.200000", "185836.690000", "185838.180000", "185839.670000", "185841.160000", "185842.650000", "185844.140000", "185845.630000", "185847.120000", "185848.610000", "185850.100000", "185851.590000", "185853.080000", "185854.570000", "185856.060000", "185857.550000", "185859.040000", "185900.530000", "185902.020000", "185903.510000", "185905.000000", "185906.490000", "185907.980000", "185909.470000", "185910.960000", "185912.450000", "185913.940000", "185915.430000", "185916.920000", "185918.410000", "185919.900000", "185921.390000", "185922.880000", "185924.370000", "185925.860000", "185927.350000", "185928.840000", "185930.330000", "185931.820000", "185933.310000", "185934.800000", "185936.290000", "185937.780000", "185939.270000", "185940.760000", "185942.250000", "185943.740000", "185945.230000", "185946.720000", "185948.210000", "185949.700000", "185951.190000", "185952.680000", "185954.170000", "185955.660000", "185957.150000", "185958.640000", "190000.130000", "190001.620000", "190003.110000", "190004.600000", "190006.090000", "190007.580000", "190009.070000", "190010.560000", "190012.050000", "190013.540000", "190015.030000", "190016.520000", "190018.010000", "190019.500000", "190020.990000", "190022.480000", "190023.970000", "190025.460000", "190026.950000", "190028.440000", "190029.930000", "190031.420000", "190032.910000", "190034.400000", "190035.890000", "190037.380000", "190038.870000", "190040.360000", "190041.850000", "190043.340000", "190044.830000", "190046.320000", "190047.810000", "190049.300000", "190050.790000", "190052.280000", "190053.770000", "190055.260000", "190056.750000", "190058.240000", "190059.730000", "190101.220000", "190102.710000", "190104.200000", "190105.690000", "190107.180000", "190108.670000", "190110.160000", "190111.650000", "190113.140000", "190114.630000", "190116.120000", "190117.610000", "190119.100000", "190120.590000", "190122.080000", "190123.570000", "190125.060000", "190126.550000", "190128.040000", "190129.530000", "190131.020000", "190132.510000", "190134.000000", "190135.490000", "190136.980000", "190138.470000", "190139.960000", "190141.450000", "190142.940000", "190144.430000", "190145.920000", "190147.410000", "190148.900000", "190150.390000", "190151.880000", "190153.370000", "190154.860000", "190156.350000", "190157.840000", "190159.330000", "190200.820000", "190202.310000", "190203.800000", "190205.290000", "190206.780000", "190208.270000", "190209.760000", "190211.250000", "190212.740000", "190214.230000", "190215.720000", "190217.210000", "190218.700000", "190220.190000", "190221.680000", "190223.170000", "190224.660000", "190226.150000", "190227.640000", "190229.130000", "190230.620000", "190232.110000", "190233.600000", "190235.090000", "190236.580000", "190238.070000", "190239.560000", "190241.050000", "190242.540000", "190244.030000", "190245.520000", "190247.010000", "190248.500000", "190249.990000", "190251.480000", "190252.970000", "190254.460000", "190255.950000", "190257.440000", "190258.930000", "190300.420000", "190301.910000", "190303.400000", "190304.890000", "190306.380000", "190307.870000", "190309.360000", "190310.850000", "190312.340000", "190313.830000", "190315.320000", "190316.810000", "190318.300000", "190319.790000", "190321.280000", "190322.770000", "190324.260000", "190325.750000", "190327.240000", "190328.730000", "190330.220000", "190331.710000", "190333.200000", "190334.690000", "190336.180000", "190337.670000", "190339.160000", "190340.650000", "190342.140000", "190343.630000", "190345.120000", "190346.610000", "190348.100000", "190349.590000", "190351.080000", "190352.570000", "190354.060000", "190355.550000", "190357.040000", "190358.530000", "190400.020000", "190401.510000", "190403.000000", "190404.490000", "190405.980000", "190407.470000", "190408.960000", "190410.450000", "190411.940000", "190413.430000", "190414.920000", "190416.410000", "190417.900000", "190419.390000", "190420.880000", "190422.370000", "190423.860000", "190425.350000", "190426.840000", "190428.330000", "190429.820000", "190431.310000", "190432.800000", "190434.290000", "190435.780000", "190437.270000", "190438.760000", "190440.250000", "190441.740000", "190443.230000", "190444.720000", "190446.210000", "190447.700000", "190449.190000", "190450.680000", "190452.170000", "190453.660000", "190455.150000", "190456.640000", "190458.130000", "190459.620000", "190501.110000", "190502.600000", "190504.090000", "190505.580000", "190507.070000", "190508.560000", "190510.050000", "190511.540000", "190513.030000", "190514.520000", "190516.010000", "190517.500000", "190518.990000", "190520.480000", "190521.970000", "190523.460000", "190524.950000", "190526.440000", "190527.930000", "190529.420000", "190530.910000", "190532.400000", "190533.890000", "190535.380000", "190536.870000", "190538.360000", "190539.850000", "190541.340000", "190542.830000", "190544.320000", "190545.810000", "190547.300000", "190548.790000", "190550.280000", "190551.770000", "190553.260000", "190554.750000", "190556.240000", "190557.730000", "190559.220000", "190600.710000", "190602.200000", "190603.690000", "190605.180000", "190606.670000", "190608.160000", "190609.650000", "190611.140000", "190612.630000", "190614.120000", "190615.610000", "190617.100000", "190618.590000", "190620.080000", "190621.570000", "190623.060000", "190624.550000", "190626.040000", "190627.530000", "190629.020000", "190630.510000", "190632.000000", "190633.490000", "190634.980000", "190636.470000", "190637.960000", "190639.450000", "190640.940000"],
      "ContentTime": ["185516.132000", "185516.136000", "185516.139000", "185516.154000", "185516.157000", "185516.160000", "185516.163000", "185516.165000", "185516.168000", "185516.171000", "185536.087000", "185536.090000", "185536.093000", "185536.099000", "185536.102000", "185536.105000", "185536.108000", "185536.110000", "185536.113000", "185536.116000", "185536.119000", "185536.122000", "185536.125000", "185536.128000", "185536.130000", "185536.139000", "185536.142000", "185536.145000", "185536.148000", "185536.151000", "185536.154000", "185556.087000", "185556.090000", "185556.099000", "185556.101000", "185556.104000", "185556.107000", "185556.110000", "185556.113000", "185556.116000", "185556.119000", "185556.122000", "185556.124000", "185556.127000", "185556.130000", "185556.133000", "185556.136000", "185556.139000", "185556.142000", "185556.144000", "185556.147000", "185616.087000", "185616.090000", "185616.093000", "185616.096000", "185616.099000", "185616.101000", "185616.104000", "185616.109000", "185616.113000", "185616.117000", "185616.120000", "185616.123000", "185616.126000", "185616.129000", "185616.132000", "185616.135000", "185616.138000", "185616.140000", "185616.143000", "185616.146000", "185636.087000", "185636.090000", "185636.093000", "185636.097000", "185636.100000", "185636.103000", "185636.106000", "185636.109000", "185636.112000", "185636.114000", "185636.117000", "185636.120000", "185636.123000", "185636.126000", "185636.129000", "185636.132000", "185636.135000", "185636.138000", "185636.140000", "185636.143000", "185636.146000", "185716.087000", "185716.090000", "185716.093000", "185716.096000", "185716.098000", "185716.101000", "185716.104000", "185716.107000", "185716.110000", "185716.113000", "185716.116000", "185716.118000", "185716.121000", "185716.124000", "185716.127000", "185716.130000", "185716.133000", "185716.136000", "185716.138000", "185716.141000", "185716.144000", "185716.147000", "185716.150000", "185716.153000", "185716.156000", "185716.158000", "185716.161000", "185716.164000", "185756.087000", "185756.090000", "185756.093000", "185756.096000", "185756.099000", "185756.101000", "185756.104000", "185756.107000", "185756.110000", "185756.113000", "185756.116000", "185756.119000", "185756.122000", "185756.125000", "185756.128000", "185756.130000", "185756.133000", "185756.136000", "185756.139000", "185756.142000", "185756.145000", "185756.148000", "185756.151000", "185756.154000", "185756.156000", "185756.159000", "185756.162000", "185836.087000", "185836.090000", "185836.093000", "185836.096000", "185836.099000", "185836.102000", "185836.104000", "185836.107000", "185836.110000", "185836.113000", "185836.116000", "185836.119000", "185836.122000", "185836.125000", "185836.128000", "185836.131000", "185836.134000", "185836.137000", "185836.140000", "185836.149000", "185836.152000", "185836.155000", "185836.158000", "185836.161000", "185836.164000", "185836.167000", "185916.087000", "185916.090000", "185916.093000", "185916.096000", "185916.099000", "185916.101000", "185916.104000", "185916.107000", "185916.110000", "185916.113000", "185916.116000", "185916.119000", "185916.122000", "185916.125000", "185916.128000", "185916.131000", "185916.134000", "185916.137000", "185916.140000", "185916.142000", "185916.145000", "185916.148000", "185916.151000", "185916.154000", "185916.157000", "185916.160000", "185916.163000", "185956.087000", "185956.090000", "185956.094000", "185956.097000", "185956.099000", "185956.102000", "185956.105000", "185956.108000", "185956.111000", "185956.114000", "185956.117000", "185956.120000", "185956.122000", "185956.125000", "185956.128000", "185956.131000", "185956.134000", "185956.137000", "185956.140000", "185956.143000", "185956.146000", "185956.148000", "185956.151000", "185956.154000", "185956.157000", "185956.160000", "185956.163000", "190036.097000", "190036.100000", "190036.103000", "190036.105000", "190036.108000", "190036.111000", "190036.114000", "190036.117000", "190036.120000", "190036.123000", "190036.126000", "190036.129000", "190036.132000", "190036.135000", "190036.137000", "190036.140000", "190036.143000", "190036.146000", "190036.149000", "190036.152000", "190036.155000", "190036.158000", "190036.160000", "190036.163000", "190036.166000", "190036.169000", "190036.172000", "190116.087000", "190116.090000", "190116.093000", "190116.096000", "190116.099000", "190116.102000", "190116.104000", "190116.107000", "190116.110000", "190116.113000", "190116.116000", "190116.119000", "190116.122000", "190116.125000", "190116.128000", "190116.131000", "190116.133000", "190116.136000", "190116.139000", "190116.142000", "190116.145000", "190116.148000", "190116.151000", "190116.154000", "190116.157000", "190116.159000", "190116.162000", "190156.087000", "190156.090000", "190156.093000", "190156.096000", "190156.099000", "190156.102000", "190156.105000", "190156.107000", "190156.110000", "190156.113000", "190156.116000", "190156.119000", "190156.122000", "190156.125000", "190156.128000", "190156.131000", "190156.134000", "190156.136000", "190156.139000", "190156.142000", "190156.145000", "190156.148000", "190156.151000", "190156.154000", "190156.157000", "190156.159000", "190156.162000", "190236.087000", "190236.090000", "190236.093000", "190236.096000", "190236.099000", "190236.101000", "190236.104000", "190236.107000", "190236.110000", "190236.113000", "190236.116000", "190236.119000", "190236.122000", "190236.125000", "190236.128000", "190236.131000", "190236.133000", "190236.136000", "190236.139000", "190236.142000", "190236.145000", "190236.148000", "190236.151000", "190236.154000", "190236.157000", "190236.159000", "190236.162000", "190316.087000", "190316.090000", "190316.093000", "190316.096000", "190316.099000", "190316.101000", "190316.104000", "190316.107000", "190316.110000", "190316.113000", "190316.116000", "190316.119000", "190316.122000", "190316.125000", "190316.128000", "190316.131000", "190316.134000", "190316.136000", "190316.139000", "190316.142000", "190316.145000", "190316.148000", "190316.151000", "190316.154000", "190316.157000", "190316.160000", "190356.087000", "190356.090000", "190356.093000", "190356.096000", "190356.099000", "190356.102000", "190356.104000", "190356.107000", "190356.110000", "190356.113000", "190356.116000", "190356.119000", "190356.122000", "190356.125000", "190356.128000", "190356.131000", "190356.134000", "190356.137000", "190356.140000", "190356.142000", "190356.145000", "190356.148000", "190356.151000", "190356.154000", "190356.157000", "190356.160000", "190356.163000", "190436.087000", "190436.090000", "190436.093000", "190436.096000", "190436.099000", "190436.102000", "190436.104000", "190436.107000", "190436.110000", "190436.120000", "190436.123000", "190436.126000", "190436.129000", "190436.132000", "190436.135000", "190436.137000", "190436.140000", "190436.143000", "190436.146000", "190436.149000", "190436.152000", "190436.155000", "190436.158000", "190436.161000", "190436.163000", "190436.166000", "190436.169000", "190516.087000", "190516.090000", "190516.093000", "190516.096000", "190516.099000", "190516.102000", "190516.105000", "190516.108000", "190516.110000", "190516.113000", "190516.116000", "190516.119000", "190516.122000", "190516.125000", "190516.128000", "190516.131000", "190516.134000", "190516.137000", "190516.139000", "190516.142000", "190516.145000", "190516.148000", "190516.151000", "190516.154000", "190516.157000", "190516.160000", "190516.163000", "190556.087000", "190556.090000", "190556.093000", "190556.096000", "190556.099000", "190556.102000", "190556.105000", "190556.107000", "190556.110000", "190556.113000", "190556.116000", "190556.119000", "190556.122000", "190556.125000", "190556.128000", "190556.131000", "190556.134000", "190556.137000", "190556.139000", "190556.142000", "190556.145000", "190556.148000", "190556.151000", "190556.154000", "190556.157000", "190556.160000", "190556.162000", "190636.087000", "190636.090000", "190636.093000", "190636.096000", "190636.099000", "190636.102000", "190636.104000", "190636.107000", "190636.110000", "190636.113000", "190636.116000", "190636.119000", "190636.122000", "190636.125000", "190636.128000", "190636.131000", "190636.134000", "190636.137000", "190636.140000", "190636.142000", "190636.145000", "190636.148000", "190636.151000", "190636.154000", "190636.157000", "190636.160000", "190636.163000", "190652.392000", "190652.395000", "190652.398000", "190652.401000", "190652.404000", "190652.407000", "190652.410000", "190652.413000", "190652.416000", "190652.419000", "190652.422000"],
