{
  "AcquisitionMatrixPE": 104,
  "AcquisitionNumber": 1,
  "AcquisitionTime": "11:27:15.797500",
  "BandwidthPerPixelPhaseEncode": 17.17,
  "BaseResolution": 104,
  "BodyPartExamined": "BRAIN",
  "CoilCombinationMethod": "Sum of Squares",
  "ConsistencyInfo": "N4_VE11C_LATEST_20160120",
  "ConversionSoftware": "dcm2niix",
  "ConversionSoftwareVersion": "v1.0.20211006",
  "DerivedVendorReportedEchoSpacing": 0.000560011,
  "DeviceSerialNumber": "167006",
  "DwellTime": 2.1e-06,
  "EchoTime": 0.037,
  "EchoTrainLength": 104,
  "EffectiveEchoSpacing": 0.000560011,
  "FlipAngle": 52,
  "HeudiconvVersion": "0.11.3.post9+gc939bf8",
  "ImageComments": "Unaliased MB4/PE3/LB",
  "ImageOrientationPatientDICOM": [0.99578, 0.0916928, 0.00386513, -0.083443, 0.922113, -0.377815],
  "ImageOrientationText": "Tra>Cor(-22.1)>Sag(2.2)",
  "ImageType": [
    "ORIGINAL",
    "PRIMARY",
    "M",
    "MB",
    "ND",
    "MOSAIC"
],
  "ImagingFrequency": 123.259,
  "InPlanePhaseEncodingDirectionDICOM": "COL",
  "InstitutionAddress": "Chemin Queen-Mary 4565,Montreal,District,CA,H3W 1W5",
  "InstitutionName": "IUGM",
  "InstitutionalDepartmentName": "Department",
  "MRAcquisitionType": "2D",
  "MagneticFieldStrength": 3,
  "Manufacturer": "Siemens",
  "ManufacturersModelName": "Prisma_fit",
  "MatrixCoilMode": "SENSE",
  "Modality": "MR",
  "MultibandAccelerationFactor": 4,
  "PartialFourier": 1,
  "PatientPosition": "HFS",
  "PercentPhaseFOV": 100,
  "PercentSampling": 100,
  "PhaseEncodingDirection": "j",
  "PhaseEncodingSteps": 104,
  "PhaseResolution": 1,
  "PixelBandwidth": 2290,
  "ProcedureStepDescription": "video^friends",
  "ProtocolName": "func_task-friends-s06e24b",
  "PulseSequenceDetails": "%CustomerSeq%\\cmrr_mbep2d_bold",
  "ReceiveCoilActiveElements": "HC1-7;NC1,2",
  "ReceiveCoilName": "HeadNeck_64",
  "ReconMatrixPE": 104,
  "RepetitionTime": 1.49,
  "SAR": 0.0530588,
  "ScanOptions": "FS",
  "ScanningSequence": "EP",
  "SequenceName": "epfid2d1_104",
  "SequenceVariant": "SK\\SS",
  "SeriesDescription": "func_task-friends-s06e24b",
  "SeriesNumber": 10,
  "ShimSetting": [625, -7209, -8833, 647, 94, -63, -17, 11],
  "SliceThickness": 2,
  "SliceTiming": [0, 0.7825, 0.0975, 0.88, 0.195, 0.98, 0.2925, 1.0775, 0.39, 1.175, 0.49, 1.2725, 0.5875, 1.37, 0.685, 0, 0.7825, 0.0975, 0.88, 0.195, 0.98, 0.2925, 1.0775, 0.39, 1.175, 0.49, 1.2725, 0.5875, 1.37, 0.685, 0, 0.7825, 0.0975, 0.88, 0.195, 0.98, 0.2925, 1.0775, 0.39, 1.175, 0.49, 1.2725, 0.5875, 1.37, 0.685, 0, 0.7825, 0.0975, 0.88, 0.195, 0.98, 0.2925, 1.0775, 0.39, 1.175, 0.49, 1.2725, 0.5875, 1.37, 0.685],
  "SoftwareVersions": "syngo MR E11",
  "SpacingBetweenSlices": 2,
  "StationName": "MRC35049",
  "TaskName": "s06e24b",
  "TotalReadoutTime": 0.0576811,
  "TxRefAmp": 274.109,
  "WipMemBlock": "0c187d00-5f44-421a-a906-f167d76e9c29||Sequence: R017 ve11c/master r/75a17815+; Jun 28 2022 16:32:11 by eja",
  "dcmmeta_affine": [
    [-1.991559624671936, -0.16688598692417145, 0.0764140710234642, 109.35054016113281],
    [-0.18338562548160553, 1.8442264795303345, -0.7517967224121094, -57.36172866821289],
    [0.00773025956004858, 0.755630612373352, 1.851745843887329, -69.33053588867188],
    [0.0, 0.0, 0.0, 1.0]
],
  "dcmmeta_reorient_transform": [
    [0.0, -1.0, 0.0, 103.0],
    [1.0, 0.0, 0.0, 0.0],
    [0.0, 0.0, 1.0, 0.0],
    [0.0, 0.0, 0.0, 1.0]
],
  "dcmmeta_shape": [104, 104, 60, 461],
  "dcmmeta_slice_dim": 2,
  "dcmmeta_version": 0.6,
  "global": {
    "const": {
      "AcquisitionMatrix": [104, 0, 0, 104],
      "AngioFlag": "N",
      "BitsAllocated": 16,
      "BitsStored": 16,
      "BodyPartExamined": "BRAIN",
      "Columns": 832,
      "EchoNumbers": 1,
      "EchoTime": 37.0,
      "EchoTrainLength": 104,
      "FlipAngle": 52.0,
      "HighBit": 15,
      "ImageOrientationPatient": [0.99577983951203, 0.09169281320354, 0.00386512977957, -0.0834429960233, 0.92211325466324, -0.3778153146565],
      "ImagePositionPatient": [-756.34250495373, -870.64442052937, 280.73515061941],
      "ImageType": [
        "ORIGINAL",
        "PRIMARY",
        "M",
        "MB",
        "ND",
        "MOSAIC"
],
      "ImagedNucleus": "1H",
      "ImagingFrequency": 123.258808,
      "InPlanePhaseEncodingDirection": "COL",
      "MRAcquisitionType": "2D",
      "MagneticFieldStrength": 3.0,
      "Manufacturer": "SIEMENS",
      "ManufacturerModelName": "Prisma_fit",
      "Modality": "MR",
      "NumberOfAverages": 1.0,
      "NumberOfPhaseEncodingSteps": 104,
      "PercentPhaseFieldOfView": 100.0,
      "PercentSampling": 100.0,
      "PerformedProcedureStepStartTime": "112245.629000",
      "PhotometricInterpretation": "MONOCHROME2",
      "PixelBandwidth": 2290.0,
      "PixelRepresentation": 0,
      "PixelSpacing": [2.0, 2.0],
      "ProtocolName": "func_task-friends-s06e24b",
      "RepetitionTime": 1490.0,
      "Rows": 832,
      "SAR": 0.05305880897096,
      "SamplesPerPixel": 1,
      "ScanOptions": "FS",
      "ScanningSequence": "EP",
      "SequenceName": "epfid2d1_104",
      "SequenceVariant": [
        "SK",
        "SS"
],
      "SeriesDescription": "func_task-friends-s06e24b",
      "SeriesNumber": 10,
      "SeriesTime": "112832.615000",
      "SliceLocation": -38.451128784113,
      "SliceThickness": 2.0,
      "SmallestImagePixelValue": 0,
      "SoftwareVersions": "syngo MR E11",
      "SpacingBetweenSlices": 2.0000000279219,
      "SpecificCharacterSet": "ISO_IR 100",
      "StudyID": "1",
      "StudyTime": "112245.534000",
      "TransmitCoilName": "Body",
      "VariableFlipAngleFlag": "N",
      "WindowCenterWidthExplanation": "Algo1",
      "dBdt": 0.0},
    "slices": {}
  },
  "time": {
    "samples": {
      "AcquisitionNumber": [1, 2, 3, 4, 5, 6, 7, 8, 9, 10, 11, 12, 13, 14, 15, 16, 17, 18, 19, 20, 21, 22, 23, 24, 25, 26, 27, 28, 29, 30, 31, 32, 33, 34, 35, 36, 37, 38, 39, 40, 41, 42, 43, 44, 45, 46, 47, 48, 49, 50, 51, 52, 53, 54, 55, 56, 57, 58, 59, 60, 61, 62, 63, 64, 65, 66, 67, 68, 69, 70, 71, 72, 73, 74, 75, 76, 77, 78, 79, 80, 81, 82, 83, 84, 85, 86, 87, 88, 89, 90, 91, 92, 93, 94, 95, 96, 97, 98, 99, 100, 101, 102, 103, 104, 105, 106, 107, 108, 109, 110, 111, 112, 113, 114, 115, 116, 117, 118, 119, 120, 121, 122, 123, 124, 125, 126, 127, 128, 129, 130, 131, 132, 133, 134, 135, 136, 137, 138, 139, 140, 141, 142, 143, 144, 145, 146, 147, 148, 149, 150, 151, 152, 153, 154, 155, 156, 157, 158, 159, 160, 161, 162, 163, 164, 165, 166, 167, 168, 169, 170, 171, 172, 173, 174, 175, 176, 177, 178, 179, 180, 181, 182, 183, 184, 185, 186, 187, 188, 189, 190, 191, 192, 193, 194, 195, 196, 197, 198, 199, 200, 201, 202, 203, 204, 205, 206, 207, 208, 209, 210, 211, 212, 213, 214, 215, 216, 217, 218, 219, 220, 221, 222, 223, 224, 225, 226, 227, 228, 229, 230, 231, 232, 233, 234, 235, 236, 237, 238, 239, 240, 241, 242, 243, 244, 245, 246, 247, 248, 249, 250, 251, 252, 253, 254, 255, 256, 257, 258, 259, 260, 261, 262, 263, 264, 265, 266, 267, 268, 269, 270, 271, 272, 273, 274, 275, 276, 277, 278, 279, 280, 281, 282, 283, 284, 285, 286, 287, 288, 289, 290, 291, 292, 293, 294, 295, 296, 297, 298, 299, 300, 301, 302, 303, 304, 305, 306, 307, 308, 309, 310, 311, 312, 313, 314, 315, 316, 317, 318, 319, 320, 321, 322, 323, 324, 325, 326, 327, 328, 329, 330, 331, 332, 333, 334, 335, 336, 337, 338, 339, 340, 341, 342, 343, 344, 345, 346, 347, 348, 349, 350, 351, 352, 353, 354, 355, 356, 357, 358, 359, 360, 361, 362, 363, 364, 365, 366, 367, 368, 369, 370, 371, 372, 373, 374, 375, 376, 377, 378, 379, 380, 381, 382, 383, 384, 385, 386, 387, 388, 389, 390, 391, 392, 393, 394, 395, 396, 397, 398, 399, 400, 401, 402, 403, 404, 405, 406, 407, 408, 409, 410, 411, 412, 413, 414, 415, 416, 417, 418, 419, 420, 421, 422, 423, 424, 425, 426, 427, 428, 429, 430, 431, 432, 433, 434, 435, 436, 437, 438, 439, 440, 441, 442, 443, 444, 445, 446, 447, 448, 449, 450, 451, 452, 453, 454, 455, 456, 457, 458, 459, 460, 461],
      "AcquisitionTime": ["112715.797500", "112717.287500", "112718.777500", "112720.267500", "112721.757500", "112723.247500", "112724.737500", "112726.227500", "112727.717500", "112729.207500", "112730.697500", "112732.187500", "112733.677500", "112735.167500", "112736.657500", "112738.147500", "112739.637500", "112741.127500", "112742.617500", "112744.107500", "112745.597500", "112747.087500", "112748.577500", "112750.067500", "112751.557500", "112753.047500", "112754.537500", "112756.027500", "112757.517500", "112759.007500", "112800.497500", "112801.987500", "112803.477500", "112804.967500", "112806.457500", "112807.947500", "112809.437500", "112810.927500", "112812.417500", "112813.907500", "112815.397500", "112816.887500", "112818.377500", "112819.867500", "112821.357500", "112822.847500", "112824.337500", "112825.827500", "112827.317500", "112828.807500", "112830.297500", "112831.787500", "112833.277500", "112834.767500", "112836.257500", "112837.747500", "112839.237500", "112840.727500", "112842.217500", "112843.707500", "112845.197500", "112846.687500", "112848.177500", "112849.667500", "112851.157500", "112852.647500", "112854.137500", "112855.627500", "112857.117500", "112858.607500", "112900.097500", "112901.587500", "112903.077500", "112904.567500", "112906.057500", "112907.547500", "112909.037500", "112910.527500", "112912.017500", "112913.507500", "112914.997500", "112916.487500", "112917.977500", "112919.467500", "112920.957500", "112922.447500", "112923.937500", "112925.427500", "112926.917500", "112928.407500", "112929.897500", "112931.387500", "112932.877500", "112934.367500", "112935.857500", "112937.347500", "112938.837500", "112940.327500", "112941.817500", "112943.307500", "112944.797500", "112946.287500", "112947.777500", "112949.267500", "112950.757500", "112952.247500", "112953.737500", "112955.227500", "112956.717500", "112958.207500", "112959.697500", "113001.187500", "113002.677500", "113004.167500", "113005.657500", "113007.147500", "113008.637500", "113010.127500", "113011.617500", "113013.107500", "113014.597500", "113016.087500", "113017.577500", "113019.067500", "113020.557500", "113022.047500", "113023.537500", "113025.027500", "113026.517500", "113028.007500", "113029.497500", "113030.987500", "113032.477500", "113033.967500", "113035.457500", "113036.947500", "113038.437500", "113039.927500", "113041.417500", "113042.907500", "113044.397500", "113045.887500", "113047.377500", "113048.867500", "113050.357500", "113051.847500", "113053.337500", "113054.827500", "113056.317500", "113057.807500", "113059.297500", "113100.787500", "113102.277500", "113103.767500", "113105.257500", "113106.747500", "113108.237500", "113109.727500", "113111.217500", "113112.707500", "113114.197500", "113115.687500", "113117.177500", "113118.667500", "113120.157500", "113121.647500", "113123.137500", "113124.627500", "113126.117500", "113127.607500", "113129.097500", "113130.587500", "113132.077500", "113133.567500", "113135.057500", "113136.547500", "113138.037500", "113139.527500", "113141.017500", "113142.507500", "113143.997500", "113145.487500", "113146.977500", "113148.467500", "113149.957500", "113151.447500", "113152.937500", "113154.427500", "113155.917500", "113157.407500", "113158.897500", "113200.387500", "113201.877500", "113203.367500", "113204.857500", "113206.347500", "113207.837500", "113209.327500", "113210.817500", "113212.307500", "113213.797500", "113215.287500", "113216.777500", "113218.267500", "113219.757500", "113221.247500", "113222.737500", "113224.227500", "113225.717500", "113227.207500", "113228.697500", "113230.187500", "113231.677500", "113233.167500", "113234.657500", "113236.147500", "113237.637500", "113239.127500", "113240.617500", "113242.107500", "113243.597500", "113245.087500", "113246.577500", "113248.067500", "113249.557500", "113251.047500", "113252.537500", "113254.027500", "113255.517500", "113257.007500", "113258.497500", "113259.987500", "113301.477500", "113302.967500", "113304.457500", "113305.947500", "113307.437500", "113308.927500", "113310.417500", "113311.907500", "113313.397500", "113314.887500", "113316.377500", "113317.867500", "113319.357500", "113320.847500", "113322.337500", "113323.827500", "113325.317500", "113326.807500", "113328.297500", "113329.787500", "113331.277500", "113332.767500", "113334.257500", "113335.747500", "113337.237500", "113338.727500", "113340.217500", "113341.707500", "113343.197500", "113344.687500", "113346.177500", "113347.667500", "113349.157500", "113350.647500", "113352.137500", "113353.627500", "113355.117500", "113356.607500", "113358.097500", "113359.587500", "113401.077500", "113402.567500", "113404.057500", "113405.547500", "113407.037500", "113408.527500", "113410.017500", "113411.507500", "113412.997500", "113414.487500", "113415.977500", "113417.467500", "113418.957500", "113420.447500", "113421.937500", "113423.427500", "113424.917500", "113426.407500", "113427.897500", "113429.387500", "113430.877500", "113432.367500", "113433.857500", "113435.347500", "113436.837500", "113438.327500", "113439.817500", "113441.307500", "113442.797500", "113444.287500", "113445.777500", "113447.267500", "113448.757500", "113450.247500", "113451.737500", "113453.227500", "113454.717500", "113456.207500", "113457.697500", "113459.187500", "113500.677500", "113502.167500", "113503.657500", "113505.147500", "113506.637500", "113508.127500", "113509.617500", "113511.107500", "113512.597500", "113514.087500", "113515.577500", "113517.067500", "113518.557500", "113520.047500", "113521.537500", "113523.027500", "113524.517500", "113526.007500", "113527.497500", "113528.987500", "113530.477500", "113531.967500", "113533.457500", "113534.947500", "113536.437500", "113537.927500", "113539.417500", "113540.907500", "113542.397500", "113543.887500", "113545.377500", "113546.867500", "113548.357500", "113549.847500", "113551.337500", "113552.827500", "113554.317500", "113555.807500", "113557.297500", "113558.787500", "113600.277500", "113601.767500", "113603.257500", "113604.747500", "113606.237500", "113607.727500", "113609.217500", "113610.707500", "113612.197500", "113613.687500", "113615.177500", "113616.667500", "113618.157500", "113619.647500", "113621.137500", "113622.627500", "113624.117500", "113625.607500", "113627.097500", "113628.587500", "113630.077500", "113631.567500", "113633.057500", "113634.547500", "113636.037500", "113637.527500", "113639.017500", "113640.507500", "113641.997500", "113643.487500", "113644.977500", "113646.467500", "113647.957500", "113649.447500", "113650.937500", "113652.427500", "113653.917500", "113655.407500", "113656.897500", "113658.387500", "113659.877500", "113701.367500", "113702.857500", "113704.347500", "113705.837500", "113707.327500", "113708.817500", "113710.307500", "113711.797500", "113713.287500", "113714.777500", "113716.267500", "113717.757500", "113719.247500", "113720.737500", "113722.227500", "113723.717500", "113725.207500", "113726.697500", "113728.187500", "113729.677500", "113731.167500", "113732.657500", "113734.147500", "113735.637500", "113737.127500", "113738.617500", "113740.107500", "113741.597500", "113743.087500", "113744.577500", "113746.067500", "113747.557500", "113749.047500", "113750.537500", "113752.027500", "113753.517500", "113755.007500", "113756.497500", "113757.987500", "113759.477500", "113800.967500", "113802.457500", "113803.947500", "113805.437500", "113806.927500", "113808.417500", "113809.907500", "113811.397500", "113812.887500", "113814.377500", "113815.867500", "113817.357500", "113818.847500", "113820.337500", "113821.827500", "113823.317500", "113824.807500", "113826.297500", "113827.787500", "113829.277500", "113830.767500", "113832.257500", "113833.747500", "113835.237500", "113836.727500", "113838.217500", "113839.707500", "113841.197500"],
      "ContentTime": ["112832.617000", "112832.626000", "112832.629000", "112832.632000", "112832.635000", "112832.637000", "112832.640000", "112832.643000", "112832.646000", "112832.649000", "112832.652000", "112832.655000", "112832.658000", "112832.661000", "112832.664000", "112832.667000", "112832.669000", "112832.672000", "112832.675000", "112832.678000", "112832.681000", "112832.690000", "112832.693000", "112832.696000", "112832.699000", "112832.702000", "112832.705000", "112832.708000", "112852.584000", "112852.587000", "112852.590000", "112852.593000", "112852.596000", "112852.599000", "112852.602000", "112852.605000", "112852.608000", "112852.611000", "112852.614000", "112852.617000", "112852.620000", "112852.623000", "112852.626000", "112852.629000", "112852.632000", "112852.635000", "112852.637000", "112852.640000", "112912.584000", "112912.594000", "112912.597000", "112912.600000", "112912.603000", "112912.606000", "112912.609000", "112912.612000", "112912.615000", "112912.617000", "112912.620000", "112912.623000", "112912.626000", "112912.629000", "112912.632000", "112912.635000", "112912.638000", "112912.645000", "112912.648000", "112912.651000", "112932.584000", "112932.587000", "112932.595000", "112932.598000", "112932.601000", "112932.604000", "112932.607000", "112932.610000", "112932.613000", "112932.616000", "112932.619000", "112932.622000", "112932.625000", "112932.628000", "112932.631000", "112932.633000", "112932.636000", "112932.641000", "112932.644000", "112932.657000", "113012.585000", "113012.588000", "113012.591000", "113012.594000", "113012.597000", "113012.600000", "113012.603000", "113012.606000", "113012.640000", "113012.643000", "113012.646000", "113012.648000", "113012.651000", "113012.654000", "113012.657000", "113012.660000", "113012.663000", "113012.666000", "113012.669000", "113012.672000", "113012.675000", "113012.678000", "113012.681000", "113012.684000", "113012.687000", "113012.690000", "113012.693000", "113012.696000", "113012.699000", "113012.702000", "113052.584000", "113052.587000", "113052.590000", "113052.593000", "113052.596000", "113052.599000", "113052.602000", "113052.604000", "113052.607000", "113052.610000", "113052.613000", "113052.616000", "113052.619000", "113052.622000", "113052.625000", "113052.628000", "113052.631000", "113052.634000", "113052.637000", "113052.640000", "113052.642000", "113052.645000", "113052.648000", "113052.651000", "113052.654000", "113052.657000", "113052.669000", "113132.584000", "113132.587000", "113132.590000", "113132.593000", "113132.596000", "113132.599000", "113132.602000", "113132.605000", "113132.608000", "113132.610000", "113132.613000", "113132.625000", "113132.628000", "113132.631000", "113132.634000", "113132.637000", "113132.640000", "113132.642000", "113132.645000", "113132.648000", "113132.651000", "113132.654000", "113132.657000", "113132.660000", "113132.664000", "113132.668000", "113212.584000", "113212.587000", "113212.590000", "113212.593000", "113212.596000", "113212.599000", "113212.602000", "113212.605000", "113212.608000", "113212.611000", "113212.614000", "113212.616000", "113212.619000", "113212.622000", "113212.625000", "113212.628000", "113212.631000", "113212.634000", "113212.637000", "113212.640000", "113212.643000", "113212.646000", "113212.649000", "113212.652000", "113212.655000", "113212.658000", "113212.661000", "113252.585000", "113252.588000", "113252.591000", "113252.594000", "113252.602000", "113252.605000", "113252.608000", "113252.610000", "113252.613000", "113252.616000", "113252.619000", "113252.622000", "113252.625000", "113252.628000", "113252.631000", "113252.634000", "113252.637000", "113252.640000", "113252.643000", "113252.646000", "113252.649000", "113252.651000", "113252.654000", "113252.657000", "113252.660000", "113252.663000", "113252.666000", "113332.584000", "113332.587000", "113332.590000", "113332.593000", "113332.596000", "113332.599000", "113332.602000", "113332.605000", "113332.608000", "113332.611000", "113332.613000", "113332.616000", "113332.619000", "113332.622000", "113332.625000", "113332.628000", "113332.631000", "113332.634000", "113332.637000", "113332.639000", "113332.642000", "113332.645000", "113332.648000", "113332.651000", "113332.654000", "113332.657000", "113332.660000", "113412.584000", "113412.587000", "113412.590000", "113412.593000", "113412.596000", "113412.599000", "113412.602000", "113412.605000", "113412.608000", "113412.611000", "113412.614000", "113412.616000", "113412.619000", "113412.622000", "113412.625000", "113412.628000", "113412.631000", "113412.634000", "113412.637000", "113412.640000", "113412.643000", "113412.646000", "113412.649000", "113412.651000", "113412.654000", "113412.657000", "113412.660000", "113452.585000", "113452.588000", "113452.591000", "113452.601000", "113452.604000", "113452.607000", "113452.610000", "113452.613000", "113452.616000", "113452.619000", "113452.622000", "113452.625000", "113452.627000", "113452.630000", "113452.633000", "113452.636000", "113452.639000", "113452.642000", "113452.645000", "113452.648000", "113452.651000", "113452.654000", "113452.657000", "113452.660000", "113452.663000", "113452.665000", "113452.668000", "113532.584000", "113532.587000", "113532.590000", "113532.593000", "113532.596000", "113532.599000", "113532.602000", "113532.605000", "113532.608000", "113532.611000", "113532.614000", "113532.617000", "113532.620000", "113532.622000", "113532.625000", "113532.628000", "113532.631000", "113532.634000", "113532.637000", "113532.640000", "113532.643000", "113532.646000", "113532.649000", "113532.652000", "113532.654000", "113532.658000", "113532.661000", "113612.584000", "113612.587000", "113612.590000", "113612.593000", "113612.596000", "113612.599000", "113612.602000", "113612.605000", "113612.608000", "113612.611000", "113612.614000", "113612.616000", "113612.619000", "113612.622000", "113612.625000", "113612.628000", "113612.631000", "113612.634000", "113612.637000", "113612.640000", "113612.643000", "113612.646000", "113612.649000", "113612.652000", "113612.655000", "113612.659000", "113652.584000", "113652.587000", "113652.590000", "113652.593000", "113652.596000", "113652.599000", "113652.602000", "113652.605000", "113652.608000", "113652.611000", "113652.614000", "113652.616000", "113652.619000", "113652.622000", "113652.625000", "113652.628000", "113652.631000", "113652.634000", "113652.637000", "113652.640000", "113652.643000", "113652.645000", "113652.648000", "113652.651000", "113652.654000", "113652.657000", "113652.660000", "113732.585000", "113732.588000", "113732.591000", "113732.594000", "113732.597000", "113732.600000", "113732.603000", "113732.606000", "113732.609000", "113732.611000", "113732.614000", "113732.617000", "113732.620000", "113732.623000", "113732.626000", "113732.629000", "113732.632000", "113732.647000", "113732.650000", "113732.653000", "113732.656000", "113732.658000", "113732.661000", "113732.664000", "113732.667000", "113732.670000", "113732.673000", "113812.584000", "113812.587000", "113812.590000", "113812.593000", "113812.596000", "113812.599000", "113812.602000", "113812.605000", "113812.608000", "113812.611000", "113812.614000", "113812.616000", "113812.619000", "113812.622000", "113812.625000", "113812.628000", "113812.631000", "113812.634000", "113812.637000", "113812.640000", "113812.643000", "113812.646000", "113812.649000", "113812.651000", "113812.654000", "113812.657000", "113812.660000", "113843.347000", "113843.350000", "113843.354000", "113843.357000", "113843.360000", "113843.363000", "113843.366000", "113843.369000", "113843.372000", "113843.374000", "113843.377000", "113843.380000", "113843.383000", "113843.386000", "113843.390000", "113843.393000", "113843.396000", "113843.399000", "113843.402000", "113843.405000", "113843.408000"],
