{
  "AcquisitionMatrixPE": 104,
  "AcquisitionNumber": 1,
  "AcquisitionTime": "11:53:10.932500",
  "BandwidthPerPixelPhaseEncode": 17.17,
  "BaseResolution": 104,
  "BodyPartExamined": "BRAIN",
  "CoilCombinationMethod": "Sum of Squares",
  "ConsistencyInfo": "N4_VE11C_LATEST_20160120",
  "ConversionSoftware": "dcm2niix",
  "ConversionSoftwareVersion": "v1.0.20211006",
  "DerivedVendorReportedEchoSpacing": 0.000560011,
  "DeviceSerialNumber": "167006",
  "DwellTime": 2.1e-06,
  "EchoTime": 0.037,
  "EchoTrainLength": 104,
  "EffectiveEchoSpacing": 0.000560011,
  "FlipAngle": 52,
  "HeudiconvVersion": "0.11.3.post9+gc939bf8",
  "ImageComments": "Unaliased MB4/PE3/LB",
  "ImageOrientationPatientDICOM": [0.99578, 0.0916928, 0.00386513, -0.083443, 0.922113, -0.377815],
  "ImageOrientationText": "Tra>Cor(-22.1)>Sag(2.2)",
  "ImageType": [
    "ORIGINAL",
    "PRIMARY",
    "M",
    "MB",
    "ND",
    "MOSAIC"
],
  "ImagingFrequency": 123.259,
  "InPlanePhaseEncodingDirectionDICOM": "COL",
  "InstitutionAddress": "Chemin Queen-Mary 4565,Montreal,District,CA,H3W 1W5",
  "InstitutionName": "IUGM",
  "InstitutionalDepartmentName": "Department",
  "MRAcquisitionType": "2D",
  "MagneticFieldStrength": 3,
  "Manufacturer": "Siemens",
  "ManufacturersModelName": "Prisma_fit",
  "MatrixCoilMode": "SENSE",
  "Modality": "MR",
  "MultibandAccelerationFactor": 4,
  "PartialFourier": 1,
  "PatientPosition": "HFS",
  "PercentPhaseFOV": 100,
  "PercentSampling": 100,
  "PhaseEncodingDirection": "j",
  "PhaseEncodingSteps": 104,
  "PhaseResolution": 1,
  "PixelBandwidth": 2290,
  "ProcedureStepDescription": "video^friends",
  "ProtocolName": "func_task-friends-s06e24d",
  "PulseSequenceDetails": "%CustomerSeq%\\cmrr_mbep2d_bold",
  "ReceiveCoilActiveElements": "HC1-7;NC1,2",
  "ReceiveCoilName": "HeadNeck_64",
  "ReconMatrixPE": 104,
  "RepetitionTime": 1.49,
  "SAR": 0.0530588,
  "ScanOptions": "FS",
  "ScanningSequence": "EP",
  "SequenceName": "epfid2d1_104",
  "SequenceVariant": "SK\\SS",
  "SeriesDescription": "func_task-friends-s06e24d",
  "SeriesNumber": 14,
  "ShimSetting": [625, -7209, -8833, 647, 94, -63, -17, 11],
  "SliceThickness": 2,
  "SliceTiming": [0, 0.7825, 0.0975, 0.88, 0.195, 0.9775, 0.2925, 1.0775, 0.39, 1.175, 0.49, 1.2725, 0.5875, 1.37, 0.685, 0, 0.7825, 0.0975, 0.88, 0.195, 0.9775, 0.2925, 1.0775, 0.39, 1.175, 0.49, 1.2725, 0.5875, 1.37, 0.685, 0, 0.7825, 0.0975, 0.88, 0.195, 0.9775, 0.2925, 1.0775, 0.39, 1.175, 0.49, 1.2725, 0.5875, 1.37, 0.685, 0, 0.7825, 0.0975, 0.88, 0.195, 0.9775, 0.2925, 1.0775, 0.39, 1.175, 0.49, 1.2725, 0.5875, 1.37, 0.685],
  "SoftwareVersions": "syngo MR E11",
  "SpacingBetweenSlices": 2,
  "StationName": "MRC35049",
  "TaskName": "s06e24d",
  "TotalReadoutTime": 0.0576811,
  "TxRefAmp": 274.109,
  "WipMemBlock": "497ae899-4e5e-4034-b485-7631b04e15fe||Sequence: R017 ve11c/master r/75a17815+; Jun 28 2022 16:32:11 by eja",
  "dcmmeta_affine": [
    [-1.991559624671936, -0.16688598692417145, 0.0764140710234642, 109.35054016113281],
    [-0.18338562548160553, 1.8442264795303345, -0.7517967224121094, -57.36172866821289],
    [0.00773025956004858, 0.755630612373352, 1.851745843887329, -69.33053588867188],
    [0.0, 0.0, 0.0, 1.0]
],
  "dcmmeta_reorient_transform": [
    [0.0, -1.0, 0.0, 103.0],
    [1.0, 0.0, 0.0, 0.0],
    [0.0, 0.0, 1.0, 0.0],
    [0.0, 0.0, 0.0, 1.0]
],
  "dcmmeta_shape": [104, 104, 60, 490],
  "dcmmeta_slice_dim": 2,
  "dcmmeta_version": 0.6,
  "global": {
    "const": {
      "AcquisitionMatrix": [104, 0, 0, 104],
      "AngioFlag": "N",
      "BitsAllocated": 16,
      "BitsStored": 16,
      "BodyPartExamined": "BRAIN",
      "Columns": 832,
      "EchoNumbers": 1,
      "EchoTime": 37.0,
      "EchoTrainLength": 104,
      "FlipAngle": 52.0,
      "HighBit": 15,
      "ImageOrientationPatient": [0.99577983951203, 0.09169281320354, 0.00386512977957, -0.0834429960233, 0.92211325466324, -0.3778153146565],
      "ImagePositionPatient": [-756.34250495373, -870.64442052937, 280.73515061941],
      "ImageType": [
        "ORIGINAL",
        "PRIMARY",
        "M",
        "MB",
        "ND",
        "MOSAIC"
],
      "ImagedNucleus": "1H",
      "ImagingFrequency": 123.258819,
      "InPlanePhaseEncodingDirection": "COL",
      "MRAcquisitionType": "2D",
      "MagneticFieldStrength": 3.0,
      "Manufacturer": "SIEMENS",
      "ManufacturerModelName": "Prisma_fit",
      "Modality": "MR",
      "NumberOfAverages": 1.0,
      "NumberOfPhaseEncodingSteps": 104,
      "PercentPhaseFieldOfView": 100.0,
      "PercentSampling": 100.0,
      "PerformedProcedureStepStartTime": "112245.629000",
      "PhotometricInterpretation": "MONOCHROME2",
      "PixelBandwidth": 2290.0,
      "PixelRepresentation": 0,
      "PixelSpacing": [2.0, 2.0],
      "ProtocolName": "func_task-friends-s06e24d",
      "RepetitionTime": 1490.0,
      "Rows": 832,
      "SAR": 0.05305880374922,
      "SamplesPerPixel": 1,
      "ScanOptions": "FS",
      "ScanningSequence": "EP",
      "SequenceName": "epfid2d1_104",
      "SequenceVariant": [
        "SK",
        "SS"
],
      "SeriesDescription": "func_task-friends-s06e24d",
      "SeriesNumber": 14,
      "SeriesTime": "115425.472000",
      "SliceLocation": -38.451128784113,
      "SliceThickness": 2.0,
      "SmallestImagePixelValue": 0,
      "SoftwareVersions": "syngo MR E11",
      "SpacingBetweenSlices": 2.0000000279219,
      "SpecificCharacterSet": "ISO_IR 100",
      "StudyID": "1",
      "StudyTime": "112245.534000",
      "TransmitCoilName": "Body",
      "VariableFlipAngleFlag": "N",
      "WindowCenterWidthExplanation": "Algo1",
      "dBdt": 0.0},
    "slices": {}
  },
  "time": {
    "samples": {
      "AcquisitionNumber": [1, 2, 3, 4, 5, 6, 7, 8, 9, 10, 11, 12, 13, 14, 15, 16, 17, 18, 19, 20, 21, 22, 23, 24, 25, 26, 27, 28, 29, 30, 31, 32, 33, 34, 35, 36, 37, 38, 39, 40, 41, 42, 43, 44, 45, 46, 47, 48, 49, 50, 51, 52, 53, 54, 55, 56, 57, 58, 59, 60, 61, 62, 63, 64, 65, 66, 67, 68, 69, 70, 71, 72, 73, 74, 75, 76, 77, 78, 79, 80, 81, 82, 83, 84, 85, 86, 87, 88, 89, 90, 91, 92, 93, 94, 95, 96, 97, 98, 99, 100, 101, 102, 103, 104, 105, 106, 107, 108, 109, 110, 111, 112, 113, 114, 115, 116, 117, 118, 119, 120, 121, 122, 123, 124, 125, 126, 127, 128, 129, 130, 131, 132, 133, 134, 135, 136, 137, 138, 139, 140, 141, 142, 143, 144, 145, 146, 147, 148, 149, 150, 151, 152, 153, 154, 155, 156, 157, 158, 159, 160, 161, 162, 163, 164, 165, 166, 167, 168, 169, 170, 171, 172, 173, 174, 175, 176, 177, 178, 179, 180, 181, 182, 183, 184, 185, 186, 187, 188, 189, 190, 191, 192, 193, 194, 195, 196, 197, 198, 199, 200, 201, 202, 203, 204, 205, 206, 207, 208, 209, 210, 211, 212, 213, 214, 215, 216, 217, 218, 219, 220, 221, 222, 223, 224, 225, 226, 227, 228, 229, 230, 231, 232, 233, 234, 235, 236, 237, 238, 239, 240, 241, 242, 243, 244, 245, 246, 247, 248, 249, 250, 251, 252, 253, 254, 255, 256, 257, 258, 259, 260, 261, 262, 263, 264, 265, 266, 267, 268, 269, 270, 271, 272, 273, 274, 275, 276, 277, 278, 279, 280, 281, 282, 283, 284, 285, 286, 287, 288, 289, 290, 291, 292, 293, 294, 295, 296, 297, 298, 299, 300, 301, 302, 303, 304, 305, 306, 307, 308, 309, 310, 311, 312, 313, 314, 315, 316, 317, 318, 319, 320, 321, 322, 323, 324, 325, 326, 327, 328, 329, 330, 331, 332, 333, 334, 335, 336, 337, 338, 339, 340, 341, 342, 343, 344, 345, 346, 347, 348, 349, 350, 351, 352, 353, 354, 355, 356, 357, 358, 359, 360, 361, 362, 363, 364, 365, 366, 367, 368, 369, 370, 371, 372, 373, 374, 375, 376, 377, 378, 379, 380, 381, 382, 383, 384, 385, 386, 387, 388, 389, 390, 391, 392, 393, 394, 395, 396, 397, 398, 399, 400, 401, 402, 403, 404, 405, 406, 407, 408, 409, 410, 411, 412, 413, 414, 415, 416, 417, 418, 419, 420, 421, 422, 423, 424, 425, 426, 427, 428, 429, 430, 431, 432, 433, 434, 435, 436, 437, 438, 439, 440, 441, 442, 443, 444, 445, 446, 447, 448, 449, 450, 451, 452, 453, 454, 455, 456, 457, 458, 459, 460, 461, 462, 463, 464, 465, 466, 467, 468, 469, 470, 471, 472, 473, 474, 475, 476, 477, 478, 479, 480, 481, 482, 483, 484, 485, 486, 487, 488, 489, 490],
      "AcquisitionTime": ["115310.932500", "115312.422500", "115313.912500", "115315.402500", "115316.892500", "115318.382500", "115319.872500", "115321.362500", "115322.852500", "115324.342500", "115325.832500", "115327.322500", "115328.812500", "115330.302500", "115331.792500", "115333.282500", "115334.772500", "115336.262500", "115337.752500", "115339.242500", "115340.732500", "115342.222500", "115343.712500", "115345.202500", "115346.692500", "115348.182500", "115349.672500", "115351.162500", "115352.652500", "115354.142500", "115355.632500", "115357.122500", "115358.612500", "115400.102500", "115401.592500", "115403.082500", "115404.572500", "115406.062500", "115407.552500", "115409.042500", "115410.532500", "115412.022500", "115413.512500", "115415.002500", "115416.492500", "115417.982500", "115419.472500", "115420.962500", "115422.452500", "115423.942500", "115425.432500", "115426.922500", "115428.412500", "115429.902500", "115431.392500", "115432.882500", "115434.372500", "115435.862500", "115437.352500", "115438.842500", "115440.332500", "115441.822500", "115443.312500", "115444.802500", "115446.292500", "115447.782500", "115449.272500", "115450.762500", "115452.252500", "115453.742500", "115455.232500", "115456.722500", "115458.212500", "115459.702500", "115501.192500", "115502.682500", "115504.172500", "115505.662500", "115507.152500", "115508.642500", "115510.132500", "115511.622500", "115513.112500", "115514.602500", "115516.092500", "115517.582500", "115519.072500", "115520.562500", "115522.052500", "115523.542500", "115525.032500", "115526.522500", "115528.012500", "115529.502500", "115530.992500", "115532.482500", "115533.972500", "115535.462500", "115536.952500", "115538.442500", "115539.932500", "115541.422500", "115542.912500", "115544.402500", "115545.892500", "115547.382500", "115548.872500", "115550.362500", "115551.852500", "115553.342500", "115554.832500", "115556.322500", "115557.812500", "115559.302500", "115600.792500", "115602.282500", "115603.772500", "115605.262500", "115606.752500", "115608.242500", "115609.732500", "115611.222500", "115612.712500", "115614.202500", "115615.692500", "115617.182500", "115618.672500", "115620.162500", "115621.652500", "115623.142500", "115624.632500", "115626.122500", "115627.612500", "115629.102500", "115630.592500", "115632.082500", "115633.572500", "115635.062500", "115636.552500", "115638.042500", "115639.532500", "115641.022500", "115642.512500", "115644.002500", "115645.492500", "115646.982500", "115648.472500", "115649.962500", "115651.452500", "115652.942500", "115654.432500", "115655.922500", "115657.412500", "115658.902500", "115700.392500", "115701.882500", "115703.372500", "115704.862500", "115706.352500", "115707.842500", "115709.332500", "115710.822500", "115712.312500", "115713.802500", "115715.292500", "115716.782500", "115718.272500", "115719.762500", "115721.252500", "115722.742500", "115724.232500", "115725.722500", "115727.212500", "115728.702500", "115730.192500", "115731.682500", "115733.172500", "115734.662500", "115736.152500", "115737.642500", "115739.132500", "115740.622500", "115742.112500", "115743.602500", "115745.092500", "115746.582500", "115748.072500", "115749.562500", "115751.052500", "115752.542500", "115754.032500", "115755.522500", "115757.012500", "115758.502500", "115759.992500", "115801.482500", "115802.972500", "115804.462500", "115805.952500", "115807.442500", "115808.932500", "115810.422500", "115811.912500", "115813.402500", "115814.892500", "115816.382500", "115817.872500", "115819.362500", "115820.852500", "115822.342500", "115823.832500", "115825.322500", "115826.812500", "115828.302500", "115829.792500", "115831.282500", "115832.772500", "115834.262500", "115835.752500", "115837.242500", "115838.732500", "115840.222500", "115841.712500", "115843.202500", "115844.692500", "115846.182500", "115847.672500", "115849.162500", "115850.652500", "115852.142500", "115853.632500", "115855.122500", "115856.612500", "115858.102500", "115859.592500", "115901.082500", "115902.572500", "115904.062500", "115905.552500", "115907.042500", "115908.532500", "115910.022500", "115911.512500", "115913.002500", "115914.492500", "115915.982500", "115917.472500", "115918.962500", "115920.452500", "115921.942500", "115923.432500", "115924.922500", "115926.412500", "115927.902500", "115929.392500", "115930.882500", "115932.372500", "115933.862500", "115935.352500", "115936.842500", "115938.332500", "115939.822500", "115941.312500", "115942.802500", "115944.292500", "115945.782500", "115947.272500", "115948.762500", "115950.252500", "115951.742500", "115953.232500", "115954.722500", "115956.212500", "115957.702500", "115959.192500", "120000.682500", "120002.172500", "120003.662500", "120005.152500", "120006.642500", "120008.132500", "120009.622500", "120011.112500", "120012.602500", "120014.092500", "120015.582500", "120017.072500", "120018.562500", "120020.052500", "120021.542500", "120023.032500", "120024.522500", "120026.012500", "120027.502500", "120028.992500", "120030.482500", "120031.972500", "120033.462500", "120034.952500", "120036.442500", "120037.932500", "120039.422500", "120040.912500", "120042.402500", "120043.892500", "120045.382500", "120046.872500", "120048.362500", "120049.852500", "120051.342500", "120052.832500", "120054.322500", "120055.812500", "120057.302500", "120058.792500", "120100.282500", "120101.772500", "120103.262500", "120104.752500", "120106.242500", "120107.732500", "120109.222500", "120110.712500", "120112.202500", "120113.692500", "120115.182500", "120116.672500", "120118.162500", "120119.652500", "120121.142500", "120122.632500", "120124.122500", "120125.612500", "120127.102500", "120128.592500", "120130.082500", "120131.572500", "120133.062500", "120134.552500", "120136.042500", "120137.532500", "120139.022500", "120140.512500", "120142.002500", "120143.492500", "120144.982500", "120146.472500", "120147.962500", "120149.452500", "120150.942500", "120152.432500", "120153.922500", "120155.412500", "120156.902500", "120158.392500", "120159.882500", "120201.372500", "120202.862500", "120204.352500", "120205.842500", "120207.332500", "120208.822500", "120210.312500", "120211.802500", "120213.292500", "120214.782500", "120216.272500", "120217.762500", "120219.252500", "120220.742500", "120222.232500", "120223.722500", "120225.212500", "120226.702500", "120228.192500", "120229.682500", "120231.172500", "120232.662500", "120234.152500", "120235.642500", "120237.132500", "120238.622500", "120240.112500", "120241.602500", "120243.092500", "120244.582500", "120246.072500", "120247.562500", "120249.052500", "120250.542500", "120252.032500", "120253.522500", "120255.012500", "120256.502500", "120257.992500", "120259.482500", "120300.972500", "120302.462500", "120303.952500", "120305.442500", "120306.932500", "120308.422500", "120309.912500", "120311.402500", "120312.892500", "120314.382500", "120315.872500", "120317.362500", "120318.852500", "120320.342500", "120321.832500", "120323.322500", "120324.812500", "120326.302500", "120327.792500", "120329.282500", "120330.772500", "120332.262500", "120333.752500", "120335.242500", "120336.732500", "120338.222500", "120339.712500", "120341.202500", "120342.692500", "120344.182500", "120345.672500", "120347.162500", "120348.652500", "120350.142500", "120351.632500", "120353.122500", "120354.612500", "120356.102500", "120357.592500", "120359.082500", "120400.572500", "120402.062500", "120403.552500", "120405.042500", "120406.532500", "120408.022500", "120409.512500", "120411.002500", "120412.492500", "120413.982500", "120415.472500", "120416.962500", "120418.452500", "120419.942500", "120421.432500", "120422.922500", "120424.412500", "120425.902500", "120427.392500", "120428.882500", "120430.372500", "120431.862500", "120433.352500", "120434.842500", "120436.332500", "120437.822500", "120439.312500", "120440.802500", "120442.292500", "120443.782500", "120445.272500", "120446.762500", "120448.252500", "120449.742500", "120451.232500", "120452.722500", "120454.212500", "120455.702500", "120457.192500", "120458.682500", "120500.172500", "120501.662500", "120503.152500", "120504.642500", "120506.132500", "120507.622500", "120509.112500", "120510.602500", "120512.092500", "120513.582500", "120515.072500", "120516.562500", "120518.052500", "120519.542500"],
      "ContentTime": ["115425.475000", "115425.478000", "115425.481000", "115425.484000", "115425.487000", "115425.497000", "115425.500000", "115425.503000", "115425.505000", "115425.508000", "115425.511000", "115425.514000", "115425.517000", "115425.520000", "115425.523000", "115425.526000", "115425.529000", "115425.532000", "115425.534000", "115425.537000", "115425.540000", "115425.543000", "115425.546000", "115425.549000", "115425.552000", "115425.555000", "115425.558000", "115445.445000", "115445.448000", "115445.451000", "115445.454000", "115445.457000", "115445.460000", "115445.463000", "115445.466000", "115445.468000", "115445.471000", "115445.474000", "115445.477000", "115445.480000", "115445.483000", "115445.486000", "115445.489000", "115445.492000", "115445.494000", "115445.497000", "115445.500000", "115505.445000", "115505.448000", "115505.451000", "115505.454000", "115505.457000", "115505.460000", "115505.463000", "115505.465000", "115505.468000", "115505.471000", "115505.474000", "115505.477000", "115505.480000", "115505.483000", "115505.486000", "115505.489000", "115505.491000", "115505.494000", "115505.497000", "115505.500000", "115525.445000", "115525.448000", "115525.451000", "115525.454000", "115525.457000", "115525.460000", "115525.463000", "115525.466000", "115525.469000", "115525.471000", "115525.474000", "115525.477000", "115525.480000", "115525.483000", "115525.486000", "115525.489000", "115525.492000", "115525.495000", "115525.498000", "115525.500000", "115525.503000", "115605.445000", "115605.458000", "115605.461000", "115605.464000", "115605.467000", "115605.470000", "115605.473000", "115605.476000", "115605.479000", "115605.481000", "115605.484000", "115605.487000", "115605.490000", "115605.493000", "115605.496000", "115605.499000", "115605.502000", "115605.505000", "115605.508000", "115605.511000", "115605.514000", "115605.516000", "115605.519000", "115605.522000", "115605.525000", "115605.528000", "115605.531000", "115605.534000", "115645.445000", "115645.448000", "115645.451000", "115645.454000", "115645.457000", "115645.460000", "115645.463000", "115645.466000", "115645.475000", "115645.478000", "115645.481000", "115645.484000", "115645.487000", "115645.501000", "115645.504000", "115645.507000", "115645.510000", "115645.513000", "115645.516000", "115645.518000", "115645.521000", "115645.524000", "115645.527000", "115645.530000", "115645.533000", "115645.536000", "115645.539000", "115725.445000", "115725.448000", "115725.451000", "115725.454000", "115725.457000", "115725.460000", "115725.463000", "115725.466000", "115725.469000", "115725.472000", "115725.474000", "115725.477000", "115725.480000", "115725.483000", "115725.486000", "115725.489000", "115725.492000", "115725.495000", "115725.498000", "115725.501000", "115725.503000", "115725.506000", "115725.509000", "115725.512000", "115725.515000", "115725.518000", "115725.521000", "115805.445000", "115805.448000", "115805.451000", "115805.454000", "115805.457000", "115805.460000", "115805.463000", "115805.466000", "115805.468000", "115805.471000", "115805.474000", "115805.477000", "115805.480000", "115805.483000", "115805.486000", "115805.489000", "115805.492000", "115805.495000", "115805.498000", "115805.501000", "115805.504000", "115805.507000", "115805.509000", "115805.512000", "115805.515000", "115805.518000", "115805.521000", "115845.446000", "115845.449000", "115845.452000", "115845.455000", "115845.458000", "115845.461000", "115845.466000", "115845.469000", "115845.472000", "115845.475000", "115845.478000", "115845.481000", "115845.484000", "115845.487000", "115845.490000", "115845.493000", "115845.495000", "115845.498000", "115845.501000", "115845.504000", "115845.507000", "115845.510000", "115845.513000", "115845.516000", "115845.519000", "115845.522000", "115845.524000", "115925.445000", "115925.448000", "115925.451000", "115925.454000", "115925.457000", "115925.460000", "115925.463000", "115925.466000", "115925.469000", "115925.472000", "115925.475000", "115925.478000", "115925.481000", "115925.484000", "115925.487000", "115925.490000", "115925.493000", "115925.495000", "115925.498000", "115925.501000", "115925.504000", "115925.507000", "115925.510000", "115925.513000", "115925.516000", "115925.519000", "115925.522000", "120005.445000", "120005.448000", "120005.451000", "120005.454000", "120005.457000", "120005.460000", "120005.463000", "120005.466000", "120005.469000", "120005.472000", "120005.475000", "120005.477000", "120005.480000", "120005.483000", "120005.486000", "120005.489000", "120005.495000", "120005.498000", "120005.501000", "120005.503000", "120005.506000", "120005.509000", "120005.512000", "120005.515000", "120005.518000", "120005.521000", "120045.445000", "120045.448000", "120045.451000", "120045.454000", "120045.457000", "120045.460000", "120045.463000", "120045.466000", "120045.469000", "120045.472000", "120045.475000", "120045.478000", "120045.480000", "120045.483000", "120045.486000", "120045.489000", "120045.492000", "120045.495000", "120045.498000", "120045.501000", "120045.504000", "120045.506000", "120045.509000", "120045.512000", "120045.515000", "120045.518000", "120045.521000", "120125.445000", "120125.448000", "120125.451000", "120125.454000", "120125.457000", "120125.460000", "120125.463000", "120125.466000", "120125.469000", "120125.472000", "120125.475000", "120125.478000", "120125.481000", "120125.484000", "120125.487000", "120125.489000", "120125.492000", "120125.495000", "120125.498000", "120125.501000", "120125.504000", "120125.507000", "120125.524000", "120125.527000", "120125.530000", "120125.533000", "120125.536000", "120205.445000", "120205.448000", "120205.451000", "120205.460000", "120205.463000", "120205.466000", "120205.469000", "120205.472000", "120205.475000", "120205.478000", "120205.481000", "120205.484000", "120205.487000", "120205.490000", "120205.493000", "120205.496000", "120205.513000", "120205.516000", "120205.519000", "120205.522000", "120205.525000", "120205.528000", "120205.531000", "120205.534000", "120205.621000", "120205.624000", "120205.627000", "120245.445000", "120245.448000", "120245.451000", "120245.454000", "120245.457000", "120245.460000", "120245.463000", "120245.466000", "120245.469000", "120245.472000", "120245.475000", "120245.478000", "120245.481000", "120245.484000", "120245.487000", "120245.490000", "120245.493000", "120245.496000", "120245.499000", "120245.502000", "120245.505000", "120245.508000", "120245.511000", "120245.514000", "120245.517000", "120245.520000", "120245.523000", "120325.446000", "120325.449000", "120325.452000", "120325.455000", "120325.458000", "120325.461000", "120325.464000", "120325.467000", "120325.470000", "120325.473000", "120325.476000", "120325.479000", "120325.482000", "120325.485000", "120325.488000", "120325.491000", "120325.494000", "120325.497000", "120325.500000", "120325.503000", "120325.506000", "120325.509000", "120325.512000", "120325.515000", "120325.518000", "120325.521000", "120325.524000", "120405.445000", "120405.448000", "120405.451000", "120405.454000", "120405.463000", "120405.466000", "120405.469000", "120405.472000", "120405.475000", "120405.478000", "120405.481000", "120405.484000", "120405.487000", "120405.490000", "120405.493000", "120405.496000", "120405.499000", "120405.501000", "120405.504000", "120405.507000", "120405.510000", "120405.513000", "120405.516000", "120405.519000", "120405.522000", "120405.525000", "120445.445000", "120445.448000", "120445.451000", "120445.454000", "120445.457000", "120445.460000", "120445.463000", "120445.466000", "120445.469000", "120445.472000", "120445.475000", "120445.478000", "120445.481000", "120445.484000", "120445.487000", "120445.490000", "120445.493000", "120445.496000", "120445.499000", "120445.502000", "120445.505000", "120445.508000", "120445.511000", "120445.514000", "120445.517000", "120445.520000", "120445.523000", "120521.717000", "120521.720000", "120521.723000", "120521.726000", "120521.729000", "120521.732000", "120521.735000", "120521.738000", "120521.741000", "120521.744000", "120521.747000", "120521.750000", "120521.753000", "120521.760000", "120521.764000", "120521.768000", "120521.771000", "120521.775000", "120521.784000", "120521.787000", "120521.790000", "120521.793000", "120521.797000", "120521.800000", "120521.803000"],
