{
  "AcquisitionMatrixPE": 104,
  "AcquisitionNumber": 1,
  "AcquisitionTime": "11:40:4.462500",
  "BandwidthPerPixelPhaseEncode": 17.17,
  "BaseResolution": 104,
  "BodyPartExamined": "BRAIN",
  "CoilCombinationMethod": "Sum of Squares",
  "ConsistencyInfo": "N4_VE11C_LATEST_20160120",
  "ConversionSoftware": "dcm2niix",
  "ConversionSoftwareVersion": "v1.0.20211006",
  "DerivedVendorReportedEchoSpacing": 0.000560011,
  "DeviceSerialNumber": "167006",
  "DwellTime": 2.1e-06,
  "EchoTime": 0.037,
  "EchoTrainLength": 104,
  "EffectiveEchoSpacing": 0.000560011,
  "FlipAngle": 52,
  "HeudiconvVersion": "0.11.3.post9+gc939bf8",
  "ImageComments": "Unaliased MB4/PE3/LB",
  "ImageOrientationPatientDICOM": [0.99578, 0.0916928, 0.00386513, -0.083443, 0.922113, -0.377815],
  "ImageOrientationText": "Tra>Cor(-22.1)>Sag(2.2)",
  "ImageType": [
    "ORIGINAL",
    "PRIMARY",
    "M",
    "MB",
    "ND",
    "MOSAIC"
],
  "ImagingFrequency": 123.259,
  "InPlanePhaseEncodingDirectionDICOM": "COL",
  "InstitutionAddress": "Chemin Queen-Mary 4565,Montreal,District,CA,H3W 1W5",
  "InstitutionName": "IUGM",
  "InstitutionalDepartmentName": "Department",
  "MRAcquisitionType": "2D",
  "MagneticFieldStrength": 3,
  "Manufacturer": "Siemens",
  "ManufacturersModelName": "Prisma_fit",
  "MatrixCoilMode": "SENSE",
  "Modality": "MR",
  "MultibandAccelerationFactor": 4,
  "PartialFourier": 1,
  "PatientPosition": "HFS",
  "PercentPhaseFOV": 100,
  "PercentSampling": 100,
  "PhaseEncodingDirection": "j",
  "PhaseEncodingSteps": 104,
  "PhaseResolution": 1,
  "PixelBandwidth": 2290,
  "ProcedureStepDescription": "video^friends",
  "ProtocolName": "func_task-friends-s06e24c",
  "PulseSequenceDetails": "%CustomerSeq%\\cmrr_mbep2d_bold",
  "ReceiveCoilActiveElements": "HC1-7;NC1,2",
  "ReceiveCoilName": "HeadNeck_64",
  "ReconMatrixPE": 104,
  "RepetitionTime": 1.49,
  "SAR": 0.0530588,
  "ScanOptions": "FS",
  "ScanningSequence": "EP",
  "SequenceName": "epfid2d1_104",
  "SequenceVariant": "SK\\SS",
  "SeriesDescription": "func_task-friends-s06e24c",
  "SeriesNumber": 12,
  "ShimSetting": [625, -7209, -8833, 647, 94, -63, -17, 11],
  "SliceThickness": 2,
  "SliceTiming": [0, 0.785, 0.1, 0.8825, 0.1975, 0.98, 0.295, 1.0775, 0.3925, 1.1775, 0.49, 1.275, 0.5875, 1.3725, 0.6875, 0, 0.785, 0.1, 0.8825, 0.1975, 0.98, 0.295, 1.0775, 0.3925, 1.1775, 0.49, 1.275, 0.5875, 1.3725, 0.6875, 0, 0.785, 0.1, 0.8825, 0.1975, 0.98, 0.295, 1.0775, 0.3925, 1.1775, 0.49, 1.275, 0.5875, 1.3725, 0.6875, 0, 0.785, 0.1, 0.8825, 0.1975, 0.98, 0.295, 1.0775, 0.3925, 1.1775, 0.49, 1.275, 0.5875, 1.3725, 0.6875],
  "SoftwareVersions": "syngo MR E11",
  "SpacingBetweenSlices": 2,
  "StationName": "MRC35049",
  "TaskName": "s06e24c",
  "TotalReadoutTime": 0.0576811,
  "TxRefAmp": 274.109,
  "WipMemBlock": "4cb29059-7b85-4123-9f13-c119c00dc5c5||Sequence: R017 ve11c/master r/75a17815+; Jun 28 2022 16:32:11 by eja",
  "dcmmeta_affine": [
    [-1.991559624671936, -0.16688598692417145, 0.0764140710234642, 109.35054016113281],
    [-0.18338562548160553, 1.8442264795303345, -0.7517967224121094, -57.36172866821289],
    [0.00773025956004858, 0.755630612373352, 1.851745843887329, -69.33053588867188],
    [0.0, 0.0, 0.0, 1.0]
],
  "dcmmeta_reorient_transform": [
    [0.0, -1.0, 0.0, 103.0],
    [1.0, 0.0, 0.0, 0.0],
    [0.0, 0.0, 1.0, 0.0],
    [0.0, 0.0, 0.0, 1.0]
],
  "dcmmeta_shape": [104, 104, 60, 461],
  "dcmmeta_slice_dim": 2,
  "dcmmeta_version": 0.6,
  "global": {
    "const": {
      "AcquisitionMatrix": [104, 0, 0, 104],
      "AngioFlag": "N",
      "BitsAllocated": 16,
      "BitsStored": 16,
      "BodyPartExamined": "BRAIN",
      "Columns": 832,
      "EchoNumbers": 1,
      "EchoTime": 37.0,
      "EchoTrainLength": 104,
      "FlipAngle": 52.0,
      "HighBit": 15,
      "ImageOrientationPatient": [0.99577983951203, 0.09169281320354, 0.00386512977957, -0.0834429960233, 0.92211325466324, -0.3778153146565],
      "ImagePositionPatient": [-756.34250495373, -870.64442052937, 280.73515061941],
      "ImageType": [
        "ORIGINAL",
        "PRIMARY",
        "M",
        "MB",
        "ND",
        "MOSAIC"
],
      "ImagedNucleus": "1H",
      "ImagingFrequency": 123.258814,
      "InPlanePhaseEncodingDirection": "COL",
      "MRAcquisitionType": "2D",
      "MagneticFieldStrength": 3.0,
      "Manufacturer": "SIEMENS",
      "ManufacturerModelName": "Prisma_fit",
      "Modality": "MR",
      "NumberOfAverages": 1.0,
      "NumberOfPhaseEncodingSteps": 104,
      "PercentPhaseFieldOfView": 100.0,
      "PercentSampling": 100.0,
      "PerformedProcedureStepStartTime": "112245.629000",
      "PhotometricInterpretation": "MONOCHROME2",
      "PixelBandwidth": 2290.0,
      "PixelRepresentation": 0,
      "PixelSpacing": [2.0, 2.0],
      "ProtocolName": "func_task-friends-s06e24c",
      "RepetitionTime": 1490.0,
      "Rows": 832,
      "SAR": 0.05305880897096,
      "SamplesPerPixel": 1,
      "ScanOptions": "FS",
      "ScanningSequence": "EP",
      "SequenceName": "epfid2d1_104",
      "SequenceVariant": [
        "SK",
        "SS"
],
      "SeriesDescription": "func_task-friends-s06e24c",
      "SeriesNumber": 12,
      "SeriesTime": "114117.444000",
      "SliceLocation": -38.451128784113,
      "SliceThickness": 2.0,
      "SmallestImagePixelValue": 0,
      "SoftwareVersions": "syngo MR E11",
      "SpacingBetweenSlices": 2.0000000279219,
      "SpecificCharacterSet": "ISO_IR 100",
      "StudyID": "1",
      "StudyTime": "112245.534000",
      "TransmitCoilName": "Body",
      "VariableFlipAngleFlag": "N",
      "WindowCenterWidthExplanation": "Algo1",
      "dBdt": 0.0},
    "slices": {}
  },
  "time": {
    "samples": {
      "AcquisitionNumber": [1, 2, 3, 4, 5, 6, 7, 8, 9, 10, 11, 12, 13, 14, 15, 16, 17, 18, 19, 20, 21, 22, 23, 24, 25, 26, 27, 28, 29, 30, 31, 32, 33, 34, 35, 36, 37, 38, 39, 40, 41, 42, 43, 44, 45, 46, 47, 48, 49, 50, 51, 52, 53, 54, 55, 56, 57, 58, 59, 60, 61, 62, 63, 64, 65, 66, 67, 68, 69, 70, 71, 72, 73, 74, 75, 76, 77, 78, 79, 80, 81, 82, 83, 84, 85, 86, 87, 88, 89, 90, 91, 92, 93, 94, 95, 96, 97, 98, 99, 100, 101, 102, 103, 104, 105, 106, 107, 108, 109, 110, 111, 112, 113, 114, 115, 116, 117, 118, 119, 120, 121, 122, 123, 124, 125, 126, 127, 128, 129, 130, 131, 132, 133, 134, 135, 136, 137, 138, 139, 140, 141, 142, 143, 144, 145, 146, 147, 148, 149, 150, 151, 152, 153, 154, 155, 156, 157, 158, 159, 160, 161, 162, 163, 164, 165, 166, 167, 168, 169, 170, 171, 172, 173, 174, 175, 176, 177, 178, 179, 180, 181, 182, 183, 184, 185, 186, 187, 188, 189, 190, 191, 192, 193, 194, 195, 196, 197, 198, 199, 200, 201, 202, 203, 204, 205, 206, 207, 208, 209, 210, 211, 212, 213, 214, 215, 216, 217, 218, 219, 220, 221, 222, 223, 224, 225, 226, 227, 228, 229, 230, 231, 232, 233, 234, 235, 236, 237, 238, 239, 240, 241, 242, 243, 244, 245, 246, 247, 248, 249, 250, 251, 252, 253, 254, 255, 256, 257, 258, 259, 260, 261, 262, 263, 264, 265, 266, 267, 268, 269, 270, 271, 272, 273, 274, 275, 276, 277, 278, 279, 280, 281, 282, 283, 284, 285, 286, 287, 288, 289, 290, 291, 292, 293, 294, 295, 296, 297, 298, 299, 300, 301, 302, 303, 304, 305, 306, 307, 308, 309, 310, 311, 312, 313, 314, 315, 316, 317, 318, 319, 320, 321, 322, 323, 324, 325, 326, 327, 328, 329, 330, 331, 332, 333, 334, 335, 336, 337, 338, 339, 340, 341, 342, 343, 344, 345, 346, 347, 348, 349, 350, 351, 352, 353, 354, 355, 356, 357, 358, 359, 360, 361, 362, 363, 364, 365, 366, 367, 368, 369, 370, 371, 372, 373, 374, 375, 376, 377, 378, 379, 380, 381, 382, 383, 384, 385, 386, 387, 388, 389, 390, 391, 392, 393, 394, 395, 396, 397, 398, 399, 400, 401, 402, 403, 404, 405, 406, 407, 408, 409, 410, 411, 412, 413, 414, 415, 416, 417, 418, 419, 420, 421, 422, 423, 424, 425, 426, 427, 428, 429, 430, 431, 432, 433, 434, 435, 436, 437, 438, 439, 440, 441, 442, 443, 444, 445, 446, 447, 448, 449, 450, 451, 452, 453, 454, 455, 456, 457, 458, 459, 460, 461],
      "AcquisitionTime": ["114004.462500", "114005.952500", "114007.442500", "114008.932500", "114010.422500", "114011.912500", "114013.402500", "114014.892500", "114016.382500", "114017.872500", "114019.362500", "114020.852500", "114022.342500", "114023.832500", "114025.322500", "114026.812500", "114028.302500", "114029.792500", "114031.282500", "114032.772500", "114034.262500", "114035.752500", "114037.242500", "114038.732500", "114040.222500", "114041.712500", "114043.202500", "114044.692500", "114046.182500", "114047.672500", "114049.162500", "114050.652500", "114052.142500", "114053.632500", "114055.122500", "114056.612500", "114058.102500", "114059.592500", "114101.082500", "114102.572500", "114104.062500", "114105.552500", "114107.042500", "114108.532500", "114110.022500", "114111.512500", "114113.002500", "114114.492500", "114115.982500", "114117.472500", "114118.962500", "114120.452500", "114121.942500", "114123.432500", "114124.922500", "114126.412500", "114127.902500", "114129.392500", "114130.882500", "114132.372500", "114133.862500", "114135.352500", "114136.842500", "114138.332500", "114139.822500", "114141.312500", "114142.802500", "114144.292500", "114145.782500", "114147.272500", "114148.762500", "114150.252500", "114151.742500", "114153.232500", "114154.722500", "114156.212500", "114157.702500", "114159.192500", "114200.682500", "114202.172500", "114203.662500", "114205.152500", "114206.642500", "114208.132500", "114209.622500", "114211.112500", "114212.602500", "114214.092500", "114215.582500", "114217.072500", "114218.562500", "114220.052500", "114221.542500", "114223.032500", "114224.522500", "114226.012500", "114227.502500", "114228.992500", "114230.482500", "114231.972500", "114233.462500", "114234.952500", "114236.442500", "114237.932500", "114239.422500", "114240.912500", "114242.402500", "114243.892500", "114245.382500", "114246.872500", "114248.362500", "114249.852500", "114251.342500", "114252.832500", "114254.322500", "114255.812500", "114257.302500", "114258.792500", "114300.282500", "114301.772500", "114303.262500", "114304.752500", "114306.242500", "114307.732500", "114309.222500", "114310.712500", "114312.202500", "114313.692500", "114315.182500", "114316.672500", "114318.162500", "114319.652500", "114321.142500", "114322.632500", "114324.122500", "114325.612500", "114327.102500", "114328.592500", "114330.082500", "114331.572500", "114333.062500", "114334.552500", "114336.042500", "114337.532500", "114339.022500", "114340.512500", "114342.002500", "114343.492500", "114344.982500", "114346.472500", "114347.962500", "114349.452500", "114350.942500", "114352.432500", "114353.922500", "114355.412500", "114356.902500", "114358.392500", "114359.882500", "114401.372500", "114402.862500", "114404.352500", "114405.842500", "114407.332500", "114408.822500", "114410.312500", "114411.802500", "114413.292500", "114414.782500", "114416.272500", "114417.762500", "114419.252500", "114420.742500", "114422.232500", "114423.722500", "114425.212500", "114426.702500", "114428.192500", "114429.682500", "114431.172500", "114432.662500", "114434.152500", "114435.642500", "114437.132500", "114438.622500", "114440.112500", "114441.602500", "114443.092500", "114444.582500", "114446.072500", "114447.562500", "114449.052500", "114450.542500", "114452.032500", "114453.522500", "114455.012500", "114456.502500", "114457.992500", "114459.482500", "114500.972500", "114502.462500", "114503.952500", "114505.442500", "114506.932500", "114508.422500", "114509.912500", "114511.402500", "114512.892500", "114514.382500", "114515.872500", "114517.362500", "114518.852500", "114520.342500", "114521.832500", "114523.322500", "114524.812500", "114526.302500", "114527.792500", "114529.282500", "114530.772500", "114532.262500", "114533.752500", "114535.242500", "114536.732500", "114538.222500", "114539.712500", "114541.202500", "114542.692500", "114544.182500", "114545.672500", "114547.162500", "114548.652500", "114550.142500", "114551.632500", "114553.122500", "114554.612500", "114556.102500", "114557.592500", "114559.082500", "114600.572500", "114602.062500", "114603.552500", "114605.042500", "114606.532500", "114608.022500", "114609.512500", "114611.002500", "114612.492500", "114613.982500", "114615.472500", "114616.962500", "114618.452500", "114619.942500", "114621.432500", "114622.922500", "114624.412500", "114625.902500", "114627.392500", "114628.882500", "114630.372500", "114631.862500", "114633.352500", "114634.842500", "114636.332500", "114637.822500", "114639.312500", "114640.802500", "114642.292500", "114643.782500", "114645.272500", "114646.762500", "114648.252500", "114649.742500", "114651.232500", "114652.722500", "114654.212500", "114655.702500", "114657.192500", "114658.682500", "114700.172500", "114701.662500", "114703.152500", "114704.642500", "114706.132500", "114707.622500", "114709.112500", "114710.602500", "114712.092500", "114713.582500", "114715.072500", "114716.562500", "114718.052500", "114719.542500", "114721.032500", "114722.522500", "114724.012500", "114725.502500", "114726.992500", "114728.482500", "114729.972500", "114731.462500", "114732.952500", "114734.442500", "114735.932500", "114737.422500", "114738.912500", "114740.402500", "114741.892500", "114743.382500", "114744.872500", "114746.362500", "114747.852500", "114749.342500", "114750.832500", "114752.322500", "114753.812500", "114755.302500", "114756.792500", "114758.282500", "114759.772500", "114801.262500", "114802.752500", "114804.242500", "114805.732500", "114807.222500", "114808.712500", "114810.202500", "114811.692500", "114813.182500", "114814.672500", "114816.162500", "114817.652500", "114819.142500", "114820.632500", "114822.122500", "114823.612500", "114825.102500", "114826.592500", "114828.082500", "114829.572500", "114831.062500", "114832.552500", "114834.042500", "114835.532500", "114837.022500", "114838.512500", "114840.002500", "114841.492500", "114842.982500", "114844.472500", "114845.962500", "114847.452500", "114848.942500", "114850.432500", "114851.922500", "114853.412500", "114854.902500", "114856.392500", "114857.882500", "114859.372500", "114900.862500", "114902.352500", "114903.842500", "114905.332500", "114906.822500", "114908.312500", "114909.802500", "114911.292500", "114912.782500", "114914.272500", "114915.762500", "114917.252500", "114918.742500", "114920.232500", "114921.722500", "114923.212500", "114924.702500", "114926.192500", "114927.682500", "114929.172500", "114930.662500", "114932.152500", "114933.642500", "114935.132500", "114936.622500", "114938.112500", "114939.602500", "114941.092500", "114942.582500", "114944.072500", "114945.562500", "114947.052500", "114948.542500", "114950.032500", "114951.522500", "114953.012500", "114954.502500", "114955.992500", "114957.482500", "114958.972500", "115000.462500", "115001.952500", "115003.442500", "115004.932500", "115006.422500", "115007.912500", "115009.402500", "115010.892500", "115012.382500", "115013.872500", "115015.362500", "115016.852500", "115018.342500", "115019.832500", "115021.322500", "115022.812500", "115024.302500", "115025.792500", "115027.282500", "115028.772500", "115030.262500", "115031.752500", "115033.242500", "115034.732500", "115036.222500", "115037.712500", "115039.202500", "115040.692500", "115042.182500", "115043.672500", "115045.162500", "115046.652500", "115048.142500", "115049.632500", "115051.122500", "115052.612500", "115054.102500", "115055.592500", "115057.082500", "115058.572500", "115100.062500", "115101.552500", "115103.042500", "115104.532500", "115106.022500", "115107.512500", "115109.002500", "115110.492500", "115111.982500", "115113.472500", "115114.962500", "115116.452500", "115117.942500", "115119.432500", "115120.922500", "115122.412500", "115123.902500", "115125.392500", "115126.882500", "115128.372500", "115129.862500"],
      "ContentTime": ["114117.446000", "114117.450000", "114117.453000", "114117.456000", "114117.459000", "114117.461000", "114117.464000", "114117.467000", "114117.470000", "114117.473000", "114117.476000", "114117.485000", "114117.488000", "114117.491000", "114117.494000", "114117.497000", "114117.500000", "114117.503000", "114117.506000", "114117.509000", "114117.512000", "114117.515000", "114117.517000", "114117.520000", "114117.523000", "114137.414000", "114137.417000", "114137.420000", "114137.423000", "114137.426000", "114137.429000", "114137.432000", "114137.434000", "114137.437000", "114137.440000", "114137.443000", "114137.446000", "114137.449000", "114137.452000", "114137.455000", "114137.458000", "114137.468000", "114137.471000", "114137.474000", "114137.477000", "114157.414000", "114157.417000", "114157.420000", "114157.423000", "114157.426000", "114157.429000", "114157.447000", "114157.450000", "114157.453000", "114157.456000", "114157.459000", "114157.462000", "114157.465000", "114157.468000", "114157.471000", "114157.474000", "114157.476000", "114157.479000", "114157.482000", "114157.485000", "114217.414000", "114217.417000", "114217.420000", "114217.423000", "114217.426000", "114217.429000", "114217.432000", "114217.434000", "114217.437000", "114217.440000", "114217.443000", "114217.446000", "114217.449000", "114217.452000", "114217.455000", "114217.458000", "114217.461000", "114217.464000", "114217.466000", "114217.469000", "114257.413000", "114257.416000", "114257.419000", "114257.422000", "114257.425000", "114257.428000", "114257.431000", "114257.434000", "114257.437000", "114257.440000", "114257.443000", "114257.446000", "114257.448000", "114257.451000", "114257.454000", "114257.457000", "114257.460000", "114257.463000", "114257.466000", "114257.476000", "114257.479000", "114257.482000", "114257.490000", "114257.493000", "114257.495000", "114257.498000", "114257.501000", "114257.504000", "114257.507000", "114257.510000", "114337.414000", "114337.417000", "114337.420000", "114337.423000", "114337.426000", "114337.429000", "114337.432000", "114337.435000", "114337.437000", "114337.440000", "114337.443000", "114337.446000", "114337.449000", "114337.452000", "114337.455000", "114337.458000", "114337.461000", "114337.464000", "114337.467000", "114337.469000", "114337.472000", "114337.475000", "114337.478000", "114337.481000", "114337.484000", "114337.487000", "114337.490000", "114417.414000", "114417.417000", "114417.420000", "114417.423000", "114417.426000", "114417.429000", "114417.432000", "114417.434000", "114417.437000", "114417.440000", "114417.443000", "114417.446000", "114417.449000", "114417.452000", "114417.455000", "114417.458000", "114417.461000", "114417.464000", "114417.467000", "114417.470000", "114417.473000", "114417.475000", "114417.478000", "114417.481000", "114417.484000", "114417.487000", "114417.490000", "114457.413000", "114457.416000", "114457.419000", "114457.422000", "114457.425000", "114457.428000", "114457.431000", "114457.442000", "114457.445000", "114457.448000", "114457.450000", "114457.453000", "114457.456000", "114457.459000", "114457.462000", "114457.465000", "114457.468000", "114457.471000", "114457.474000", "114457.477000", "114457.480000", "114457.483000", "114457.486000", "114457.489000", "114457.491000", "114457.494000", "114457.497000", "114537.413000", "114537.416000", "114537.419000", "114537.422000", "114537.425000", "114537.428000", "114537.431000", "114537.434000", "114537.437000", "114537.440000", "114537.443000", "114537.446000", "114537.449000", "114537.452000", "114537.454000", "114537.457000", "114537.460000", "114537.463000", "114537.466000", "114537.469000", "114537.472000", "114537.475000", "114537.478000", "114537.481000", "114537.483000", "114537.486000", "114537.489000", "114617.414000", "114617.417000", "114617.420000", "114617.423000", "114617.426000", "114617.429000", "114617.432000", "114617.435000", "114617.438000", "114617.441000", "114617.444000", "114617.447000", "114617.450000", "114617.452000", "114617.455000", "114617.458000", "114617.461000", "114617.464000", "114617.467000", "114617.470000", "114617.473000", "114617.476000", "114617.479000", "114617.482000", "114617.495000", "114617.498000", "114617.500000", "114657.414000", "114657.417000", "114657.420000", "114657.423000", "114657.426000", "114657.429000", "114657.432000", "114657.435000", "114657.438000", "114657.441000", "114657.444000", "114657.447000", "114657.450000", "114657.453000", "114657.456000", "114657.459000", "114657.461000", "114657.464000", "114657.467000", "114657.470000", "114657.473000", "114657.476000", "114657.479000", "114657.482000", "114657.485000", "114657.488000", "114737.413000", "114737.416000", "114737.419000", "114737.422000", "114737.425000", "114737.428000", "114737.431000", "114737.434000", "114737.437000", "114737.440000", "114737.443000", "114737.446000", "114737.448000", "114737.451000", "114737.454000", "114737.457000", "114737.460000", "114737.463000", "114737.466000", "114737.469000", "114737.472000", "114737.475000", "114737.478000", "114737.480000", "114737.484000", "114737.487000", "114737.489000", "114817.414000", "114817.417000", "114817.420000", "114817.423000", "114817.426000", "114817.429000", "114817.432000", "114817.435000", "114817.438000", "114817.441000", "114817.444000", "114817.447000", "114817.449000", "114817.452000", "114817.455000", "114817.458000", "114817.461000", "114817.464000", "114817.467000", "114817.470000", "114817.473000", "114817.476000", "114817.479000", "114817.482000", "114817.485000", "114817.488000", "114817.491000", "114857.414000", "114857.417000", "114857.420000", "114857.423000", "114857.426000", "114857.429000", "114857.432000", "114857.435000", "114857.438000", "114857.441000", "114857.444000", "114857.447000", "114857.450000", "114857.453000", "114857.456000", "114857.459000", "114857.462000", "114857.464000", "114857.467000", "114857.470000", "114857.473000", "114857.476000", "114857.479000", "114857.482000", "114857.485000", "114857.488000", "114857.491000", "114937.413000", "114937.416000", "114937.419000", "114937.422000", "114937.425000", "114937.428000", "114937.431000", "114937.434000", "114937.437000", "114937.440000", "114937.443000", "114937.446000", "114937.449000", "114937.452000", "114937.454000", "114937.457000", "114937.460000", "114937.463000", "114937.466000", "114937.469000", "114937.472000", "114937.475000", "114937.478000", "114937.481000", "114937.484000", "114937.487000", "114937.490000", "115017.413000", "115017.416000", "115017.419000", "115017.422000", "115017.425000", "115017.428000", "115017.431000", "115017.434000", "115017.437000", "115017.440000", "115017.443000", "115017.446000", "115017.448000", "115017.451000", "115017.454000", "115017.457000", "115017.460000", "115017.467000", "115017.470000", "115017.473000", "115017.476000", "115017.479000", "115017.482000", "115017.484000", "115017.487000", "115017.490000", "115017.493000", "115057.414000", "115057.417000", "115057.420000", "115057.423000", "115057.426000", "115057.429000", "115057.432000", "115057.435000", "115057.438000", "115057.441000", "115057.444000", "115057.447000", "115057.450000", "115057.453000", "115057.455000", "115057.458000", "115057.461000", "115057.464000", "115057.467000", "115057.470000", "115057.484000", "115057.487000", "115057.490000", "115057.493000", "115057.496000", "115057.499000", "115057.502000", "115117.414000", "115117.417000", "115117.420000", "115117.423000", "115117.426000", "115117.429000", "115117.432000", "115117.435000", "115117.438000", "115117.441000", "115117.444000", "115117.447000", "115117.450000", "115131.615000", "115131.618000", "115131.621000", "115131.624000", "115131.627000", "115131.630000", "115131.633000", "115131.636000", "115131.639000", "115131.642000"],
