{
  "AcquisitionMatrixPE": 104,
  "AcquisitionNumber": 1,
  "AcquisitionTime": "14:09:56.617500",
  "BandwidthPerPixelPhaseEncode": 17.17,
  "BaseResolution": 104,
  "BodyPartExamined": "BRAIN",
  "CoilCombinationMethod": "Sum of Squares",
  "ConsistencyInfo": "N4_VE11C_LATEST_20160120",
  "ConversionSoftware": "dcm2niix",
  "ConversionSoftwareVersion": "v1.0.20230411",
  "DerivedVendorReportedEchoSpacing": 0.000560011,
  "DeviceSerialNumber": "167006",
  "DwellTime": 2.1e-06,
  "EchoTime": 0.037,
  "EchoTrainLength": 104,
  "EffectiveEchoSpacing": 0.000560011,
  "FlipAngle": 52,
  "HeudiconvVersion": "0.5.3.post861+ge7d3c7f",
  "ImageComments": "Unaliased MB4/PE3/LB",
  "ImageOrientationPatientDICOM": [0.999471, -0.00993941, -0.0309501, 0.00122105, 0.962915, -0.269802],
  "ImageOrientationText": "Tra>Cor(-15.7)>Sag(-1.9)",
  "ImageType": [
    "ORIGINAL",
    "PRIMARY",
    "M",
    "MB",
    "ND",
    "MOSAIC"
],
  "ImagingFrequency": 123.249726,
  "InPlanePhaseEncodingDirectionDICOM": "COL",
  "InstitutionAddress": "Chemin Queen-Mary 4565,Montreal,District,CA,H3W 1W5",
  "InstitutionName": "Institut Universitaire de Geriatrie de Montreal",
  "InstitutionalDepartmentName": "Department",
  "MRAcquisitionType": "2D",
  "MagneticFieldStrength": 3,
  "Manufacturer": "Siemens",
  "ManufacturersModelName": "Prisma_fit",
  "MatrixCoilMode": "SENSE",
  "Modality": "MR",
  "MultibandAccelerationFactor": 4,
  "NonlinearGradientCorrection": false,
  "PartialFourier": 1,
  "PatientPosition": "HFS",
  "PercentPhaseFOV": 100,
  "PercentSampling": 100,
  "PhaseEncodingDirection": "j",
  "PhaseEncodingSteps": 104,
  "PhaseResolution": 1,
  "PixelBandwidth": 2290,
  "ProcedureStepDescription": "video^friends",
  "ProtocolName": "func_task-friends-s07e15a",
  "PulseSequenceDetails": "%CustomerSeq%\\cmrr_mbep2d_bold",
  "ReceiveCoilActiveElements": "HC1-7;NC1,2",
  "ReceiveCoilName": "HeadNeck_64",
  "ReconMatrixPE": 104,
  "RepetitionTime": 1.49,
  "SAR": 0.0708695,
  "ScanOptions": "FS",
  "ScanningSequence": "EP",
  "SequenceName": "epfid2d1_104",
  "SequenceVariant": "SK\\SS",
  "SeriesDescription": "func_task-friends-s07e15a",
  "SeriesNumber": 10,
  "ShimSetting": [594, -7252, -8765, 657, 44, -50, 1, 39],
  "SliceThickness": 2,
  "SliceTiming": [0, 0.785, 0.0975, 0.8825, 0.195, 0.98, 0.295, 1.0775, 0.3925, 1.175, 0.49, 1.275, 0.5875, 1.3725, 0.685, 0, 0.785, 0.0975, 0.8825, 0.195, 0.98, 0.295, 1.0775, 0.3925, 1.175, 0.49, 1.275, 0.5875, 1.3725, 0.685, 0, 0.785, 0.0975, 0.8825, 0.195, 0.98, 0.295, 1.0775, 0.3925, 1.175, 0.49, 1.275, 0.5875, 1.3725, 0.685, 0, 0.785, 0.0975, 0.8825, 0.195, 0.98, 0.295, 1.0775, 0.3925, 1.175, 0.49, 1.275, 0.5875, 1.3725, 0.685],
  "SoftwareVersions": "syngo MR E11",
  "SpacingBetweenSlices": 2,
  "StationName": "MRC35049",
  "TaskName": "s07e15a",
  "TotalReadoutTime": 0.0576811,
  "TxRefAmp": 249.99,
  "WipMemBlock": "19667110-6fd7-44b1-b836-ce99a8b5402a||Sequence: R017 ve11c/master r/75a17815+; Jun 28 2022 16:32:11 by eja",
  "dcmmeta_affine": [
    [-1.9989429712295532, 0.00244210846722126, -0.06496801972389221, 106.5530014038086],
    [0.0198788121342659, 1.9258302450180054, -0.539242684841156, -83.98818969726562],
    [-0.061900243163108826, 0.5396034121513367, 1.9248367547988892, -54.0325927734375],
    [0.0, 0.0, 0.0, 1.0]
],
  "dcmmeta_reorient_transform": [
    [0.0, -1.0, 0.0, 103.0],
    [1.0, 0.0, 0.0, 0.0],
    [0.0, 0.0, 1.0, 0.0],
    [0.0, 0.0, 0.0, 1.0]
],
  "dcmmeta_shape": [104, 104, 60, 566],
  "dcmmeta_slice_dim": 2,
  "dcmmeta_version": 0.6,
  "global": {
    "const": {
      "AcquisitionMatrix": [104, 0, 0, 104],
      "AngioFlag": "N",
      "BitsAllocated": 16,
      "BitsStored": 16,
      "BodyPartExamined": "BRAIN",
      "Columns": 832,
      "EchoNumbers": 1,
      "EchoTime": 37.0,
      "EchoTrainLength": 104,
      "FlipAngle": 52.0,
      "HighBit": 15,
      "ImageOrientationPatient": [0.99947150941697, -0.0099394062258, -0.0309501222558, 0.00122105424348, 0.96291513104592, -0.2698017039037],
      "ImagePositionPatient": [-835.3087259164, -808.13865667276, 220.49388903941],
      "ImageType": [
        "ORIGINAL",
        "PRIMARY",
        "M",
        "MB",
        "ND",
        "MOSAIC"
],
      "ImagedNucleus": "1H",
      "ImagingFrequency": 123.249726,
      "InPlanePhaseEncodingDirection": "COL",
      "MRAcquisitionType": "2D",
      "MagneticFieldStrength": 3.0,
      "Manufacturer": "SIEMENS",
      "ManufacturerModelName": "Prisma_fit",
      "Modality": "MR",
      "NumberOfAverages": 1.0,
      "NumberOfPhaseEncodingSteps": 104,
      "PercentPhaseFieldOfView": 100.0,
      "PercentSampling": 100.0,
      "PerformedProcedureStepStartTime": "140514.080000",
      "PhotometricInterpretation": "MONOCHROME2",
      "PixelBandwidth": 2290.0,
      "PixelRepresentation": 0,
      "PixelSpacing": [2.0, 2.0],
      "ProtocolName": "func_task-friends-s07e15a",
      "RepetitionTime": 1490.0,
      "Rows": 832,
      "SAR": 0.07086948678943,
      "SamplesPerPixel": 1,
      "ScanOptions": "FS",
      "ScanningSequence": "EP",
      "SequenceName": "epfid2d1_104",
      "SequenceVariant": [
        "SK",
        "SS"
],
      "SeriesDescription": "func_task-friends-s07e15a",
      "SeriesNumber": 10,
      "SeriesTime": "141055.128000",
      "SliceLocation": -32.818221160335,
      "SliceThickness": 2.0,
      "SmallestImagePixelValue": 0,
      "SoftwareVersions": "syngo MR E11",
      "SpacingBetweenSlices": 2.0000000307823,
      "SpecificCharacterSet": "ISO_IR 100",
      "StudyID": "1",
      "StudyTime": "140513.958000",
      "TransmitCoilName": "Body",
      "VariableFlipAngleFlag": "N",
      "WindowCenterWidthExplanation": "Algo1",
      "dBdt": 0.0},
    "slices": {}
  },
  "time": {
    "samples": {
      "AcquisitionNumber": [1, 2, 3, 4, 5, 6, 7, 8, 9, 10, 11, 12, 13, 14, 15, 16, 17, 18, 19, 20, 21, 22, 23, 24, 25, 26, 27, 28, 29, 30, 31, 32, 33, 34, 35, 36, 37, 38, 39, 40, 41, 42, 43, 44, 45, 46, 47, 48, 49, 50, 51, 52, 53, 54, 55, 56, 57, 58, 59, 60, 61, 62, 63, 64, 65, 66, 67, 68, 69, 70, 71, 72, 73, 74, 75, 76, 77, 78, 79, 80, 81, 82, 83, 84, 85, 86, 87, 88, 89, 90, 91, 92, 93, 94, 95, 96, 97, 98, 99, 100, 101, 102, 103, 104, 105, 106, 107, 108, 109, 110, 111, 112, 113, 114, 115, 116, 117, 118, 119, 120, 121, 122, 123, 124, 125, 126, 127, 128, 129, 130, 131, 132, 133, 134, 135, 136, 137, 138, 139, 140, 141, 142, 143, 144, 145, 146, 147, 148, 149, 150, 151, 152, 153, 154, 155, 156, 157, 158, 159, 160, 161, 162, 163, 164, 165, 166, 167, 168, 169, 170, 171, 172, 173, 174, 175, 176, 177, 178, 179, 180, 181, 182, 183, 184, 185, 186, 187, 188, 189, 190, 191, 192, 193, 194, 195, 196, 197, 198, 199, 200, 201, 202, 203, 204, 205, 206, 207, 208, 209, 210, 211, 212, 213, 214, 215, 216, 217, 218, 219, 220, 221, 222, 223, 224, 225, 226, 227, 228, 229, 230, 231, 232, 233, 234, 235, 236, 237, 238, 239, 240, 241, 242, 243, 244, 245, 246, 247, 248, 249, 250, 251, 252, 253, 254, 255, 256, 257, 258, 259, 260, 261, 262, 263, 264, 265, 266, 267, 268, 269, 270, 271, 272, 273, 274, 275, 276, 277, 278, 279, 280, 281, 282, 283, 284, 285, 286, 287, 288, 289, 290, 291, 292, 293, 294, 295, 296, 297, 298, 299, 300, 301, 302, 303, 304, 305, 306, 307, 308, 309, 310, 311, 312, 313, 314, 315, 316, 317, 318, 319, 320, 321, 322, 323, 324, 325, 326, 327, 328, 329, 330, 331, 332, 333, 334, 335, 336, 337, 338, 339, 340, 341, 342, 343, 344, 345, 346, 347, 348, 349, 350, 351, 352, 353, 354, 355, 356, 357, 358, 359, 360, 361, 362, 363, 364, 365, 366, 367, 368, 369, 370, 371, 372, 373, 374, 375, 376, 377, 378, 379, 380, 381, 382, 383, 384, 385, 386, 387, 388, 389, 390, 391, 392, 393, 394, 395, 396, 397, 398, 399, 400, 401, 402, 403, 404, 405, 406, 407, 408, 409, 410, 411, 412, 413, 414, 415, 416, 417, 418, 419, 420, 421, 422, 423, 424, 425, 426, 427, 428, 429, 430, 431, 432, 433, 434, 435, 436, 437, 438, 439, 440, 441, 442, 443, 444, 445, 446, 447, 448, 449, 450, 451, 452, 453, 454, 455, 456, 457, 458, 459, 460, 461, 462, 463, 464, 465, 466, 467, 468, 469, 470, 471, 472, 473, 474, 475, 476, 477, 478, 479, 480, 481, 482, 483, 484, 485, 486, 487, 488, 489, 490, 491, 492, 493, 494, 495, 496, 497, 498, 499, 500, 501, 502, 503, 504, 505, 506, 507, 508, 509, 510, 511, 512, 513, 514, 515, 516, 517, 518, 519, 520, 521, 522, 523, 524, 525, 526, 527, 528, 529, 530, 531, 532, 533, 534, 535, 536, 537, 538, 539, 540, 541, 542, 543, 544, 545, 546, 547, 548, 549, 550, 551, 552, 553, 554, 555, 556, 557, 558, 559, 560, 561, 562, 563, 564, 565, 566],
      "AcquisitionTime": ["140956.617500", "140958.107500", "140959.597500", "141001.087500", "141002.577500", "141004.067500", "141005.557500", "141007.047500", "141008.537500", "141010.027500", "141011.517500", "141013.007500", "141014.497500", "141015.987500", "141017.477500", "141018.967500", "141020.457500", "141021.947500", "141023.437500", "141024.927500", "141026.417500", "141027.907500", "141029.397500", "141030.887500", "141032.377500", "141033.867500", "141035.357500", "141036.847500", "141038.337500", "141039.827500", "141041.317500", "141042.807500", "141044.297500", "141045.787500", "141047.277500", "141048.767500", "141050.257500", "141051.747500", "141053.237500", "141054.727500", "141056.217500", "141057.707500", "141059.197500", "141100.687500", "141102.177500", "141103.667500", "141105.157500", "141106.647500", "141108.137500", "141109.627500", "141111.117500", "141112.607500", "141114.097500", "141115.587500", "141117.077500", "141118.567500", "141120.057500", "141121.547500", "141123.037500", "141124.527500", "141126.017500", "141127.507500", "141128.997500", "141130.487500", "141131.977500", "141133.467500", "141134.957500", "141136.447500", "141137.937500", "141139.427500", "141140.917500", "141142.407500", "141143.897500", "141145.387500", "141146.877500", "141148.367500", "141149.857500", "141151.347500", "141152.837500", "141154.327500", "141155.817500", "141157.307500", "141158.797500", "141200.287500", "141201.777500", "141203.267500", "141204.757500", "141206.247500", "141207.737500", "141209.227500", "141210.717500", "141212.207500", "141213.697500", "141215.187500", "141216.677500", "141218.167500", "141219.657500", "141221.147500", "141222.637500", "141224.127500", "141225.617500", "141227.107500", "141228.597500", "141230.087500", "141231.577500", "141233.067500", "141234.557500", "141236.047500", "141237.537500", "141239.027500", "141240.517500", "141242.007500", "141243.497500", "141244.987500", "141246.477500", "141247.967500", "141249.457500", "141250.947500", "141252.437500", "141253.927500", "141255.417500", "141256.907500", "141258.397500", "141259.887500", "141301.377500", "141302.867500", "141304.357500", "141305.847500", "141307.337500", "141308.827500", "141310.317500", "141311.807500", "141313.297500", "141314.787500", "141316.277500", "141317.767500", "141319.257500", "141320.747500", "141322.237500", "141323.727500", "141325.217500", "141326.707500", "141328.197500", "141329.687500", "141331.177500", "141332.667500", "141334.157500", "141335.647500", "141337.137500", "141338.627500", "141340.117500", "141341.607500", "141343.097500", "141344.587500", "141346.077500", "141347.567500", "141349.057500", "141350.547500", "141352.037500", "141353.527500", "141355.017500", "141356.507500", "141357.997500", "141359.487500", "141400.977500", "141402.467500", "141403.957500", "141405.447500", "141406.937500", "141408.427500", "141409.917500", "141411.407500", "141412.897500", "141414.387500", "141415.877500", "141417.367500", "141418.857500", "141420.347500", "141421.837500", "141423.327500", "141424.817500", "141426.307500", "141427.797500", "141429.287500", "141430.777500", "141432.267500", "141433.757500", "141435.247500", "141436.737500", "141438.227500", "141439.717500", "141441.207500", "141442.697500", "141444.187500", "141445.677500", "141447.167500", "141448.657500", "141450.147500", "141451.637500", "141453.127500", "141454.617500", "141456.107500", "141457.597500", "141459.087500", "141500.577500", "141502.067500", "141503.557500", "141505.047500", "141506.537500", "141508.027500", "141509.517500", "141511.007500", "141512.497500", "141513.987500", "141515.477500", "141516.967500", "141518.457500", "141519.947500", "141521.437500", "141522.927500", "141524.417500", "141525.907500", "141527.397500", "141528.887500", "141530.377500", "141531.867500", "141533.357500", "141534.847500", "141536.337500", "141537.827500", "141539.317500", "141540.807500", "141542.297500", "141543.787500", "141545.277500", "141546.767500", "141548.257500", "141549.747500", "141551.237500", "141552.727500", "141554.217500", "141555.707500", "141557.197500", "141558.687500", "141600.177500", "141601.667500", "141603.157500", "141604.647500", "141606.137500", "141607.627500", "141609.117500", "141610.607500", "141612.097500", "141613.587500", "141615.077500", "141616.567500", "141618.057500", "141619.547500", "141621.037500", "141622.527500", "141624.017500", "141625.507500", "141626.997500", "141628.487500", "141629.977500", "141631.467500", "141632.957500", "141634.447500", "141635.937500", "141637.427500", "141638.917500", "141640.407500", "141641.897500", "141643.387500", "141644.877500", "141646.367500", "141647.857500", "141649.347500", "141650.837500", "141652.327500", "141653.817500", "141655.307500", "141656.797500", "141658.287500", "141659.777500", "141701.267500", "141702.757500", "141704.247500", "141705.737500", "141707.227500", "141708.717500", "141710.207500", "141711.697500", "141713.187500", "141714.677500", "141716.167500", "141717.657500", "141719.147500", "141720.637500", "141722.127500", "141723.617500", "141725.107500", "141726.597500", "141728.087500", "141729.577500", "141731.067500", "141732.557500", "141734.047500", "141735.537500", "141737.027500", "141738.517500", "141740.007500", "141741.497500", "141742.987500", "141744.477500", "141745.967500", "141747.457500", "141748.947500", "141750.437500", "141751.927500", "141753.417500", "141754.907500", "141756.397500", "141757.887500", "141759.377500", "141800.867500", "141802.357500", "141803.847500", "141805.337500", "141806.827500", "141808.317500", "141809.807500", "141811.297500", "141812.787500", "141814.277500", "141815.767500", "141817.257500", "141818.747500", "141820.237500", "141821.727500", "141823.217500", "141824.707500", "141826.197500", "141827.687500", "141829.177500", "141830.667500", "141832.157500", "141833.647500", "141835.137500", "141836.627500", "141838.117500", "141839.607500", "141841.097500", "141842.587500", "141844.077500", "141845.567500", "141847.057500", "141848.547500", "141850.037500", "141851.527500", "141853.017500", "141854.507500", "141855.997500", "141857.487500", "141858.977500", "141900.467500", "141901.957500", "141903.447500", "141904.937500", "141906.427500", "141907.917500", "141909.407500", "141910.897500", "141912.387500", "141913.877500", "141915.367500", "141916.857500", "141918.347500", "141919.837500", "141921.327500", "141922.817500", "141924.307500", "141925.797500", "141927.287500", "141928.777500", "141930.267500", "141931.757500", "141933.247500", "141934.737500", "141936.227500", "141937.717500", "141939.207500", "141940.697500", "141942.187500", "141943.677500", "141945.167500", "141946.657500", "141948.147500", "141949.637500", "141951.127500", "141952.617500", "141954.107500", "141955.597500", "141957.087500", "141958.577500", "142000.067500", "142001.557500", "142003.047500", "142004.537500", "142006.027500", "142007.517500", "142009.007500", "142010.497500", "142011.987500", "142013.477500", "142014.967500", "142016.457500", "142017.947500", "142019.437500", "142020.927500", "142022.417500", "142023.907500", "142025.397500", "142026.887500", "142028.377500", "142029.867500", "142031.357500", "142032.847500", "142034.337500", "142035.827500", "142037.317500", "142038.807500", "142040.297500", "142041.787500", "142043.277500", "142044.767500", "142046.257500", "142047.747500", "142049.237500", "142050.727500", "142052.217500", "142053.707500", "142055.197500", "142056.687500", "142058.177500", "142059.667500", "142101.157500", "142102.647500", "142104.137500", "142105.627500", "142107.117500", "142108.607500", "142110.097500", "142111.587500", "142113.077500", "142114.567500", "142116.057500", "142117.547500", "142119.037500", "142120.527500", "142122.017500", "142123.507500", "142124.997500", "142126.487500", "142127.977500", "142129.467500", "142130.957500", "142132.447500", "142133.937500", "142135.427500", "142136.917500", "142138.407500", "142139.897500", "142141.387500", "142142.877500", "142144.367500", "142145.857500", "142147.347500", "142148.837500", "142150.327500", "142151.817500", "142153.307500", "142154.797500", "142156.287500", "142157.777500", "142159.267500", "142200.757500", "142202.247500", "142203.737500", "142205.227500", "142206.717500", "142208.207500", "142209.697500", "142211.187500", "142212.677500", "142214.167500", "142215.657500", "142217.147500", "142218.637500", "142220.127500", "142221.617500", "142223.107500", "142224.597500", "142226.087500", "142227.577500", "142229.067500", "142230.557500", "142232.047500", "142233.537500", "142235.027500", "142236.517500", "142238.007500", "142239.497500", "142240.987500", "142242.477500", "142243.967500", "142245.457500", "142246.947500", "142248.437500", "142249.927500", "142251.417500", "142252.907500", "142254.397500", "142255.887500", "142257.377500", "142258.867500", "142300.357500", "142301.847500", "142303.337500", "142304.827500", "142306.317500", "142307.807500", "142309.297500", "142310.787500", "142312.277500", "142313.767500", "142315.257500", "142316.747500", "142318.237500", "142319.727500", "142321.217500", "142322.707500", "142324.197500", "142325.687500", "142327.177500", "142328.667500", "142330.157500", "142331.647500", "142333.137500", "142334.627500", "142336.117500", "142337.607500", "142339.097500", "142340.587500", "142342.077500", "142343.567500", "142345.057500", "142346.547500", "142348.037500", "142349.527500", "142351.017500", "142352.507500", "142353.997500", "142355.487500", "142356.977500", "142358.467500"],
      "ContentTime": ["141055.131000", "141055.134000", "141055.157000", "141055.161000", "141055.164000", "141055.167000", "141055.170000", "141055.173000", "141055.175000", "141115.100000", "141115.103000", "141115.105000", "141115.109000", "141115.111000", "141115.121000", "141115.124000", "141115.127000", "141115.129000", "141115.132000", "141115.135000", "141115.138000", "141115.141000", "141115.144000", "141115.146000", "141115.149000", "141115.152000", "141115.155000", "141115.158000", "141115.161000", "141115.163000", "141135.100000", "141135.103000", "141135.106000", "141135.109000", "141135.111000", "141135.114000", "141135.117000", "141135.120000", "141135.123000", "141135.125000", "141135.128000", "141135.131000", "141135.134000", "141135.137000", "141135.140000", "141135.142000", "141135.145000", "141135.148000", "141135.151000", "141135.154000", "141155.100000", "141155.103000", "141155.106000", "141155.117000", "141155.120000", "141155.123000", "141155.125000", "141155.128000", "141155.131000", "141155.134000", "141155.137000", "141155.140000", "141155.142000", "141155.145000", "141155.148000", "141155.151000", "141155.154000", "141155.157000", "141155.159000", "141155.162000", "141215.100000", "141215.103000", "141215.106000", "141215.109000", "141215.111000", "141215.114000", "141215.117000", "141215.120000", "141215.123000", "141215.125000", "141215.128000", "141215.140000", "141215.143000", "141215.146000", "141215.149000", "141215.151000", "141215.154000", "141215.157000", "141215.160000", "141215.163000", "141255.101000", "141255.104000", "141255.107000", "141255.109000", "141255.112000", "141255.115000", "141255.118000", "141255.121000", "141255.124000", "141255.127000", "141255.129000", "141255.132000", "141255.135000", "141255.138000", "141255.141000", "141255.143000", "141255.147000", "141255.149000", "141255.152000", "141255.155000", "141255.158000", "141255.160000", "141255.163000", "141255.166000", "141255.169000", "141255.172000", "141255.175000", "141255.178000", "141255.181000", "141335.100000", "141335.103000", "141335.106000", "141335.109000", "141335.111000", "141335.114000", "141335.117000", "141335.120000", "141335.123000", "141335.126000", "141335.128000", "141335.131000", "141335.134000", "141335.137000", "141335.140000", "141335.143000", "141335.145000", "141335.148000", "141335.151000", "141335.154000", "141335.157000", "141335.160000", "141335.162000", "141335.165000", "141335.168000", "141335.171000", "141335.173000", "141415.100000", "141415.103000", "141415.106000", "141415.108000", "141415.111000", "141415.114000", "141415.117000", "141415.120000", "141415.123000", "141415.126000", "141415.128000", "141415.131000", "141415.134000", "141415.137000", "141415.140000", "141415.143000", "141415.150000", "141415.153000", "141415.156000", "141415.159000", "141415.162000", "141415.164000", "141415.167000", "141415.170000", "141415.173000", "141415.176000", "141415.179000", "141455.108000", "141455.111000", "141455.114000", "141455.117000", "141455.120000", "141455.123000", "141455.126000", "141455.129000", "141455.131000", "141455.134000", "141455.137000", "141455.140000", "141455.143000", "141455.146000", "141455.148000", "141455.151000", "141455.154000", "141455.157000", "141455.160000", "141455.163000", "141455.166000", "141455.168000", "141455.171000", "141455.174000", "141455.177000", "141455.180000", "141455.183000", "141535.100000", "141535.110000", "141535.113000", "141535.116000", "141535.119000", "141535.122000", "141535.125000", "141535.127000", "141535.130000", "141535.133000", "141535.136000", "141535.139000", "141535.142000", "141535.144000", "141535.148000", "141535.150000", "141535.153000", "141535.156000", "141535.159000", "141535.162000", "141535.164000", "141535.167000", "141535.170000", "141535.173000", "141535.176000", "141535.179000", "141535.182000", "141615.100000", "141615.103000", "141615.106000", "141615.109000", "141615.112000", "141615.114000", "141615.117000", "141615.120000", "141615.123000", "141615.126000", "141615.129000", "141615.132000", "141615.134000", "141615.137000", "141615.141000", "141615.144000", "141615.147000", "141615.150000", "141615.152000", "141615.155000", "141615.158000", "141615.161000", "141615.164000", "141615.167000", "141615.170000", "141615.172000", "141655.100000", "141655.103000", "141655.106000", "141655.109000", "141655.112000", "141655.114000", "141655.117000", "141655.120000", "141655.123000", "141655.126000", "141655.129000", "141655.131000", "141655.134000", "141655.137000", "141655.140000", "141655.143000", "141655.146000", "141655.148000", "141655.151000", "141655.154000", "141655.157000", "141655.160000", "141655.163000", "141655.166000", "141655.168000", "141655.171000", "141655.174000", "141735.101000", "141735.104000", "141735.107000", "141735.110000", "141735.113000", "141735.115000", "141735.118000", "141735.121000", "141735.124000", "141735.127000", "141735.130000", "141735.132000", "141735.135000", "141735.138000", "141735.141000", "141735.144000", "141735.147000", "141735.150000", "141735.152000", "141735.155000", "141735.158000", "141735.161000", "141735.164000", "141735.167000", "141735.170000", "141735.173000", "141735.176000", "141755.100000", "141755.103000", "141755.106000", "141755.109000", "141755.112000", "141755.115000", "141755.117000", "141755.120000", "141755.123000", "141755.126000", "141755.129000", "141755.132000", "141755.135000", "141835.100000", "141835.103000", "141835.106000", "141835.108000", "141835.111000", "141835.114000", "141835.117000", "141835.120000", "141835.123000", "141835.125000", "141835.128000", "141835.131000", "141835.134000", "141835.137000", "141835.140000", "141835.143000", "141835.146000", "141835.148000", "141835.151000", "141835.154000", "141835.157000", "141835.160000", "141835.163000", "141835.166000", "141835.168000", "141835.171000", "141835.174000", "141915.100000", "141915.103000", "141915.106000", "141915.108000", "141915.111000", "141915.114000", "141915.117000", "141915.120000", "141915.123000", "141915.125000", "141915.128000", "141915.131000", "141915.134000", "141915.137000", "141915.150000", "141915.153000", "141915.156000", "141915.159000", "141915.162000", "141915.164000", "141915.167000", "141915.171000", "141915.174000", "141915.177000", "141915.179000", "141915.182000", "141915.185000", "141955.101000", "141955.104000", "141955.107000", "141955.109000", "141955.112000", "141955.115000", "141955.118000", "141955.121000", "141955.124000", "141955.127000", "141955.130000", "141955.132000", "141955.135000", "141955.138000", "141955.141000", "141955.144000", "141955.147000", "141955.150000", "141955.153000", "141955.155000", "141955.158000", "141955.161000", "141955.164000", "141955.167000", "141955.170000", "141955.172000", "141955.175000", "142035.101000", "142035.104000", "142035.107000", "142035.110000", "142035.113000", "142035.116000", "142035.119000", "142035.122000", "142035.124000", "142035.127000", "142035.130000", "142035.133000", "142035.136000", "142035.138000", "142035.141000", "142035.144000", "142035.147000", "142035.150000", "142035.153000", "142035.156000", "142035.159000", "142035.161000", "142035.164000", "142035.167000", "142035.170000", "142035.173000", "142035.176000", "142115.100000", "142115.103000", "142115.111000", "142115.114000", "142115.117000", "142115.120000", "142115.123000", "142115.126000", "142115.128000", "142115.131000", "142115.134000", "142115.137000", "142115.140000", "142115.143000", "142115.160000", "142115.163000", "142115.166000", "142115.169000", "142115.172000", "142115.174000", "142115.177000", "142115.180000", "142115.183000", "142115.186000", "142115.189000", "142115.192000", "142115.195000", "142155.101000", "142155.104000", "142155.107000", "142155.110000", "142155.113000", "142155.116000", "142155.119000", "142155.121000", "142155.124000", "142155.127000", "142155.130000", "142155.133000", "142155.136000", "142155.139000", "142155.142000", "142155.144000", "142155.147000", "142155.150000", "142155.153000", "142155.156000", "142155.158000", "142155.161000", "142155.164000", "142155.167000", "142155.170000", "142155.173000", "142155.175000", "142235.100000", "142235.103000", "142235.106000", "142235.109000", "142235.112000", "142235.114000", "142235.117000", "142235.120000", "142235.123000", "142235.126000", "142235.129000", "142235.131000", "142235.134000", "142235.137000", "142235.140000", "142235.143000", "142235.146000", "142235.149000", "142235.151000", "142235.154000", "142235.157000", "142235.160000", "142235.163000", "142235.166000", "142235.168000", "142235.171000", "142315.100000", "142315.103000", "142315.106000", "142315.109000", "142315.112000", "142315.115000", "142315.117000", "142315.120000", "142315.123000", "142315.126000", "142315.129000", "142315.132000", "142315.134000", "142315.137000", "142315.140000", "142315.143000", "142315.146000", "142315.149000", "142315.152000", "142315.154000", "142315.157000", "142315.160000", "142315.163000", "142315.166000", "142315.168000", "142315.171000", "142315.174000", "142355.101000", "142355.104000", "142355.107000", "142355.110000", "142355.113000", "142355.116000", "142355.118000", "142355.121000", "142355.124000", "142355.127000", "142355.130000", "142355.133000", "142355.136000", "142355.138000", "142355.141000", "142355.144000", "142355.147000", "142355.150000", "142355.153000", "142355.156000", "142355.158000", "142355.161000", "142355.164000", "142355.167000", "142355.170000", "142355.173000", "142355.175000", "142400.200000", "142400.203000", "142400.205000", "142400.208000"],
