{
  "AcquisitionMatrixPE": 104,
  "AcquisitionNumber": 1,
  "AcquisitionTime": "13:28:13.430000",
  "BandwidthPerPixelPhaseEncode": 17.17,
  "BaseResolution": 104,
  "BodyPartExamined": "BRAIN",
  "CoilString": "HC1-7;NC1_2",
  "ConsistencyInfo": "N4_VE11C_LATEST_20160120",
  "ConversionSoftware": "dcm2niix",
  "ConversionSoftwareVersion": "v1.0.20190902",
  "DerivedVendorReportedEchoSpacing": 0.000560011,
  "DeviceSerialNumber": "167006",
  "DwellTime": 2.1e-06,
  "EchoTime": 0.037,
  "EchoTrainLength": 104,
  "EffectiveEchoSpacing": 0.000560011,
  "FlipAngle": 52,
  "ImageComments": "Unaliased_MB4_PE3_LB",
  "ImageOrientationPatientDICOM": [0.999925, -0.00787335, -0.00934285, 0.00523569, 0.967037, -0.254583],
  "ImageType": [
    "ORIGINAL",
    "PRIMARY",
    "M",
    "MB",
    "ND",
    "MOSAIC"
],
  "ImagingFrequency": 123.259,
  "InPlanePhaseEncodingDirectionDICOM": "COL",
  "InstitutionAddress": "Chemin_Queen-Mary_4565_Montreal_District_CA_H3W_1W5",
  "InstitutionName": "IUGM",
  "InstitutionalDepartmentName": "Department",
  "MRAcquisitionType": "2D",
  "MagneticFieldStrength": 3,
  "Manufacturer": "Siemens",
  "ManufacturersModelName": "Prisma_fit",
  "Modality": "MR",
  "MultibandAccelerationFactor": 4,
  "PartialFourier": 1,
  "PatientPosition": "HFS",
  "PercentPhaseFOV": 100,
  "PhaseEncodingDirection": "j",
  "PhaseEncodingSteps": 104,
  "PhaseResolution": 1,
  "PixelBandwidth": 2290,
  "ProcedureStepDescription": "video_friends",
  "ProtocolName": "func_task-friends-s04e21a",
  "PulseSequenceDetails": "%CustomerSeq%_cmrr_mbep2d_bold",
  "ReceiveCoilActiveElements": "HC1-7;NC1,2",
  "ReceiveCoilName": "HeadNeck_64",
  "ReconMatrixPE": 104,
  "RepetitionTime": 1.49,
  "SAR": 0.0281274,
  "ScanOptions": "FS",
  "ScanningSequence": "EP",
  "SequenceName": "epfid2d1_104",
  "SequenceVariant": "SK_SS",
  "SeriesDescription": "func_task-friends-s04e21a",
  "SeriesNumber": 13,
  "ShimSetting": [626, -7218, -8805, 734, 12, 0, 132, -14],
  "SliceThickness": 2,
  "SliceTiming": [0, 0.7825, 0.0975, 0.8825, 0.195, 0.98, 0.2925, 1.0775, 0.3925, 1.175, 0.49, 1.2725, 0.5875, 1.3725, 0.685, 0, 0.7825, 0.0975, 0.8825, 0.195, 0.98, 0.2925, 1.0775, 0.3925, 1.175, 0.49, 1.2725, 0.5875, 1.3725, 0.685, 0, 0.7825, 0.0975, 0.8825, 0.195, 0.98, 0.2925, 1.0775, 0.3925, 1.175, 0.49, 1.2725, 0.5875, 1.3725, 0.685, 0, 0.7825, 0.0975, 0.8825, 0.195, 0.98, 0.2925, 1.0775, 0.3925, 1.175, 0.49, 1.2725, 0.5875, 1.3725, 0.685],
  "SoftwareVersions": "syngo_MR_E11",
  "SpacingBetweenSlices": 2,
  "StationName": "MRC35049",
  "TaskName": "s04e21a",
  "TotalReadoutTime": 0.0576811,
  "TxRefAmp": 205.637,
  "WipMemBlock": "c68102f5-9cab-439c-95b3-9f17bd502ae6||Sequence: R016 ve11c/master r/e634e98; Dec 19 2017 11:00:25 by eja",
  "dcmmeta_affine": [
    [-1.9998507499694824, 0.010471371933817863, -0.02207859419286251, 104.94100189208984],
    [0.01574670895934105, 1.934073567390442, -0.509029746055603, -84.72757720947266],
    [-0.01868569292128086, 0.5091655850410461, 1.934011697769165, -62.073219299316406],
    [0.0, 0.0, 0.0, 1.0]
],
  "dcmmeta_reorient_transform": [
    [0.0, -1.0, 0.0, 103.0],
    [1.0, 0.0, 0.0, 0.0],
    [0.0, 0.0, 1.0, 0.0],
    [0.0, 0.0, 0.0, 1.0]
],
  "dcmmeta_shape": [104, 104, 60, 448],
  "dcmmeta_slice_dim": 2,
  "dcmmeta_version": 0.6,
  "global": {
    "const": {
      "AcquisitionMatrix": [104, 0, 0, 104],
      "AngioFlag": "N",
      "BitsAllocated": 16,
      "BitsStored": 16,
      "BodyPartExamined": "BRAIN",
      "Columns": 832,
      "EchoNumbers": 1,
      "EchoTime": 37.0,
      "EchoTrainLength": 104,
      "FlipAngle": 52.0,
      "HighBit": 15,
      "ImageOrientationPatient": [0.99992535797126, -0.0078733541351, -0.0093428464995, 0.0052356861527, 0.96703680974023, -0.2545827884951],
      "ImagePositionPatient": [-837.77679289033, -812.75300183073, 182.50869759038],
      "ImageType": [
        "ORIGINAL",
        "PRIMARY",
        "M",
        "MB",
        "ND",
        "MOSAIC"
],
      "ImagedNucleus": "1H",
      "ImagingFrequency": 123.259059,
      "InPlanePhaseEncodingDirection": "COL",
      "MRAcquisitionType": "2D",
      "MagneticFieldStrength": 3.0,
      "Manufacturer": "SIEMENS",
      "ManufacturerModelName": "Prisma_fit",
      "Modality": "MR",
      "NumberOfAverages": 1.0,
      "NumberOfPhaseEncodingSteps": 104,
      "PercentPhaseFieldOfView": 100.0,
      "PercentSampling": 100.0,
      "PerformedProcedureStepStartTime": "124719.634000",
      "PhotometricInterpretation": "MONOCHROME2",
      "PixelBandwidth": 2290.0,
      "PixelRepresentation": 0,
      "PixelSpacing": [2.0, 2.0],
      "ProtocolName": "func_task-friends-s04e21a",
      "RepetitionTime": 1490.0,
      "Rows": 832,
      "SAR": 0.02812736165336,
      "SamplesPerPixel": 1,
      "ScanOptions": "FS",
      "ScanningSequence": "EP",
      "SequenceName": "epfid2d1_104",
      "SequenceVariant": [
        "SK",
        "SS"
],
      "SeriesDescription": "func_task-friends-s04e21a",
      "SeriesNumber": 13,
      "SeriesTime": "132919.489000",
      "SliceLocation": -39.619212788883,
      "SliceThickness": 2.0,
      "SmallestImagePixelValue": 0,
      "SoftwareVersions": "syngo MR E11",
      "SpacingBetweenSlices": 1.9999999861787,
      "SpecificCharacterSet": "ISO_IR 100",
      "StudyID": "1",
      "StudyTime": "124719.531000",
      "TransmitCoilName": "Body",
      "VariableFlipAngleFlag": "N",
      "WindowCenterWidthExplanation": "Algo1",
      "dBdt": 0.0},
    "slices": {}
  },
  "time": {
    "samples": {
      "AcquisitionNumber": [1, 2, 3, 4, 5, 6, 7, 8, 9, 10, 11, 12, 13, 14, 15, 16, 17, 18, 19, 20, 21, 22, 23, 24, 25, 26, 27, 28, 29, 30, 31, 32, 33, 34, 35, 36, 37, 38, 39, 40, 41, 42, 43, 44, 45, 46, 47, 48, 49, 50, 51, 52, 53, 54, 55, 56, 57, 58, 59, 60, 61, 62, 63, 64, 65, 66, 67, 68, 69, 70, 71, 72, 73, 74, 75, 76, 77, 78, 79, 80, 81, 82, 83, 84, 85, 86, 87, 88, 89, 90, 91, 92, 93, 94, 95, 96, 97, 98, 99, 100, 101, 102, 103, 104, 105, 106, 107, 108, 109, 110, 111, 112, 113, 114, 115, 116, 117, 118, 119, 120, 121, 122, 123, 124, 125, 126, 127, 128, 129, 130, 131, 132, 133, 134, 135, 136, 137, 138, 139, 140, 141, 142, 143, 144, 145, 146, 147, 148, 149, 150, 151, 152, 153, 154, 155, 156, 157, 158, 159, 160, 161, 162, 163, 164, 165, 166, 167, 168, 169, 170, 171, 172, 173, 174, 175, 176, 177, 178, 179, 180, 181, 182, 183, 184, 185, 186, 187, 188, 189, 190, 191, 192, 193, 194, 195, 196, 197, 198, 199, 200, 201, 202, 203, 204, 205, 206, 207, 208, 209, 210, 211, 212, 213, 214, 215, 216, 217, 218, 219, 220, 221, 222, 223, 224, 225, 226, 227, 228, 229, 230, 231, 232, 233, 234, 235, 236, 237, 238, 239, 240, 241, 242, 243, 244, 245, 246, 247, 248, 249, 250, 251, 252, 253, 254, 255, 256, 257, 258, 259, 260, 261, 262, 263, 264, 265, 266, 267, 268, 269, 270, 271, 272, 273, 274, 275, 276, 277, 278, 279, 280, 281, 282, 283, 284, 285, 286, 287, 288, 289, 290, 291, 292, 293, 294, 295, 296, 297, 298, 299, 300, 301, 302, 303, 304, 305, 306, 307, 308, 309, 310, 311, 312, 313, 314, 315, 316, 317, 318, 319, 320, 321, 322, 323, 324, 325, 326, 327, 328, 329, 330, 331, 332, 333, 334, 335, 336, 337, 338, 339, 340, 341, 342, 343, 344, 345, 346, 347, 348, 349, 350, 351, 352, 353, 354, 355, 356, 357, 358, 359, 360, 361, 362, 363, 364, 365, 366, 367, 368, 369, 370, 371, 372, 373, 374, 375, 376, 377, 378, 379, 380, 381, 382, 383, 384, 385, 386, 387, 388, 389, 390, 391, 392, 393, 394, 395, 396, 397, 398, 399, 400, 401, 402, 403, 404, 405, 406, 407, 408, 409, 410, 411, 412, 413, 414, 415, 416, 417, 418, 419, 420, 421, 422, 423, 424, 425, 426, 427, 428, 429, 430, 431, 432, 433, 434, 435, 436, 437, 438, 439, 440, 441, 442, 443, 444, 445, 446, 447, 448],
      "AcquisitionTime": ["132813.430000", "132814.920000", "132816.410000", "132817.900000", "132819.390000", "132820.880000", "132822.370000", "132823.860000", "132825.350000", "132826.840000", "132828.330000", "132829.820000", "132831.310000", "132832.800000", "132834.290000", "132835.780000", "132837.270000", "132838.760000", "132840.250000", "132841.740000", "132843.230000", "132844.720000", "132846.210000", "132847.700000", "132849.190000", "132850.680000", "132852.170000", "132853.660000", "132855.150000", "132856.640000", "132858.130000", "132859.620000", "132901.110000", "132902.600000", "132904.090000", "132905.580000", "132907.070000", "132908.560000", "132910.050000", "132911.540000", "132913.030000", "132914.520000", "132916.010000", "132917.500000", "132918.990000", "132920.480000", "132921.970000", "132923.460000", "132924.950000", "132926.440000", "132927.930000", "132929.420000", "132930.910000", "132932.400000", "132933.890000", "132935.380000", "132936.870000", "132938.360000", "132939.850000", "132941.340000", "132942.830000", "132944.320000", "132945.810000", "132947.300000", "132948.790000", "132950.280000", "132951.770000", "132953.260000", "132954.750000", "132956.240000", "132957.730000", "132959.220000", "133000.710000", "133002.200000", "133003.690000", "133005.180000", "133006.670000", "133008.160000", "133009.650000", "133011.140000", "133012.630000", "133014.120000", "133015.610000", "133017.100000", "133018.590000", "133020.080000", "133021.570000", "133023.060000", "133024.550000", "133026.040000", "133027.530000", "133029.020000", "133030.510000", "133032.000000", "133033.490000", "133034.980000", "133036.470000", "133037.960000", "133039.450000", "133040.940000", "133042.430000", "133043.920000", "133045.410000", "133046.900000", "133048.390000", "133049.880000", "133051.370000", "133052.860000", "133054.350000", "133055.840000", "133057.330000", "133058.820000", "133100.310000", "133101.800000", "133103.290000", "133104.780000", "133106.270000", "133107.760000", "133109.250000", "133110.740000", "133112.230000", "133113.720000", "133115.210000", "133116.700000", "133118.190000", "133119.680000", "133121.170000", "133122.660000", "133124.150000", "133125.640000", "133127.130000", "133128.620000", "133130.110000", "133131.600000", "133133.090000", "133134.580000", "133136.070000", "133137.560000", "133139.050000", "133140.540000", "133142.030000", "133143.520000", "133145.010000", "133146.500000", "133147.990000", "133149.480000", "133150.970000", "133152.460000", "133153.950000", "133155.440000", "133156.930000", "133158.420000", "133159.910000", "133201.400000", "133202.890000", "133204.380000", "133205.870000", "133207.360000", "133208.850000", "133210.340000", "133211.830000", "133213.320000", "133214.810000", "133216.300000", "133217.790000", "133219.280000", "133220.770000", "133222.260000", "133223.750000", "133225.240000", "133226.730000", "133228.220000", "133229.710000", "133231.200000", "133232.690000", "133234.180000", "133235.670000", "133237.160000", "133238.650000", "133240.140000", "133241.630000", "133243.120000", "133244.610000", "133246.100000", "133247.590000", "133249.080000", "133250.570000", "133252.060000", "133253.550000", "133255.040000", "133256.530000", "133258.020000", "133259.510000", "133301.000000", "133302.490000", "133303.980000", "133305.470000", "133306.960000", "133308.450000", "133309.940000", "133311.430000", "133312.920000", "133314.410000", "133315.900000", "133317.390000", "133318.880000", "133320.370000", "133321.860000", "133323.350000", "133324.840000", "133326.330000", "133327.820000", "133329.310000", "133330.800000", "133332.290000", "133333.780000", "133335.270000", "133336.760000", "133338.250000", "133339.740000", "133341.230000", "133342.720000", "133344.210000", "133345.700000", "133347.190000", "133348.680000", "133350.170000", "133351.660000", "133353.150000", "133354.640000", "133356.130000", "133357.620000", "133359.110000", "133400.600000", "133402.090000", "133403.580000", "133405.070000", "133406.560000", "133408.050000", "133409.540000", "133411.030000", "133412.520000", "133414.010000", "133415.500000", "133416.990000", "133418.480000", "133419.970000", "133421.460000", "133422.950000", "133424.440000", "133425.930000", "133427.420000", "133428.910000", "133430.400000", "133431.890000", "133433.380000", "133434.870000", "133436.360000", "133437.850000", "133439.340000", "133440.830000", "133442.320000", "133443.810000", "133445.300000", "133446.790000", "133448.280000", "133449.770000", "133451.260000", "133452.750000", "133454.240000", "133455.730000", "133457.220000", "133458.710000", "133500.200000", "133501.690000", "133503.180000", "133504.670000", "133506.160000", "133507.650000", "133509.140000", "133510.630000", "133512.120000", "133513.610000", "133515.100000", "133516.590000", "133518.080000", "133519.570000", "133521.060000", "133522.550000", "133524.040000", "133525.530000", "133527.020000", "133528.510000", "133530.000000", "133531.490000", "133532.980000", "133534.470000", "133535.960000", "133537.450000", "133538.940000", "133540.430000", "133541.920000", "133543.410000", "133544.900000", "133546.390000", "133547.880000", "133549.370000", "133550.860000", "133552.350000", "133553.840000", "133555.330000", "133556.820000", "133558.310000", "133559.800000", "133601.290000", "133602.780000", "133604.270000", "133605.760000", "133607.250000", "133608.740000", "133610.230000", "133611.720000", "133613.210000", "133614.700000", "133616.190000", "133617.680000", "133619.170000", "133620.660000", "133622.150000", "133623.640000", "133625.130000", "133626.620000", "133628.110000", "133629.600000", "133631.090000", "133632.580000", "133634.070000", "133635.560000", "133637.050000", "133638.540000", "133640.030000", "133641.520000", "133643.010000", "133644.500000", "133645.990000", "133647.480000", "133648.970000", "133650.460000", "133651.950000", "133653.440000", "133654.930000", "133656.420000", "133657.910000", "133659.400000", "133700.890000", "133702.380000", "133703.870000", "133705.360000", "133706.850000", "133708.340000", "133709.830000", "133711.320000", "133712.810000", "133714.300000", "133715.790000", "133717.280000", "133718.770000", "133720.260000", "133721.750000", "133723.240000", "133724.730000", "133726.220000", "133727.710000", "133729.200000", "133730.690000", "133732.180000", "133733.670000", "133735.160000", "133736.650000", "133738.140000", "133739.630000", "133741.120000", "133742.610000", "133744.100000", "133745.590000", "133747.080000", "133748.570000", "133750.060000", "133751.550000", "133753.040000", "133754.530000", "133756.020000", "133757.510000", "133759.000000", "133800.490000", "133801.980000", "133803.470000", "133804.960000", "133806.450000", "133807.940000", "133809.430000", "133810.920000", "133812.410000", "133813.900000", "133815.390000", "133816.880000", "133818.370000", "133819.860000", "133821.350000", "133822.840000", "133824.330000", "133825.820000", "133827.310000", "133828.800000", "133830.290000", "133831.780000", "133833.270000", "133834.760000", "133836.250000", "133837.740000", "133839.230000", "133840.720000", "133842.210000", "133843.700000", "133845.190000", "133846.680000", "133848.170000", "133849.660000", "133851.150000", "133852.640000", "133854.130000", "133855.620000", "133857.110000", "133858.600000", "133900.090000", "133901.580000", "133903.070000", "133904.560000", "133906.050000", "133907.540000", "133909.030000", "133910.520000", "133912.010000", "133913.500000", "133914.990000", "133916.480000", "133917.970000", "133919.460000"],
      "ContentTime": ["132919.491000", "132919.494000", "132919.519000", "132919.522000", "132919.525000", "132919.528000", "132919.531000", "132919.533000", "132919.536000", "132919.539000", "132919.542000", "132919.545000", "132939.452000", "132939.455000", "132939.458000", "132939.461000", "132939.463000", "132939.466000", "132939.469000", "132939.472000", "132939.475000", "132939.478000", "132939.481000", "132939.484000", "132939.499000", "132939.502000", "132939.505000", "132939.508000", "132939.510000", "132939.513000", "132939.516000", "132939.519000", "132959.452000", "132959.455000", "132959.458000", "132959.461000", "132959.463000", "132959.466000", "132959.469000", "132959.472000", "132959.475000", "132959.478000", "132959.481000", "132959.484000", "132959.486000", "132959.489000", "132959.492000", "132959.495000", "132959.498000", "132959.501000", "132959.504000", "132959.507000", "133019.452000", "133019.455000", "133019.458000", "133019.461000", "133019.463000", "133019.466000", "133019.469000", "133019.472000", "133019.475000", "133019.478000", "133019.481000", "133019.484000", "133019.487000", "133019.489000", "133019.492000", "133019.495000", "133019.498000", "133019.501000", "133019.504000", "133019.507000", "133039.452000", "133039.455000", "133039.458000", "133039.461000", "133039.477000", "133039.479000", "133039.482000", "133039.485000", "133039.488000", "133039.491000", "133039.494000", "133039.497000", "133039.500000", "133039.502000", "133039.505000", "133039.508000", "133039.511000", "133039.514000", "133039.517000", "133039.520000", "133119.453000", "133119.456000", "133119.459000", "133119.462000", "133119.465000", "133119.467000", "133119.470000", "133119.480000", "133119.482000", "133119.485000", "133119.488000", "133119.491000", "133119.494000", "133119.497000", "133119.500000", "133119.503000", "133119.506000", "133119.508000", "133119.511000", "133119.514000", "133119.517000", "133119.520000", "133119.523000", "133119.526000", "133119.529000", "133119.531000", "133119.534000", "133119.537000", "133119.540000", "133119.543000", "133119.546000", "133119.549000", "133159.452000", "133159.455000", "133159.458000", "133159.463000", "133159.466000", "133159.469000", "133159.472000", "133159.475000", "133159.478000", "133159.481000", "133159.483000", "133159.486000", "133159.489000", "133159.492000", "133159.495000", "133159.498000", "133159.501000", "133159.504000", "133159.507000", "133159.509000", "133159.512000", "133159.515000", "133159.518000", "133159.521000", "133159.524000", "133159.527000", "133159.530000", "133239.452000", "133239.455000", "133239.458000", "133239.461000", "133239.464000", "133239.467000", "133239.470000", "133239.473000", "133239.476000", "133239.478000", "133239.481000", "133239.484000", "133239.487000", "133239.492000", "133239.495000", "133239.498000", "133239.501000", "133239.504000", "133239.507000", "133239.510000", "133239.513000", "133239.516000", "133239.519000", "133239.521000", "133239.524000", "133239.527000", "133239.530000", "133319.453000", "133319.456000", "133319.459000", "133319.462000", "133319.465000", "133319.468000", "133319.470000", "133319.473000", "133319.476000", "133319.479000", "133319.482000", "133319.485000", "133319.488000", "133319.492000", "133319.495000", "133319.497000", "133319.500000", "133319.503000", "133319.506000", "133319.509000", "133319.512000", "133319.515000", "133319.517000", "133319.520000", "133319.523000", "133319.526000", "133359.453000", "133359.456000", "133359.459000", "133359.462000", "133359.465000", "133359.468000", "133359.471000", "133359.473000", "133359.476000", "133359.479000", "133359.482000", "133359.485000", "133359.488000", "133359.491000", "133359.494000", "133359.496000", "133359.499000", "133359.514000", "133359.517000", "133359.519000", "133359.522000", "133359.525000", "133359.528000", "133359.531000", "133359.534000", "133359.537000", "133359.539000", "133439.452000", "133439.455000", "133439.458000", "133439.460000", "133439.464000", "133439.466000", "133439.469000", "133439.472000", "133439.475000", "133439.478000", "133439.481000", "133439.484000", "133439.487000", "133439.489000", "133439.492000", "133439.495000", "133439.498000", "133439.501000", "133439.504000", "133439.507000", "133439.510000", "133439.513000", "133439.516000", "133439.519000", "133439.522000", "133439.525000", "133439.527000", "133519.452000", "133519.455000", "133519.458000", "133519.461000", "133519.464000", "133519.467000", "133519.469000", "133519.472000", "133519.475000", "133519.478000", "133519.481000", "133519.484000", "133519.487000", "133519.490000", "133519.492000", "133519.496000", "133519.499000", "133519.501000", "133519.504000", "133519.507000", "133519.510000", "133519.513000", "133519.516000", "133519.519000", "133519.521000", "133519.524000", "133519.527000", "133559.453000", "133559.456000", "133559.459000", "133559.462000", "133559.465000", "133559.468000", "133559.471000", "133559.473000", "133559.476000", "133559.479000", "133559.482000", "133559.485000", "133559.488000", "133559.491000", "133559.494000", "133559.497000", "133559.499000", "133559.502000", "133559.505000", "133559.508000", "133559.511000", "133559.514000", "133559.517000", "133559.520000", "133559.522000", "133559.525000", "133559.528000", "133639.452000", "133639.455000", "133639.458000", "133639.461000", "133639.464000", "133639.467000", "133639.470000", "133639.472000", "133639.475000", "133639.478000", "133639.481000", "133639.484000", "133639.487000", "133639.490000", "133639.493000", "133639.496000", "133639.498000", "133639.502000", "133639.504000", "133639.507000", "133639.510000", "133639.513000", "133639.516000", "133639.519000", "133639.522000", "133639.525000", "133639.528000", "133719.452000", "133719.455000", "133719.458000", "133719.461000", "133719.464000", "133719.466000", "133719.470000", "133719.472000", "133719.475000", "133719.478000", "133719.481000", "133719.484000", "133719.487000", "133719.490000", "133719.493000", "133719.496000", "133719.499000", "133719.502000", "133719.505000", "133719.508000", "133719.512000", "133719.515000", "133719.518000", "133719.521000", "133719.524000", "133719.527000", "133759.453000", "133759.456000", "133759.459000", "133759.462000", "133759.465000", "133759.467000", "133759.471000", "133759.473000", "133759.476000", "133759.479000", "133759.482000", "133759.485000", "133759.488000", "133759.491000", "133759.494000", "133759.497000", "133759.499000", "133759.502000", "133759.505000", "133759.508000", "133759.511000", "133759.514000", "133759.517000", "133759.520000", "133759.522000", "133759.525000", "133759.528000", "133839.453000", "133839.456000", "133839.459000", "133839.462000", "133839.465000", "133839.468000", "133839.471000", "133839.473000", "133839.476000", "133839.479000", "133839.482000", "133839.485000", "133839.488000", "133839.504000", "133839.507000", "133839.510000", "133839.513000", "133839.516000", "133839.519000", "133839.522000", "133839.524000", "133839.527000", "133839.530000", "133839.533000", "133839.536000", "133839.539000", "133839.542000", "133919.452000", "133919.455000", "133919.458000", "133919.461000", "133919.464000", "133919.466000", "133919.469000", "133919.472000", "133919.475000", "133919.478000", "133919.481000", "133919.484000", "133919.487000", "133919.490000", "133919.493000", "133919.496000", "133919.499000", "133919.501000", "133919.504000", "133919.507000", "133919.510000", "133919.513000", "133919.516000", "133919.519000", "133919.522000", "133919.525000", "133919.527000", "133921.738000", "133921.741000"],
