{
  "AcquisitionMatrixPE": 104,
  "AcquisitionNumber": 1,
  "AcquisitionTime": "13:16:38.612500",
  "BandwidthPerPixelPhaseEncode": 17.17,
  "BaseResolution": 104,
  "BodyPartExamined": "BRAIN",
  "CoilString": "HC1-7;NC1_2",
  "ConsistencyInfo": "N4_VE11C_LATEST_20160120",
  "ConversionSoftware": "dcm2niix",
  "ConversionSoftwareVersion": "v1.0.20190902",
  "DerivedVendorReportedEchoSpacing": 0.000560011,
  "DeviceSerialNumber": "167006",
  "DwellTime": 2.1e-06,
  "EchoTime": 0.037,
  "EchoTrainLength": 104,
  "EffectiveEchoSpacing": 0.000560011,
  "FlipAngle": 52,
  "ImageComments": "Unaliased_MB4_PE3_LB",
  "ImageOrientationPatientDICOM": [0.999925, -0.00787335, -0.00934285, 0.00523569, 0.967037, -0.254583],
  "ImageType": [
    "ORIGINAL",
    "PRIMARY",
    "M",
    "MB",
    "ND",
    "MOSAIC"
],
  "ImagingFrequency": 123.259,
  "InPlanePhaseEncodingDirectionDICOM": "COL",
  "InstitutionAddress": "Chemin_Queen-Mary_4565_Montreal_District_CA_H3W_1W5",
  "InstitutionName": "IUGM",
  "InstitutionalDepartmentName": "Department",
  "MRAcquisitionType": "2D",
  "MagneticFieldStrength": 3,
  "Manufacturer": "Siemens",
  "ManufacturersModelName": "Prisma_fit",
  "Modality": "MR",
  "MultibandAccelerationFactor": 4,
  "PartialFourier": 1,
  "PatientPosition": "HFS",
  "PercentPhaseFOV": 100,
  "PhaseEncodingDirection": "j",
  "PhaseEncodingSteps": 104,
  "PhaseResolution": 1,
  "PixelBandwidth": 2290,
  "ProcedureStepDescription": "video_friends",
  "ProtocolName": "func_task-friends-s04e20b",
  "PulseSequenceDetails": "%CustomerSeq%_cmrr_mbep2d_bold",
  "ReceiveCoilActiveElements": "HC1-7;NC1,2",
  "ReceiveCoilName": "HeadNeck_64",
  "ReconMatrixPE": 104,
  "RepetitionTime": 1.49,
  "SAR": 0.0281271,
  "ScanOptions": "FS",
  "ScanningSequence": "EP",
  "SequenceName": "epfid2d1_104",
  "SequenceVariant": "SK_SS",
  "SeriesDescription": "func_task-friends-s04e20b",
  "SeriesNumber": 11,
  "ShimSetting": [626, -7218, -8805, 734, 12, 0, 132, -14],
  "SliceThickness": 2,
  "SliceTiming": [0, 0.785, 0.0975, 0.8825, 0.195, 0.98, 0.295, 1.0775, 0.3925, 1.175, 0.49, 1.275, 0.5875, 1.3725, 0.685, 0, 0.785, 0.0975, 0.8825, 0.195, 0.98, 0.295, 1.0775, 0.3925, 1.175, 0.49, 1.275, 0.5875, 1.3725, 0.685, 0, 0.785, 0.0975, 0.8825, 0.195, 0.98, 0.295, 1.0775, 0.3925, 1.175, 0.49, 1.275, 0.5875, 1.3725, 0.685, 0, 0.785, 0.0975, 0.8825, 0.195, 0.98, 0.295, 1.0775, 0.3925, 1.175, 0.49, 1.275, 0.5875, 1.3725, 0.685],
  "SoftwareVersions": "syngo_MR_E11",
  "SpacingBetweenSlices": 2,
  "StationName": "MRC35049",
  "TaskName": "s04e20b",
  "TotalReadoutTime": 0.0576811,
  "TxRefAmp": 205.637,
  "WipMemBlock": "c4812f9d-cccc-4b98-8ecb-7753432a50bd||Sequence: R016 ve11c/master r/e634e98; Dec 19 2017 11:00:25 by eja",
  "dcmmeta_affine": [
    [-1.9998507499694824, 0.010471371933817863, -0.02207859419286251, 104.94100189208984],
    [0.01574670895934105, 1.934073567390442, -0.509029746055603, -84.72757720947266],
    [-0.01868569292128086, 0.5091655850410461, 1.934011697769165, -62.073219299316406],
    [0.0, 0.0, 0.0, 1.0]
],
  "dcmmeta_reorient_transform": [
    [0.0, -1.0, 0.0, 103.0],
    [1.0, 0.0, 0.0, 0.0],
    [0.0, 0.0, 1.0, 0.0],
    [0.0, 0.0, 0.0, 1.0]
],
  "dcmmeta_shape": [104, 104, 60, 447],
  "dcmmeta_slice_dim": 2,
  "dcmmeta_version": 0.6,
  "global": {
    "const": {
      "AcquisitionMatrix": [104, 0, 0, 104],
      "AngioFlag": "N",
      "BitsAllocated": 16,
      "BitsStored": 16,
      "BodyPartExamined": "BRAIN",
      "Columns": 832,
      "EchoNumbers": 1,
      "EchoTime": 37.0,
      "EchoTrainLength": 104,
      "FlipAngle": 52.0,
      "HighBit": 15,
      "ImageOrientationPatient": [0.99992535797126, -0.0078733541351, -0.0093428464995, 0.0052356861527, 0.96703680974023, -0.2545827884951],
      "ImagePositionPatient": [-837.77679289033, -812.75300183073, 182.50869759038],
      "ImageType": [
        "ORIGINAL",
        "PRIMARY",
        "M",
        "MB",
        "ND",
        "MOSAIC"
],
      "ImagedNucleus": "1H",
      "ImagingFrequency": 123.259051,
      "InPlanePhaseEncodingDirection": "COL",
      "MRAcquisitionType": "2D",
      "MagneticFieldStrength": 3.0,
      "Manufacturer": "SIEMENS",
      "ManufacturerModelName": "Prisma_fit",
      "Modality": "MR",
      "NumberOfAverages": 1.0,
      "NumberOfPhaseEncodingSteps": 104,
      "PercentPhaseFieldOfView": 100.0,
      "PercentSampling": 100.0,
      "PerformedProcedureStepStartTime": "124719.634000",
      "PhotometricInterpretation": "MONOCHROME2",
      "PixelBandwidth": 2290.0,
      "PixelRepresentation": 0,
      "PixelSpacing": [2.0, 2.0],
      "ProtocolName": "func_task-friends-s04e20b",
      "RepetitionTime": 1490.0,
      "Rows": 832,
      "SAR": 0.02812708609136,
      "SamplesPerPixel": 1,
      "ScanOptions": "FS",
      "ScanningSequence": "EP",
      "SequenceName": "epfid2d1_104",
      "SequenceVariant": [
        "SK",
        "SS"
],
      "SeriesDescription": "func_task-friends-s04e20b",
      "SeriesNumber": 11,
      "SeriesTime": "131754.033000",
      "SliceLocation": -39.619212788883,
      "SliceThickness": 2.0,
      "SmallestImagePixelValue": 0,
      "SoftwareVersions": "syngo MR E11",
      "SpacingBetweenSlices": 1.9999999861787,
      "SpecificCharacterSet": "ISO_IR 100",
      "StudyID": "1",
      "StudyTime": "124719.531000",
      "TransmitCoilName": "Body",
      "VariableFlipAngleFlag": "N",
      "WindowCenterWidthExplanation": "Algo1",
      "dBdt": 0.0},
    "slices": {}
  },
  "time": {
    "samples": {
      "AcquisitionNumber": [1, 2, 3, 4, 5, 6, 7, 8, 9, 10, 11, 12, 13, 14, 15, 16, 17, 18, 19, 20, 21, 22, 23, 24, 25, 26, 27, 28, 29, 30, 31, 32, 33, 34, 35, 36, 37, 38, 39, 40, 41, 42, 43, 44, 45, 46, 47, 48, 49, 50, 51, 52, 53, 54, 55, 56, 57, 58, 59, 60, 61, 62, 63, 64, 65, 66, 67, 68, 69, 70, 71, 72, 73, 74, 75, 76, 77, 78, 79, 80, 81, 82, 83, 84, 85, 86, 87, 88, 89, 90, 91, 92, 93, 94, 95, 96, 97, 98, 99, 100, 101, 102, 103, 104, 105, 106, 107, 108, 109, 110, 111, 112, 113, 114, 115, 116, 117, 118, 119, 120, 121, 122, 123, 124, 125, 126, 127, 128, 129, 130, 131, 132, 133, 134, 135, 136, 137, 138, 139, 140, 141, 142, 143, 144, 145, 146, 147, 148, 149, 150, 151, 152, 153, 154, 155, 156, 157, 158, 159, 160, 161, 162, 163, 164, 165, 166, 167, 168, 169, 170, 171, 172, 173, 174, 175, 176, 177, 178, 179, 180, 181, 182, 183, 184, 185, 186, 187, 188, 189, 190, 191, 192, 193, 194, 195, 196, 197, 198, 199, 200, 201, 202, 203, 204, 205, 206, 207, 208, 209, 210, 211, 212, 213, 214, 215, 216, 217, 218, 219, 220, 221, 222, 223, 224, 225, 226, 227, 228, 229, 230, 231, 232, 233, 234, 235, 236, 237, 238, 239, 240, 241, 242, 243, 244, 245, 246, 247, 248, 249, 250, 251, 252, 253, 254, 255, 256, 257, 258, 259, 260, 261, 262, 263, 264, 265, 266, 267, 268, 269, 270, 271, 272, 273, 274, 275, 276, 277, 278, 279, 280, 281, 282, 283, 284, 285, 286, 287, 288, 289, 290, 291, 292, 293, 294, 295, 296, 297, 298, 299, 300, 301, 302, 303, 304, 305, 306, 307, 308, 309, 310, 311, 312, 313, 314, 315, 316, 317, 318, 319, 320, 321, 322, 323, 324, 325, 326, 327, 328, 329, 330, 331, 332, 333, 334, 335, 336, 337, 338, 339, 340, 341, 342, 343, 344, 345, 346, 347, 348, 349, 350, 351, 352, 353, 354, 355, 356, 357, 358, 359, 360, 361, 362, 363, 364, 365, 366, 367, 368, 369, 370, 371, 372, 373, 374, 375, 376, 377, 378, 379, 380, 381, 382, 383, 384, 385, 386, 387, 388, 389, 390, 391, 392, 393, 394, 395, 396, 397, 398, 399, 400, 401, 402, 403, 404, 405, 406, 407, 408, 409, 410, 411, 412, 413, 414, 415, 416, 417, 418, 419, 420, 421, 422, 423, 424, 425, 426, 427, 428, 429, 430, 431, 432, 433, 434, 435, 436, 437, 438, 439, 440, 441, 442, 443, 444, 445, 446, 447],
      "AcquisitionTime": ["131638.612500", "131640.102500", "131641.592500", "131643.082500", "131644.572500", "131646.062500", "131647.552500", "131649.042500", "131650.532500", "131652.022500", "131653.512500", "131655.002500", "131656.492500", "131657.982500", "131659.472500", "131700.962500", "131702.452500", "131703.942500", "131705.432500", "131706.922500", "131708.412500", "131709.902500", "131711.392500", "131712.882500", "131714.372500", "131715.862500", "131717.352500", "131718.842500", "131720.332500", "131721.822500", "131723.312500", "131724.802500", "131726.292500", "131727.782500", "131729.272500", "131730.762500", "131732.252500", "131733.742500", "131735.232500", "131736.722500", "131738.212500", "131739.702500", "131741.192500", "131742.682500", "131744.172500", "131745.662500", "131747.152500", "131748.642500", "131750.132500", "131751.622500", "131753.112500", "131754.602500", "131756.092500", "131757.582500", "131759.072500", "131800.562500", "131802.052500", "131803.542500", "131805.032500", "131806.522500", "131808.012500", "131809.502500", "131810.992500", "131812.482500", "131813.972500", "131815.462500", "131816.952500", "131818.442500", "131819.932500", "131821.422500", "131822.912500", "131824.402500", "131825.892500", "131827.382500", "131828.872500", "131830.362500", "131831.852500", "131833.342500", "131834.832500", "131836.322500", "131837.812500", "131839.302500", "131840.792500", "131842.282500", "131843.772500", "131845.262500", "131846.752500", "131848.242500", "131849.732500", "131851.222500", "131852.712500", "131854.202500", "131855.692500", "131857.182500", "131858.672500", "131900.162500", "131901.652500", "131903.142500", "131904.632500", "131906.122500", "131907.612500", "131909.102500", "131910.592500", "131912.082500", "131913.572500", "131915.062500", "131916.552500", "131918.042500", "131919.532500", "131921.022500", "131922.512500", "131924.002500", "131925.492500", "131926.982500", "131928.472500", "131929.962500", "131931.452500", "131932.942500", "131934.432500", "131935.922500", "131937.412500", "131938.902500", "131940.392500", "131941.882500", "131943.372500", "131944.862500", "131946.352500", "131947.842500", "131949.332500", "131950.822500", "131952.312500", "131953.802500", "131955.292500", "131956.782500", "131958.272500", "131959.762500", "132001.252500", "132002.742500", "132004.232500", "132005.722500", "132007.212500", "132008.702500", "132010.192500", "132011.682500", "132013.172500", "132014.662500", "132016.152500", "132017.642500", "132019.132500", "132020.622500", "132022.112500", "132023.602500", "132025.092500", "132026.582500", "132028.072500", "132029.562500", "132031.052500", "132032.542500", "132034.032500", "132035.522500", "132037.012500", "132038.502500", "132039.992500", "132041.482500", "132042.972500", "132044.462500", "132045.952500", "132047.442500", "132048.932500", "132050.422500", "132051.912500", "132053.402500", "132054.892500", "132056.382500", "132057.872500", "132059.362500", "132100.852500", "132102.342500", "132103.832500", "132105.322500", "132106.812500", "132108.302500", "132109.792500", "132111.282500", "132112.772500", "132114.262500", "132115.752500", "132117.242500", "132118.732500", "132120.222500", "132121.712500", "132123.202500", "132124.692500", "132126.182500", "132127.672500", "132129.162500", "132130.652500", "132132.142500", "132133.632500", "132135.122500", "132136.612500", "132138.102500", "132139.592500", "132141.082500", "132142.572500", "132144.062500", "132145.552500", "132147.042500", "132148.532500", "132150.022500", "132151.512500", "132153.002500", "132154.492500", "132155.982500", "132157.472500", "132158.962500", "132200.452500", "132201.942500", "132203.432500", "132204.922500", "132206.412500", "132207.902500", "132209.392500", "132210.882500", "132212.372500", "132213.862500", "132215.352500", "132216.842500", "132218.332500", "132219.822500", "132221.312500", "132222.802500", "132224.292500", "132225.782500", "132227.272500", "132228.762500", "132230.252500", "132231.742500", "132233.232500", "132234.722500", "132236.212500", "132237.702500", "132239.192500", "132240.682500", "132242.172500", "132243.662500", "132245.152500", "132246.642500", "132248.132500", "132249.622500", "132251.112500", "132252.602500", "132254.092500", "132255.582500", "132257.072500", "132258.562500", "132300.052500", "132301.542500", "132303.032500", "132304.522500", "132306.012500", "132307.502500", "132308.992500", "132310.482500", "132311.972500", "132313.462500", "132314.952500", "132316.442500", "132317.932500", "132319.422500", "132320.912500", "132322.402500", "132323.892500", "132325.382500", "132326.872500", "132328.362500", "132329.852500", "132331.342500", "132332.832500", "132334.322500", "132335.812500", "132337.302500", "132338.792500", "132340.282500", "132341.772500", "132343.262500", "132344.752500", "132346.242500", "132347.732500", "132349.222500", "132350.712500", "132352.202500", "132353.692500", "132355.182500", "132356.672500", "132358.162500", "132359.652500", "132401.142500", "132402.632500", "132404.122500", "132405.612500", "132407.102500", "132408.592500", "132410.082500", "132411.572500", "132413.062500", "132414.552500", "132416.042500", "132417.532500", "132419.022500", "132420.512500", "132422.002500", "132423.492500", "132424.982500", "132426.472500", "132427.962500", "132429.452500", "132430.942500", "132432.432500", "132433.922500", "132435.412500", "132436.902500", "132438.392500", "132439.882500", "132441.372500", "132442.862500", "132444.352500", "132445.842500", "132447.332500", "132448.822500", "132450.312500", "132451.802500", "132453.292500", "132454.782500", "132456.272500", "132457.762500", "132459.252500", "132500.742500", "132502.232500", "132503.722500", "132505.212500", "132506.702500", "132508.192500", "132509.682500", "132511.172500", "132512.662500", "132514.152500", "132515.642500", "132517.132500", "132518.622500", "132520.112500", "132521.602500", "132523.092500", "132524.582500", "132526.072500", "132527.562500", "132529.052500", "132530.542500", "132532.032500", "132533.522500", "132535.012500", "132536.502500", "132537.992500", "132539.482500", "132540.972500", "132542.462500", "132543.952500", "132545.442500", "132546.932500", "132548.422500", "132549.912500", "132551.402500", "132552.892500", "132554.382500", "132555.872500", "132557.362500", "132558.852500", "132600.342500", "132601.832500", "132603.322500", "132604.812500", "132606.302500", "132607.792500", "132609.282500", "132610.772500", "132612.262500", "132613.752500", "132615.242500", "132616.732500", "132618.222500", "132619.712500", "132621.202500", "132622.692500", "132624.182500", "132625.672500", "132627.162500", "132628.652500", "132630.142500", "132631.632500", "132633.122500", "132634.612500", "132636.102500", "132637.592500", "132639.082500", "132640.572500", "132642.062500", "132643.552500", "132645.042500", "132646.532500", "132648.022500", "132649.512500", "132651.002500", "132652.492500", "132653.982500", "132655.472500", "132656.962500", "132658.452500", "132659.942500", "132701.432500", "132702.922500", "132704.412500", "132705.902500", "132707.392500", "132708.882500", "132710.372500", "132711.862500", "132713.352500", "132714.842500", "132716.332500", "132717.822500", "132719.312500", "132720.802500", "132722.292500", "132723.782500", "132725.272500", "132726.762500", "132728.252500", "132729.742500", "132731.232500", "132732.722500", "132734.212500", "132735.702500", "132737.192500", "132738.682500", "132740.172500", "132741.662500", "132743.152500"],
      "ContentTime": ["131754.036000", "131754.039000", "131754.042000", "131754.045000", "131754.048000", "131754.051000", "131754.054000", "131754.057000", "131754.059000", "131754.062000", "131754.065000", "131754.074000", "131754.077000", "131754.086000", "131754.088000", "131754.091000", "131754.094000", "131754.103000", "131754.106000", "131754.109000", "131813.998000", "131814.002000", "131814.005000", "131814.008000", "131814.011000", "131814.013000", "131814.016000", "131814.019000", "131814.022000", "131814.025000", "131814.028000", "131814.031000", "131814.033000", "131814.036000", "131814.039000", "131814.042000", "131814.045000", "131814.048000", "131814.051000", "131814.054000", "131833.998000", "131834.002000", "131834.005000", "131834.008000", "131834.010000", "131834.013000", "131834.016000", "131834.019000", "131834.022000", "131834.025000", "131834.028000", "131834.031000", "131834.034000", "131834.036000", "131834.039000", "131834.042000", "131834.045000", "131834.048000", "131834.051000", "131834.054000", "131853.997000", "131854.000000", "131854.003000", "131854.006000", "131854.009000", "131854.012000", "131854.015000", "131854.018000", "131854.021000", "131854.023000", "131854.026000", "131854.029000", "131854.032000", "131854.035000", "131854.038000", "131854.041000", "131854.044000", "131854.047000", "131854.050000", "131854.053000", "131913.997000", "131914.001000", "131914.004000", "131914.007000", "131914.010000", "131914.012000", "131914.015000", "131914.018000", "131914.021000", "131914.024000", "131914.027000", "131914.030000", "131914.033000", "131914.035000", "131914.038000", "131914.041000", "131914.044000", "131914.047000", "131914.050000", "131914.053000", "131953.998000", "131954.001000", "131954.004000", "131954.007000", "131954.010000", "131954.013000", "131954.016000", "131954.018000", "131954.021000", "131954.024000", "131954.027000", "131954.030000", "131954.033000", "131954.036000", "131954.039000", "131954.041000", "131954.053000", "131954.056000", "131954.059000", "131954.062000", "131954.065000", "131954.068000", "131954.071000", "131954.074000", "131954.076000", "131954.079000", "131954.082000", "131954.085000", "131954.088000", "131954.091000", "132033.998000", "132034.002000", "132034.005000", "132034.008000", "132034.011000", "132034.014000", "132034.017000", "132034.020000", "132034.022000", "132034.025000", "132034.028000", "132034.031000", "132034.034000", "132034.037000", "132034.040000", "132034.043000", "132034.046000", "132034.049000", "132034.052000", "132034.054000", "132034.057000", "132034.060000", "132034.063000", "132034.066000", "132034.069000", "132034.072000", "132034.075000", "132113.997000", "132114.001000", "132114.004000", "132114.007000", "132114.010000", "132114.013000", "132114.016000", "132114.019000", "132114.021000", "132114.027000", "132114.030000", "132114.033000", "132114.036000", "132114.039000", "132114.042000", "132114.045000", "132114.048000", "132114.051000", "132114.054000", "132114.056000", "132114.059000", "132114.062000", "132114.065000", "132114.068000", "132114.071000", "132114.074000", "132114.077000", "132153.997000", "132154.001000", "132154.004000", "132154.007000", "132154.010000", "132154.013000", "132154.016000", "132154.019000", "132154.022000", "132154.024000", "132154.027000", "132154.030000", "132154.033000", "132154.036000", "132154.039000", "132154.042000", "132154.045000", "132154.048000", "132154.051000", "132154.054000", "132154.056000", "132154.059000", "132154.062000", "132154.065000", "132154.068000", "132154.071000", "132233.998000", "132234.002000", "132234.005000", "132234.008000", "132234.011000", "132234.014000", "132234.017000", "132234.020000", "132234.023000", "132234.025000", "132234.028000", "132234.031000", "132234.034000", "132234.037000", "132234.040000", "132234.043000", "132234.046000", "132234.049000", "132234.052000", "132234.055000", "132234.057000", "132234.060000", "132234.063000", "132234.066000", "132234.069000", "132234.072000", "132234.075000", "132313.998000", "132314.002000", "132314.005000", "132314.008000", "132314.011000", "132314.014000", "132314.017000", "132314.020000", "132314.022000", "132314.025000", "132314.028000", "132314.031000", "132314.034000", "132314.037000", "132314.040000", "132314.043000", "132314.046000", "132314.049000", "132314.051000", "132314.054000", "132314.057000", "132314.060000", "132314.063000", "132314.066000", "132314.069000", "132314.072000", "132314.075000", "132353.997000", "132354.001000", "132354.004000", "132354.007000", "132354.010000", "132354.013000", "132354.016000", "132354.018000", "132354.021000", "132354.024000", "132354.027000", "132354.030000", "132354.033000", "132354.036000", "132354.039000", "132354.042000", "132354.045000", "132354.048000", "132354.050000", "132354.053000", "132354.056000", "132354.059000", "132354.062000", "132354.065000", "132354.068000", "132354.071000", "132354.074000", "132433.998000", "132434.001000", "132434.004000", "132434.007000", "132434.010000", "132434.013000", "132434.016000", "132434.019000", "132434.022000", "132434.036000", "132434.039000", "132434.042000", "132434.045000", "132434.048000", "132434.050000", "132434.053000", "132434.056000", "132434.059000", "132434.062000", "132434.065000", "132434.068000", "132434.071000", "132434.074000", "132434.077000", "132434.080000", "132434.083000", "132434.085000", "132513.998000", "132514.002000", "132514.005000", "132514.008000", "132514.011000", "132514.014000", "132514.017000", "132514.020000", "132514.022000", "132514.025000", "132514.028000", "132514.031000", "132514.034000", "132514.037000", "132514.040000", "132514.043000", "132514.046000", "132514.048000", "132514.051000", "132514.054000", "132514.057000", "132514.060000", "132514.063000", "132514.066000", "132514.069000", "132514.071000", "132514.074000", "132553.997000", "132554.002000", "132554.005000", "132554.008000", "132554.010000", "132554.014000", "132554.016000", "132554.019000", "132554.022000", "132554.025000", "132554.028000", "132554.031000", "132554.034000", "132554.037000", "132554.040000", "132554.042000", "132554.045000", "132554.048000", "132554.051000", "132554.054000", "132554.057000", "132554.060000", "132554.063000", "132554.066000", "132554.069000", "132554.072000", "132554.075000", "132633.997000", "132634.001000", "132634.004000", "132634.007000", "132634.010000", "132634.013000", "132634.016000", "132634.019000", "132634.022000", "132634.025000", "132634.028000", "132634.030000", "132634.033000", "132634.036000", "132634.039000", "132634.042000", "132634.045000", "132634.048000", "132634.051000", "132634.053000", "132634.056000", "132634.059000", "132634.062000", "132634.065000", "132634.068000", "132634.071000", "132713.998000", "132714.002000", "132714.005000", "132714.008000", "132714.011000", "132714.014000", "132714.017000", "132714.020000", "132714.023000", "132714.026000", "132714.029000", "132714.031000", "132714.034000", "132714.037000", "132714.040000", "132714.043000", "132714.046000", "132714.049000", "132714.052000", "132714.055000", "132714.058000", "132714.060000", "132714.063000", "132714.066000", "132714.069000", "132714.072000", "132714.075000", "132745.780000", "132745.783000", "132745.786000", "132745.789000", "132745.792000", "132745.795000", "132745.798000", "132745.801000", "132745.804000", "132745.807000", "132745.811000", "132745.814000", "132745.817000", "132745.820000", "132745.823000", "132745.826000", "132745.829000", "132745.832000", "132745.835000", "132745.838000", "132745.841000", "132745.844000"],
