{
  "AcquisitionMatrixPE": 104,
  "AcquisitionNumber": 1,
  "AcquisitionTime": "13:04:52.432500",
  "BandwidthPerPixelPhaseEncode": 17.17,
  "BaseResolution": 104,
  "BodyPartExamined": "BRAIN",
  "CoilString": "HC1-7;NC1_2",
  "ConsistencyInfo": "N4_VE11C_LATEST_20160120",
  "ConversionSoftware": "dcm2niix",
  "ConversionSoftwareVersion": "v1.0.20190902",
  "DerivedVendorReportedEchoSpacing": 0.000560011,
  "DeviceSerialNumber": "167006",
  "DwellTime": 2.1e-06,
  "EchoTime": 0.037,
  "EchoTrainLength": 104,
  "EffectiveEchoSpacing": 0.000560011,
  "FlipAngle": 52,
  "ImageComments": "Unaliased_MB4_PE3_LB",
  "ImageOrientationPatientDICOM": [0.999925, -0.00787335, -0.00934285, 0.00523569, 0.967037, -0.254583],
  "ImageType": [
    "ORIGINAL",
    "PRIMARY",
    "M",
    "MB",
    "ND",
    "MOSAIC"
],
  "ImagingFrequency": 123.259,
  "InPlanePhaseEncodingDirectionDICOM": "COL",
  "InstitutionAddress": "Chemin_Queen-Mary_4565_Montreal_District_CA_H3W_1W5",
  "InstitutionName": "IUGM",
  "InstitutionalDepartmentName": "Department",
  "MRAcquisitionType": "2D",
  "MagneticFieldStrength": 3,
  "Manufacturer": "Siemens",
  "ManufacturersModelName": "Prisma_fit",
  "Modality": "MR",
  "MultibandAccelerationFactor": 4,
  "PartialFourier": 1,
  "PatientPosition": "HFS",
  "PercentPhaseFOV": 100,
  "PhaseEncodingDirection": "j",
  "PhaseEncodingSteps": 104,
  "PhaseResolution": 1,
  "PixelBandwidth": 2290,
  "ProcedureStepDescription": "video_friends",
  "ProtocolName": "func_task-friends-s04e20a",
  "PulseSequenceDetails": "%CustomerSeq%_cmrr_mbep2d_bold",
  "ReceiveCoilActiveElements": "HC1-7;NC1,2",
  "ReceiveCoilName": "HeadNeck_64",
  "ReconMatrixPE": 104,
  "RepetitionTime": 1.49,
  "SAR": 0.0281271,
  "ScanOptions": "FS",
  "ScanningSequence": "EP",
  "SequenceName": "epfid2d1_104",
  "SequenceVariant": "SK_SS",
  "SeriesDescription": "func_task-friends-s04e20a",
  "SeriesNumber": 9,
  "ShimSetting": [626, -7218, -8805, 734, 12, 0, 132, -14],
  "SliceThickness": 2,
  "SliceTiming": [0, 0.785, 0.0975, 0.8825, 0.195, 0.98, 0.295, 1.0775, 0.3925, 1.175, 0.49, 1.2725, 0.5875, 1.3725, 0.685, 0, 0.785, 0.0975, 0.8825, 0.195, 0.98, 0.295, 1.0775, 0.3925, 1.175, 0.49, 1.2725, 0.5875, 1.3725, 0.685, 0, 0.785, 0.0975, 0.8825, 0.195, 0.98, 0.295, 1.0775, 0.3925, 1.175, 0.49, 1.2725, 0.5875, 1.3725, 0.685, 0, 0.785, 0.0975, 0.8825, 0.195, 0.98, 0.295, 1.0775, 0.3925, 1.175, 0.49, 1.2725, 0.5875, 1.3725, 0.685],
  "SoftwareVersions": "syngo_MR_E11",
  "SpacingBetweenSlices": 2,
  "StationName": "MRC35049",
  "TaskName": "s04e20a",
  "TotalReadoutTime": 0.0576811,
  "TxRefAmp": 205.637,
  "WipMemBlock": "4d7bd473-1905-4f6b-999a-a5967e870a19||Sequence: R016 ve11c/master r/e634e98; Dec 19 2017 11:00:25 by eja",
  "dcmmeta_affine": [
    [-1.9998507499694824, 0.010471371933817863, -0.02207859419286251, 104.94100189208984],
    [0.01574670895934105, 1.934073567390442, -0.509029746055603, -84.72757720947266],
    [-0.01868569292128086, 0.5091655850410461, 1.934011697769165, -62.073219299316406],
    [0.0, 0.0, 0.0, 1.0]
],
  "dcmmeta_reorient_transform": [
    [0.0, -1.0, 0.0, 103.0],
    [1.0, 0.0, 0.0, 0.0],
    [0.0, 0.0, 1.0, 0.0],
    [0.0, 0.0, 0.0, 1.0]
],
  "dcmmeta_shape": [104, 104, 60, 447],
  "dcmmeta_slice_dim": 2,
  "dcmmeta_version": 0.6,
  "global": {
    "const": {
      "AcquisitionMatrix": [104, 0, 0, 104],
      "AngioFlag": "N",
      "BitsAllocated": 16,
      "BitsStored": 16,
      "BodyPartExamined": "BRAIN",
      "Columns": 832,
      "EchoNumbers": 1,
      "EchoTime": 37.0,
      "EchoTrainLength": 104,
      "FlipAngle": 52.0,
      "HighBit": 15,
      "ImageOrientationPatient": [0.99992535797126, -0.0078733541351, -0.0093428464995, 0.0052356861527, 0.96703680974023, -0.2545827884951],
      "ImagePositionPatient": [-837.77679289033, -812.75300183073, 182.50869759038],
      "ImageType": [
        "ORIGINAL",
        "PRIMARY",
        "M",
        "MB",
        "ND",
        "MOSAIC"
],
      "ImagedNucleus": "1H",
      "ImagingFrequency": 123.259038,
      "InPlanePhaseEncodingDirection": "COL",
      "MRAcquisitionType": "2D",
      "MagneticFieldStrength": 3.0,
      "Manufacturer": "SIEMENS",
      "ManufacturerModelName": "Prisma_fit",
      "Modality": "MR",
      "NumberOfAverages": 1.0,
      "NumberOfPhaseEncodingSteps": 104,
      "PercentPhaseFieldOfView": 100.0,
      "PercentSampling": 100.0,
      "PerformedProcedureStepStartTime": "124719.634000",
      "PhotometricInterpretation": "MONOCHROME2",
      "PixelBandwidth": 2290.0,
      "PixelRepresentation": 0,
      "PixelSpacing": [2.0, 2.0],
      "ProtocolName": "func_task-friends-s04e20a",
      "RepetitionTime": 1490.0,
      "Rows": 832,
      "SAR": 0.02812708609136,
      "SamplesPerPixel": 1,
      "ScanOptions": "FS",
      "ScanningSequence": "EP",
      "SequenceName": "epfid2d1_104",
      "SequenceVariant": [
        "SK",
        "SS"
],
      "SeriesDescription": "func_task-friends-s04e20a",
      "SeriesNumber": 9,
      "SeriesTime": "130611.014000",
      "SliceLocation": -39.619212788883,
      "SliceThickness": 2.0,
      "SmallestImagePixelValue": 0,
      "SoftwareVersions": "syngo MR E11",
      "SpacingBetweenSlices": 1.9999999861787,
      "SpecificCharacterSet": "ISO_IR 100",
      "StudyID": "1",
      "StudyTime": "124719.531000",
      "TransmitCoilName": "Body",
      "VariableFlipAngleFlag": "N",
      "WindowCenterWidthExplanation": "Algo1",
      "dBdt": 0.0},
    "slices": {}
  },
  "time": {
    "samples": {
      "AcquisitionNumber": [1, 2, 3, 4, 5, 6, 7, 8, 9, 10, 11, 12, 13, 14, 15, 16, 17, 18, 19, 20, 21, 22, 23, 24, 25, 26, 27, 28, 29, 30, 31, 32, 33, 34, 35, 36, 37, 38, 39, 40, 41, 42, 43, 44, 45, 46, 47, 48, 49, 50, 51, 52, 53, 54, 55, 56, 57, 58, 59, 60, 61, 62, 63, 64, 65, 66, 67, 68, 69, 70, 71, 72, 73, 74, 75, 76, 77, 78, 79, 80, 81, 82, 83, 84, 85, 86, 87, 88, 89, 90, 91, 92, 93, 94, 95, 96, 97, 98, 99, 100, 101, 102, 103, 104, 105, 106, 107, 108, 109, 110, 111, 112, 113, 114, 115, 116, 117, 118, 119, 120, 121, 122, 123, 124, 125, 126, 127, 128, 129, 130, 131, 132, 133, 134, 135, 136, 137, 138, 139, 140, 141, 142, 143, 144, 145, 146, 147, 148, 149, 150, 151, 152, 153, 154, 155, 156, 157, 158, 159, 160, 161, 162, 163, 164, 165, 166, 167, 168, 169, 170, 171, 172, 173, 174, 175, 176, 177, 178, 179, 180, 181, 182, 183, 184, 185, 186, 187, 188, 189, 190, 191, 192, 193, 194, 195, 196, 197, 198, 199, 200, 201, 202, 203, 204, 205, 206, 207, 208, 209, 210, 211, 212, 213, 214, 215, 216, 217, 218, 219, 220, 221, 222, 223, 224, 225, 226, 227, 228, 229, 230, 231, 232, 233, 234, 235, 236, 237, 238, 239, 240, 241, 242, 243, 244, 245, 246, 247, 248, 249, 250, 251, 252, 253, 254, 255, 256, 257, 258, 259, 260, 261, 262, 263, 264, 265, 266, 267, 268, 269, 270, 271, 272, 273, 274, 275, 276, 277, 278, 279, 280, 281, 282, 283, 284, 285, 286, 287, 288, 289, 290, 291, 292, 293, 294, 295, 296, 297, 298, 299, 300, 301, 302, 303, 304, 305, 306, 307, 308, 309, 310, 311, 312, 313, 314, 315, 316, 317, 318, 319, 320, 321, 322, 323, 324, 325, 326, 327, 328, 329, 330, 331, 332, 333, 334, 335, 336, 337, 338, 339, 340, 341, 342, 343, 344, 345, 346, 347, 348, 349, 350, 351, 352, 353, 354, 355, 356, 357, 358, 359, 360, 361, 362, 363, 364, 365, 366, 367, 368, 369, 370, 371, 372, 373, 374, 375, 376, 377, 378, 379, 380, 381, 382, 383, 384, 385, 386, 387, 388, 389, 390, 391, 392, 393, 394, 395, 396, 397, 398, 399, 400, 401, 402, 403, 404, 405, 406, 407, 408, 409, 410, 411, 412, 413, 414, 415, 416, 417, 418, 419, 420, 421, 422, 423, 424, 425, 426, 427, 428, 429, 430, 431, 432, 433, 434, 435, 436, 437, 438, 439, 440, 441, 442, 443, 444, 445, 446, 447],
      "AcquisitionTime": ["130452.432500", "130453.922500", "130455.412500", "130456.902500", "130458.392500", "130459.882500", "130501.372500", "130502.862500", "130504.352500", "130505.842500", "130507.332500", "130508.822500", "130510.312500", "130511.802500", "130513.292500", "130514.782500", "130516.272500", "130517.762500", "130519.252500", "130520.742500", "130522.232500", "130523.722500", "130525.212500", "130526.702500", "130528.192500", "130529.682500", "130531.172500", "130532.662500", "130534.152500", "130535.642500", "130537.132500", "130538.622500", "130540.112500", "130541.602500", "130543.092500", "130544.582500", "130546.072500", "130547.562500", "130549.052500", "130550.542500", "130552.032500", "130553.522500", "130555.012500", "130556.502500", "130557.992500", "130559.482500", "130600.972500", "130602.462500", "130603.952500", "130605.442500", "130606.932500", "130608.422500", "130609.912500", "130611.402500", "130612.892500", "130614.382500", "130615.872500", "130617.362500", "130618.852500", "130620.342500", "130621.832500", "130623.322500", "130624.812500", "130626.302500", "130627.792500", "130629.282500", "130630.772500", "130632.262500", "130633.752500", "130635.242500", "130636.732500", "130638.222500", "130639.712500", "130641.202500", "130642.692500", "130644.182500", "130645.672500", "130647.162500", "130648.652500", "130650.142500", "130651.632500", "130653.122500", "130654.612500", "130656.102500", "130657.592500", "130659.082500", "130700.572500", "130702.062500", "130703.552500", "130705.042500", "130706.532500", "130708.022500", "130709.512500", "130711.002500", "130712.492500", "130713.982500", "130715.472500", "130716.962500", "130718.452500", "130719.942500", "130721.432500", "130722.922500", "130724.412500", "130725.902500", "130727.392500", "130728.882500", "130730.372500", "130731.862500", "130733.352500", "130734.842500", "130736.332500", "130737.822500", "130739.312500", "130740.802500", "130742.292500", "130743.782500", "130745.272500", "130746.762500", "130748.252500", "130749.742500", "130751.232500", "130752.722500", "130754.212500", "130755.702500", "130757.192500", "130758.682500", "130800.172500", "130801.662500", "130803.152500", "130804.642500", "130806.132500", "130807.622500", "130809.112500", "130810.602500", "130812.092500", "130813.582500", "130815.072500", "130816.562500", "130818.052500", "130819.542500", "130821.032500", "130822.522500", "130824.012500", "130825.502500", "130826.992500", "130828.482500", "130829.972500", "130831.462500", "130832.952500", "130834.442500", "130835.932500", "130837.422500", "130838.912500", "130840.402500", "130841.892500", "130843.382500", "130844.872500", "130846.362500", "130847.852500", "130849.342500", "130850.832500", "130852.322500", "130853.812500", "130855.302500", "130856.792500", "130858.282500", "130859.772500", "130901.262500", "130902.752500", "130904.242500", "130905.732500", "130907.222500", "130908.712500", "130910.202500", "130911.692500", "130913.182500", "130914.672500", "130916.162500", "130917.652500", "130919.142500", "130920.632500", "130922.122500", "130923.612500", "130925.102500", "130926.592500", "130928.082500", "130929.572500", "130931.062500", "130932.552500", "130934.042500", "130935.532500", "130937.022500", "130938.512500", "130940.002500", "130941.492500", "130942.982500", "130944.472500", "130945.962500", "130947.452500", "130948.942500", "130950.432500", "130951.922500", "130953.412500", "130954.902500", "130956.392500", "130957.882500", "130959.372500", "131000.862500", "131002.352500", "131003.842500", "131005.332500", "131006.822500", "131008.312500", "131009.802500", "131011.292500", "131012.782500", "131014.272500", "131015.762500", "131017.252500", "131018.742500", "131020.232500", "131021.722500", "131023.212500", "131024.702500", "131026.192500", "131027.682500", "131029.172500", "131030.662500", "131032.152500", "131033.642500", "131035.132500", "131036.622500", "131038.112500", "131039.602500", "131041.092500", "131042.582500", "131044.072500", "131045.562500", "131047.052500", "131048.542500", "131050.032500", "131051.522500", "131053.012500", "131054.502500", "131055.992500", "131057.482500", "131058.972500", "131100.462500", "131101.952500", "131103.442500", "131104.932500", "131106.422500", "131107.912500", "131109.402500", "131110.892500", "131112.382500", "131113.872500", "131115.362500", "131116.852500", "131118.342500", "131119.832500", "131121.322500", "131122.812500", "131124.302500", "131125.792500", "131127.282500", "131128.772500", "131130.262500", "131131.752500", "131133.242500", "131134.732500", "131136.222500", "131137.712500", "131139.202500", "131140.692500", "131142.182500", "131143.672500", "131145.162500", "131146.652500", "131148.142500", "131149.632500", "131151.122500", "131152.612500", "131154.102500", "131155.592500", "131157.082500", "131158.572500", "131200.062500", "131201.552500", "131203.042500", "131204.532500", "131206.022500", "131207.512500", "131209.002500", "131210.492500", "131211.982500", "131213.472500", "131214.962500", "131216.452500", "131217.942500", "131219.432500", "131220.922500", "131222.412500", "131223.902500", "131225.392500", "131226.882500", "131228.372500", "131229.862500", "131231.352500", "131232.842500", "131234.332500", "131235.822500", "131237.312500", "131238.802500", "131240.292500", "131241.782500", "131243.272500", "131244.762500", "131246.252500", "131247.742500", "131249.232500", "131250.722500", "131252.212500", "131253.702500", "131255.192500", "131256.682500", "131258.172500", "131259.662500", "131301.152500", "131302.642500", "131304.132500", "131305.622500", "131307.112500", "131308.602500", "131310.092500", "131311.582500", "131313.072500", "131314.562500", "131316.052500", "131317.542500", "131319.032500", "131320.522500", "131322.012500", "131323.502500", "131324.992500", "131326.482500", "131327.972500", "131329.462500", "131330.952500", "131332.442500", "131333.932500", "131335.422500", "131336.912500", "131338.402500", "131339.892500", "131341.382500", "131342.872500", "131344.362500", "131345.852500", "131347.342500", "131348.832500", "131350.322500", "131351.812500", "131353.302500", "131354.792500", "131356.282500", "131357.772500", "131359.262500", "131400.752500", "131402.242500", "131403.732500", "131405.222500", "131406.712500", "131408.202500", "131409.692500", "131411.182500", "131412.672500", "131414.162500", "131415.652500", "131417.142500", "131418.632500", "131420.122500", "131421.612500", "131423.102500", "131424.592500", "131426.082500", "131427.572500", "131429.062500", "131430.552500", "131432.042500", "131433.532500", "131435.022500", "131436.512500", "131438.002500", "131439.492500", "131440.982500", "131442.472500", "131443.962500", "131445.452500", "131446.942500", "131448.432500", "131449.922500", "131451.412500", "131452.902500", "131454.392500", "131455.882500", "131457.372500", "131458.862500", "131500.352500", "131501.842500", "131503.332500", "131504.822500", "131506.312500", "131507.802500", "131509.292500", "131510.782500", "131512.272500", "131513.762500", "131515.252500", "131516.742500", "131518.232500", "131519.722500", "131521.212500", "131522.702500", "131524.192500", "131525.682500", "131527.172500", "131528.662500", "131530.152500", "131531.642500", "131533.132500", "131534.622500", "131536.112500", "131537.602500", "131539.092500", "131540.582500", "131542.072500", "131543.562500", "131545.052500", "131546.542500", "131548.032500", "131549.522500", "131551.012500", "131552.502500", "131553.992500", "131555.482500", "131556.972500"],
      "ContentTime": ["130611.017000", "130611.021000", "130611.024000", "130611.026000", "130611.034000", "130611.037000", "130611.040000", "130611.043000", "130611.046000", "130611.049000", "130611.052000", "130611.055000", "130611.063000", "130611.066000", "130611.069000", "130611.072000", "130611.075000", "130611.077000", "130611.080000", "130611.083000", "130611.086000", "130611.089000", "130611.092000", "130611.094000", "130611.097000", "130630.979000", "130630.982000", "130630.985000", "130630.988000", "130630.991000", "130630.994000", "130630.997000", "130631.000000", "130631.003000", "130631.006000", "130631.009000", "130631.012000", "130631.015000", "130631.018000", "130631.021000", "130631.024000", "130631.026000", "130631.029000", "130631.032000", "130631.035000", "130650.979000", "130650.982000", "130650.985000", "130650.988000", "130650.990000", "130650.993000", "130650.996000", "130651.000000", "130651.003000", "130651.006000", "130651.009000", "130651.012000", "130651.014000", "130651.017000", "130651.020000", "130651.023000", "130651.026000", "130651.029000", "130651.032000", "130651.035000", "130710.979000", "130710.982000", "130710.985000", "130710.987000", "130710.991000", "130710.993000", "130710.996000", "130711.000000", "130711.003000", "130711.006000", "130711.009000", "130711.012000", "130711.015000", "130711.018000", "130711.021000", "130711.024000", "130711.027000", "130711.030000", "130711.032000", "130711.035000", "130711.038000", "130730.978000", "130730.981000", "130730.984000", "130730.987000", "130730.990000", "130730.993000", "130730.995000", "130730.998000", "130731.002000", "130731.005000", "130731.008000", "130731.011000", "130731.014000", "130731.017000", "130731.019000", "130731.022000", "130731.025000", "130731.028000", "130731.031000", "130731.034000", "130810.978000", "130810.981000", "130810.984000", "130810.987000", "130810.990000", "130810.993000", "130810.995000", "130810.998000", "130811.002000", "130811.005000", "130811.008000", "130811.011000", "130811.014000", "130811.017000", "130811.019000", "130811.029000", "130811.031000", "130811.034000", "130811.037000", "130811.040000", "130811.043000", "130811.046000", "130811.049000", "130811.052000", "130811.055000", "130811.059000", "130850.979000", "130850.982000", "130850.985000", "130850.988000", "130850.991000", "130850.994000", "130850.996000", "130851.000000", "130851.003000", "130851.006000", "130851.009000", "130851.012000", "130851.015000", "130851.018000", "130851.021000", "130851.024000", "130851.026000", "130851.029000", "130851.032000", "130851.035000", "130851.038000", "130851.041000", "130851.044000", "130851.047000", "130851.050000", "130851.052000", "130851.055000", "130930.979000", "130930.982000", "130930.985000", "130930.988000", "130930.991000", "130930.993000", "130930.997000", "130931.000000", "130931.003000", "130931.006000", "130931.009000", "130931.012000", "130931.015000", "130931.018000", "130931.021000", "130931.024000", "130931.026000", "130931.029000", "130931.032000", "130931.035000", "130931.038000", "130931.041000", "130931.044000", "130931.047000", "130931.050000", "130931.052000", "130931.055000", "131010.978000", "131010.981000", "131010.984000", "131010.987000", "131010.990000", "131010.993000", "131010.996000", "131010.998000", "131011.002000", "131011.018000", "131011.021000", "131011.024000", "131011.026000", "131011.029000", "131011.032000", "131011.035000", "131011.038000", "131011.050000", "131011.053000", "131011.055000", "131011.058000", "131011.061000", "131011.064000", "131011.067000", "131011.070000", "131011.073000", "131011.076000", "131050.978000", "131050.981000", "131050.984000", "131050.987000", "131050.990000", "131050.993000", "131050.995000", "131050.998000", "131051.002000", "131051.005000", "131051.008000", "131051.011000", "131051.014000", "131051.017000", "131051.020000", "131051.022000", "131051.025000", "131051.028000", "131051.031000", "131051.034000", "131051.037000", "131051.040000", "131051.043000", "131051.046000", "131051.049000", "131051.051000", "131051.054000", "131130.979000", "131130.982000", "131130.985000", "131130.992000", "131130.995000", "131130.997000", "131131.001000", "131131.004000", "131131.007000", "131131.010000", "131131.013000", "131131.016000", "131131.019000", "131131.022000", "131131.025000", "131131.038000", "131131.040000", "131131.043000", "131131.046000", "131131.049000", "131131.052000", "131131.055000", "131131.058000", "131131.061000", "131131.064000", "131131.067000", "131131.069000", "131210.978000", "131210.981000", "131210.984000", "131210.987000", "131210.990000", "131210.992000", "131210.995000", "131211.000000", "131211.003000", "131211.006000", "131211.008000", "131211.011000", "131211.014000", "131211.017000", "131211.020000", "131211.023000", "131211.026000", "131211.029000", "131211.031000", "131211.034000", "131211.037000", "131211.040000", "131211.043000", "131211.046000", "131211.049000", "131211.052000", "131250.978000", "131250.981000", "131250.984000", "131250.987000", "131250.990000", "131250.993000", "131250.995000", "131250.998000", "131251.002000", "131251.005000", "131251.008000", "131251.011000", "131251.014000", "131251.017000", "131251.020000", "131251.022000", "131251.025000", "131251.028000", "131251.031000", "131251.034000", "131251.037000", "131251.040000", "131251.043000", "131251.045000", "131251.048000", "131251.051000", "131251.054000", "131330.979000", "131330.982000", "131330.985000", "131330.988000", "131330.991000", "131330.994000", "131330.997000", "131331.001000", "131331.004000", "131331.007000", "131331.009000", "131331.012000", "131331.015000", "131331.018000", "131331.021000", "131331.024000", "131331.027000", "131331.030000", "131331.033000", "131331.036000", "131331.039000", "131331.041000", "131331.044000", "131331.048000", "131331.051000", "131331.053000", "131331.056000", "131410.979000", "131410.982000", "131410.985000", "131410.988000", "131410.991000", "131410.994000", "131410.997000", "131411.001000", "131411.004000", "131411.006000", "131411.009000", "131411.012000", "131411.015000", "131411.018000", "131411.021000", "131411.024000", "131411.027000", "131411.030000", "131411.033000", "131411.036000", "131411.038000", "131411.041000", "131411.044000", "131411.047000", "131411.050000", "131411.053000", "131411.056000", "131450.978000", "131450.981000", "131450.984000", "131450.987000", "131451.006000", "131451.010000", "131451.018000", "131451.021000", "131451.024000", "131451.027000", "131451.030000", "131451.033000", "131451.036000", "131451.039000", "131451.041000", "131451.044000", "131451.047000", "131451.050000", "131451.053000", "131451.056000", "131451.059000", "131451.062000", "131451.065000", "131451.067000", "131451.070000", "131451.073000", "131451.076000", "131530.978000", "131530.981000", "131530.984000", "131530.987000", "131530.990000", "131530.993000", "131530.996000", "131530.998000", "131531.002000", "131531.005000", "131531.007000", "131531.010000", "131531.013000", "131531.016000", "131531.019000", "131531.022000", "131531.025000", "131531.028000", "131531.031000", "131531.033000", "131531.036000", "131531.039000", "131531.042000", "131531.045000", "131531.048000", "131531.051000", "131531.054000", "131559.102000", "131559.105000", "131559.108000", "131559.116000", "131559.119000", "131559.122000", "131559.125000", "131559.128000", "131559.131000", "131559.134000", "131559.137000", "131559.140000", "131559.143000", "131559.146000", "131559.149000", "131559.152000", "131559.155000", "131559.157000", "131559.160000"],
