{
  "AcquisitionMatrixPE": 104,
  "AcquisitionNumber": 1,
  "AcquisitionTime": "09:52:9.062500",
  "BandwidthPerPixelPhaseEncode": 17.17,
  "BaseResolution": 104,
  "BodyPartExamined": "BRAIN",
  "CoilString": "HC1-7;NC1_2",
  "ConsistencyInfo": "N4_VE11C_LATEST_20160120",
  "ConversionSoftware": "dcm2niix",
  "ConversionSoftwareVersion": "v1.0.20190720  (JP2:OpenJPEG) GCC7.3.0",
  "DerivedVendorReportedEchoSpacing": 0.000560011,
  "DeviceSerialNumber": "167006",
  "DwellTime": 2.1e-06,
  "EchoTime": 0.037,
  "EchoTrainLength": 104,
  "EffectiveEchoSpacing": 0.000560011,
  "FlipAngle": 52,
  "ImageComments": "Unaliased_MB4_PE3_LB",
  "ImageOrientationPatientDICOM": [0.99782, -0.00310003, -0.065915, -0.0101012, 0.979948, -0.198999],
  "ImageType": [
    "ORIGINAL",
    "PRIMARY",
    "M",
    "MB",
    "ND",
    "MOSAIC"
],
  "ImagingFrequency": 123.259,
  "InPlanePhaseEncodingDirectionDICOM": "COL",
  "InstitutionAddress": "Chemin_Queen-Mary_4565_Montreal_District_CA_H3W_1W5",
  "InstitutionName": "IUGM",
  "InstitutionalDepartmentName": "Department",
  "MRAcquisitionType": "2D",
  "MagneticFieldStrength": 3,
  "Manufacturer": "Siemens",
  "ManufacturersModelName": "Prisma_fit",
  "Modality": "MR",
  "MultibandAccelerationFactor": 4,
  "PartialFourier": 1,
  "PatientPosition": "HFS",
  "PercentPhaseFOV": 100,
  "PhaseEncodingDirection": "j",
  "PhaseEncodingSteps": 104,
  "PhaseResolution": 1,
  "PixelBandwidth": 2290,
  "ProcedureStepDescription": "video_friends",
  "ProtocolName": "func_task-s01e01a",
  "PulseSequenceDetails": "%CustomerSeq%_cmrr_mbep2d_bold",
  "ReceiveCoilActiveElements": "HC1-7;NC1,2",
  "ReceiveCoilName": "HeadNeck_64",
  "ReconMatrixPE": 104,
  "RepetitionTime": 1.49,
  "SAR": 0.0329356,
  "ScanOptions": "FS",
  "ScanningSequence": "EP",
  "SequenceName": "epfid2d1_104",
  "SequenceVariant": "SK_SS",
  "SeriesDescription": "func_task-s01e01a",
  "SeriesNumber": 9,
  "ShimSetting": [597, -7257, -8837, 582, -31, -285, 60, 39],
  "SliceThickness": 2,
  "SliceTiming": [0, 0.785, 0.0975, 0.8825, 0.1975, 0.98, 0.295, 1.0775, 0.3925, 1.175, 0.49, 1.275, 0.5875, 1.3725, 0.6875, 0, 0.785, 0.0975, 0.8825, 0.1975, 0.98, 0.295, 1.0775, 0.3925, 1.175, 0.49, 1.275, 0.5875, 1.3725, 0.6875, 0, 0.785, 0.0975, 0.8825, 0.1975, 0.98, 0.295, 1.0775, 0.3925, 1.175, 0.49, 1.275, 0.5875, 1.3725, 0.6875, 0, 0.785, 0.0975, 0.8825, 0.1975, 0.98, 0.295, 1.0775, 0.3925, 1.175, 0.49, 1.275, 0.5875, 1.3725, 0.6875],
  "SoftwareVersions": "syngo_MR_E11",
  "SpacingBetweenSlices": 2,
  "StationName": "MRC35049",
  "TaskName": "friends",
  "TotalReadoutTime": 0.0576811,
  "TxRefAmp": 219.956,
  "WipMemBlock": "7fa0ff97-2682-4fa4-8e2b-f40d6d922151||Sequence: R016 ve11c/master r/e634e98; Dec 19 2017 11:00:25 by eja",
  "dcmmeta_affine": [
    [-1.9956408739089966, -0.020202357321977615, -0.1304202824831009, 103.15919494628906],
    [0.006200058851391077, 1.9598952531814575, -0.39846253395080566, -85.48765563964844],
    [-0.13182997703552246, 0.3979983627796173, 1.9555609226226807, -45.246150970458984],
    [0.0, 0.0, 0.0, 1.0]
],
  "dcmmeta_reorient_transform": [
    [0.0, -1.0, 0.0, 103.0],
    [1.0, 0.0, 0.0, 0.0],
    [0.0, 0.0, 1.0, 0.0],
    [0.0, 0.0, 0.0, 1.0]
],
  "dcmmeta_shape": [104, 104, 60, 482],
  "dcmmeta_slice_dim": 2,
  "dcmmeta_version": 0.6,
  "global": {
    "const": {
      "AcquisitionMatrix": [104, 0, 0, 104],
      "AngioFlag": "N",
      "BitsAllocated": 16,
      "BitsStored": 16,
      "BodyPartExamined": "BRAIN",
      "Columns": 832,
      "EchoNumbers": 1,
      "EchoTime": 37.0,
      "EchoTrainLength": 104,
      "FlipAngle": 52.0,
      "HighBit": 15,
      "ImageOrientationPatient": [0.99782042666144, -0.0031000293326, -0.0659149903689, -0.0101011786512, 0.97994759789716, -0.1989991747858],
      "ImagePositionPatient": [-820.13796153427, -827.52657714638, 188.60519299842],
      "ImageType": [
        "ORIGINAL",
        "PRIMARY",
        "M",
        "MB",
        "ND",
        "MOSAIC"
],
      "ImagedNucleus": "1H",
      "ImagingFrequency": 123.259162,
      "InPlanePhaseEncodingDirection": "COL",
      "MRAcquisitionType": "2D",
      "MagneticFieldStrength": 3.0,
      "Manufacturer": "SIEMENS",
      "ManufacturerModelName": "Prisma_fit",
      "Modality": "MR",
      "NumberOfAverages": 1.0,
      "NumberOfPhaseEncodingSteps": 104,
      "PercentPhaseFieldOfView": 100.0,
      "PercentSampling": 100.0,
      "PerformedProcedureStepStartTime": "094900.708000",
      "PhotometricInterpretation": "MONOCHROME2",
      "PixelBandwidth": 2290.0,
      "PixelRepresentation": 0,
      "PixelSpacing": [2.0, 2.0],
      "ProtocolName": "func_task-s01e01a",
      "RepetitionTime": 1490.0,
      "Rows": 832,
      "SAR": 0.03293561970882,
      "SamplesPerPixel": 1,
      "ScanOptions": "FS",
      "ScanningSequence": "EP",
      "SequenceName": "epfid2d1_104",
      "SequenceVariant": [
        "SK",
        "SS"
],
      "SeriesDescription": "func_task-s01e01a",
      "SeriesNumber": 9,
      "SeriesTime": "095353.916000",
      "SliceLocation": -33.936010098097,
      "SliceThickness": 2.0,
      "SmallestImagePixelValue": 0,
      "SoftwareVersions": "syngo MR E11",
      "SpacingBetweenSlices": 2.0000000472196,
      "SpecificCharacterSet": "ISO_IR 100",
      "StudyID": "1",
      "StudyTime": "094900.618000",
      "TransmitCoilName": "Body",
      "VariableFlipAngleFlag": "N",
      "WindowCenterWidthExplanation": "Algo1",
      "dBdt": 0.0},
    "slices": {}
  },
  "time": {
    "samples": {
      "AcquisitionNumber": [1, 2, 3, 4, 5, 6, 7, 8, 9, 10, 11, 12, 13, 14, 15, 16, 17, 18, 19, 20, 21, 22, 23, 24, 25, 26, 27, 28, 29, 30, 31, 32, 33, 34, 35, 36, 37, 38, 39, 40, 41, 42, 43, 44, 45, 46, 47, 48, 49, 50, 51, 52, 53, 54, 55, 56, 57, 58, 59, 60, 61, 62, 63, 64, 65, 66, 67, 68, 69, 70, 71, 72, 73, 74, 75, 76, 77, 78, 79, 80, 81, 82, 83, 84, 85, 86, 87, 88, 89, 90, 91, 92, 93, 94, 95, 96, 97, 98, 99, 100, 101, 102, 103, 104, 105, 106, 107, 108, 109, 110, 111, 112, 113, 114, 115, 116, 117, 118, 119, 120, 121, 122, 123, 124, 125, 126, 127, 128, 129, 130, 131, 132, 133, 134, 135, 136, 137, 138, 139, 140, 141, 142, 143, 144, 145, 146, 147, 148, 149, 150, 151, 152, 153, 154, 155, 156, 157, 158, 159, 160, 161, 162, 163, 164, 165, 166, 167, 168, 169, 170, 171, 172, 173, 174, 175, 176, 177, 178, 179, 180, 181, 182, 183, 184, 185, 186, 187, 188, 189, 190, 191, 192, 193, 194, 195, 196, 197, 198, 199, 200, 201, 202, 203, 204, 205, 206, 207, 208, 209, 210, 211, 212, 213, 214, 215, 216, 217, 218, 219, 220, 221, 222, 223, 224, 225, 226, 227, 228, 229, 230, 231, 232, 233, 234, 235, 236, 237, 238, 239, 240, 241, 242, 243, 244, 245, 246, 247, 248, 249, 250, 251, 252, 253, 254, 255, 256, 257, 258, 259, 260, 261, 262, 263, 264, 265, 266, 267, 268, 269, 270, 271, 272, 273, 274, 275, 276, 277, 278, 279, 280, 281, 282, 283, 284, 285, 286, 287, 288, 289, 290, 291, 292, 293, 294, 295, 296, 297, 298, 299, 300, 301, 302, 303, 304, 305, 306, 307, 308, 309, 310, 311, 312, 313, 314, 315, 316, 317, 318, 319, 320, 321, 322, 323, 324, 325, 326, 327, 328, 329, 330, 331, 332, 333, 334, 335, 336, 337, 338, 339, 340, 341, 342, 343, 344, 345, 346, 347, 348, 349, 350, 351, 352, 353, 354, 355, 356, 357, 358, 359, 360, 361, 362, 363, 364, 365, 366, 367, 368, 369, 370, 371, 372, 373, 374, 375, 376, 377, 378, 379, 380, 381, 382, 383, 384, 385, 386, 387, 388, 389, 390, 391, 392, 393, 394, 395, 396, 397, 398, 399, 400, 401, 402, 403, 404, 405, 406, 407, 408, 409, 410, 411, 412, 413, 414, 415, 416, 417, 418, 419, 420, 421, 422, 423, 424, 425, 426, 427, 428, 429, 430, 431, 432, 433, 434, 435, 436, 437, 438, 439, 440, 441, 442, 443, 444, 445, 446, 447, 448, 449, 450, 451, 452, 453, 454, 455, 456, 457, 458, 459, 460, 461, 462, 463, 464, 465, 466, 467, 468, 469, 470, 471, 472, 473, 474, 475, 476, 477, 478, 479, 480, 481, 482],
      "AcquisitionTime": ["095209.062500", "095210.552500", "095212.042500", "095213.532500", "095215.022500", "095216.512500", "095218.002500", "095219.492500", "095220.982500", "095222.472500", "095223.962500", "095225.452500", "095226.942500", "095228.432500", "095229.922500", "095231.412500", "095232.902500", "095234.392500", "095235.882500", "095237.372500", "095238.862500", "095240.352500", "095241.842500", "095243.332500", "095244.822500", "095246.312500", "095247.802500", "095249.292500", "095250.782500", "095252.272500", "095253.762500", "095255.252500", "095256.742500", "095258.232500", "095259.722500", "095301.212500", "095302.702500", "095304.192500", "095305.682500", "095307.172500", "095308.662500", "095310.152500", "095311.642500", "095313.132500", "095314.622500", "095316.112500", "095317.602500", "095319.092500", "095320.582500", "095322.072500", "095323.562500", "095325.052500", "095326.542500", "095328.032500", "095329.522500", "095331.012500", "095332.502500", "095333.992500", "095335.482500", "095336.972500", "095338.462500", "095339.952500", "095341.442500", "095342.932500", "095344.422500", "095345.912500", "095347.402500", "095348.892500", "095350.382500", "095351.872500", "095353.362500", "095354.852500", "095356.342500", "095357.832500", "095359.322500", "095400.812500", "095402.302500", "095403.792500", "095405.282500", "095406.772500", "095408.262500", "095409.752500", "095411.242500", "095412.732500", "095414.222500", "095415.712500", "095417.202500", "095418.692500", "095420.182500", "095421.672500", "095423.162500", "095424.652500", "095426.142500", "095427.632500", "095429.122500", "095430.612500", "095432.102500", "095433.592500", "095435.082500", "095436.572500", "095438.062500", "095439.552500", "095441.042500", "095442.532500", "095444.022500", "095445.512500", "095447.002500", "095448.492500", "095449.982500", "095451.472500", "095452.962500", "095454.452500", "095455.942500", "095457.432500", "095458.922500", "095500.412500", "095501.902500", "095503.392500", "095504.882500", "095506.372500", "095507.862500", "095509.352500", "095510.842500", "095512.332500", "095513.822500", "095515.312500", "095516.802500", "095518.292500", "095519.782500", "095521.272500", "095522.762500", "095524.252500", "095525.742500", "095527.232500", "095528.722500", "095530.212500", "095531.702500", "095533.192500", "095534.682500", "095536.172500", "095537.662500", "095539.152500", "095540.642500", "095542.132500", "095543.622500", "095545.112500", "095546.602500", "095548.092500", "095549.582500", "095551.072500", "095552.562500", "095554.052500", "095555.542500", "095557.032500", "095558.522500", "095600.012500", "095601.502500", "095602.992500", "095604.482500", "095605.972500", "095607.462500", "095608.952500", "095610.442500", "095611.932500", "095613.422500", "095614.912500", "095616.402500", "095617.892500", "095619.382500", "095620.872500", "095622.362500", "095623.852500", "095625.342500", "095626.832500", "095628.322500", "095629.812500", "095631.302500", "095632.792500", "095634.282500", "095635.772500", "095637.262500", "095638.752500", "095640.242500", "095641.732500", "095643.222500", "095644.712500", "095646.202500", "095647.692500", "095649.182500", "095650.672500", "095652.162500", "095653.652500", "095655.142500", "095656.632500", "095658.122500", "095659.612500", "095701.102500", "095702.592500", "095704.082500", "095705.572500", "095707.062500", "095708.552500", "095710.042500", "095711.532500", "095713.022500", "095714.512500", "095716.002500", "095717.492500", "095718.982500", "095720.472500", "095721.962500", "095723.452500", "095724.942500", "095726.432500", "095727.922500", "095729.412500", "095730.902500", "095732.392500", "095733.882500", "095735.372500", "095736.862500", "095738.352500", "095739.842500", "095741.332500", "095742.822500", "095744.312500", "095745.802500", "095747.292500", "095748.782500", "095750.272500", "095751.762500", "095753.252500", "095754.742500", "095756.232500", "095757.722500", "095759.212500", "095800.702500", "095802.192500", "095803.682500", "095805.172500", "095806.662500", "095808.152500", "095809.642500", "095811.132500", "095812.622500", "095814.112500", "095815.602500", "095817.092500", "095818.582500", "095820.072500", "095821.562500", "095823.052500", "095824.542500", "095826.032500", "095827.522500", "095829.012500", "095830.502500", "095831.992500", "095833.482500", "095834.972500", "095836.462500", "095837.952500", "095839.442500", "095840.932500", "095842.422500", "095843.912500", "095845.402500", "095846.892500", "095848.382500", "095849.872500", "095851.362500", "095852.852500", "095854.342500", "095855.832500", "095857.322500", "095858.812500", "095900.302500", "095901.792500", "095903.282500", "095904.772500", "095906.262500", "095907.752500", "095909.242500", "095910.732500", "095912.222500", "095913.712500", "095915.202500", "095916.692500", "095918.182500", "095919.672500", "095921.162500", "095922.652500", "095924.142500", "095925.632500", "095927.122500", "095928.612500", "095930.102500", "095931.592500", "095933.082500", "095934.572500", "095936.062500", "095937.552500", "095939.042500", "095940.532500", "095942.022500", "095943.512500", "095945.002500", "095946.492500", "095947.982500", "095949.472500", "095950.962500", "095952.452500", "095953.942500", "095955.432500", "095956.922500", "095958.412500", "095959.902500", "100001.392500", "100002.882500", "100004.372500", "100005.862500", "100007.352500", "100008.842500", "100010.332500", "100011.822500", "100013.312500", "100014.802500", "100016.292500", "100017.782500", "100019.272500", "100020.762500", "100022.252500", "100023.742500", "100025.232500", "100026.722500", "100028.212500", "100029.702500", "100031.192500", "100032.682500", "100034.172500", "100035.662500", "100037.152500", "100038.642500", "100040.132500", "100041.622500", "100043.112500", "100044.602500", "100046.092500", "100047.582500", "100049.072500", "100050.562500", "100052.052500", "100053.542500", "100055.032500", "100056.522500", "100058.012500", "100059.502500", "100100.992500", "100102.482500", "100103.972500", "100105.462500", "100106.952500", "100108.442500", "100109.932500", "100111.422500", "100112.912500", "100114.402500", "100115.892500", "100117.382500", "100118.872500", "100120.362500", "100121.852500", "100123.342500", "100124.832500", "100126.322500", "100127.812500", "100129.302500", "100130.792500", "100132.282500", "100133.772500", "100135.262500", "100136.752500", "100138.242500", "100139.732500", "100141.222500", "100142.712500", "100144.202500", "100145.692500", "100147.182500", "100148.672500", "100150.162500", "100151.652500", "100153.142500", "100154.632500", "100156.122500", "100157.612500", "100159.102500", "100200.592500", "100202.082500", "100203.572500", "100205.062500", "100206.552500", "100208.042500", "100209.532500", "100211.022500", "100212.512500", "100214.002500", "100215.492500", "100216.982500", "100218.472500", "100219.962500", "100221.452500", "100222.942500", "100224.432500", "100225.922500", "100227.412500", "100228.902500", "100230.392500", "100231.882500", "100233.372500", "100234.862500", "100236.352500", "100237.842500", "100239.332500", "100240.822500", "100242.312500", "100243.802500", "100245.292500", "100246.782500", "100248.272500", "100249.762500", "100251.252500", "100252.742500", "100254.232500", "100255.722500", "100257.212500", "100258.702500", "100300.192500", "100301.682500", "100303.172500", "100304.662500", "100306.152500", "100307.642500", "100309.132500", "100310.622500", "100312.112500", "100313.602500", "100315.092500", "100316.582500", "100318.072500", "100319.562500", "100321.052500", "100322.542500", "100324.032500", "100325.522500", "100327.012500", "100328.502500", "100329.992500", "100331.482500", "100332.972500", "100334.462500", "100335.952500", "100337.442500", "100338.932500", "100340.422500", "100341.912500", "100343.402500", "100344.892500", "100346.382500", "100347.872500", "100349.362500", "100350.852500", "100352.342500", "100353.832500", "100355.322500", "100356.812500", "100358.302500", "100359.792500", "100401.282500", "100402.772500", "100404.262500", "100405.752500"],
      "ContentTime": ["095353.918000", "095353.922000", "095353.924000", "095353.927000", "095353.930000", "095353.933000", "095353.936000", "095353.938000", "095353.941000", "095353.944000", "095353.947000", "095353.950000", "095353.953000", "095353.955000", "095353.964000", "095353.966000", "095353.969000", "095353.972000", "095353.975000", "095353.978000", "095353.980000", "095353.983000", "095353.986000", "095353.989000", "095354.004000", "095354.007000", "095354.009000", "095354.012000", "095354.015000", "095413.889000", "095413.892000", "095413.895000", "095413.897000", "095413.900000", "095413.903000", "095413.906000", "095413.909000", "095413.911000", "095413.917000", "095413.935000", "095413.937000", "095413.940000", "095413.943000", "095413.946000", "095413.949000", "095413.951000", "095413.954000", "095413.957000", "095413.960000", "095433.890000", "095433.893000", "095433.896000", "095433.899000", "095433.901000", "095433.911000", "095433.914000", "095433.917000", "095433.920000", "095433.922000", "095433.925000", "095433.928000", "095433.931000", "095433.934000", "095433.936000", "095433.939000", "095433.942000", "095433.945000", "095433.948000", "095433.950000", "095453.890000", "095453.893000", "095453.896000", "095453.898000", "095453.901000", "095453.904000", "095453.907000", "095453.909000", "095453.912000", "095453.915000", "095453.918000", "095453.921000", "095453.924000", "095453.926000", "095453.930000", "095453.933000", "095453.936000", "095453.939000", "095453.942000", "095453.952000", "095513.889000", "095513.892000", "095513.895000", "095513.897000", "095513.900000", "095513.903000", "095513.906000", "095513.916000", "095513.919000", "095513.922000", "095513.924000", "095513.927000", "095513.930000", "095513.933000", "095513.936000", "095513.938000", "095513.941000", "095513.944000", "095513.947000", "095513.950000", "095533.889000", "095533.892000", "095533.896000", "095533.899000", "095533.902000", "095533.905000", "095533.908000", "095533.911000", "095533.914000", "095533.917000", "095533.920000", "095533.923000", "095533.925000", "095533.928000", "095533.931000", "095533.934000", "095533.936000", "095533.939000", "095533.942000", "095533.945000", "095553.889000", "095553.892000", "095553.895000", "095553.897000", "095553.900000", "095553.903000", "095553.906000", "095553.909000", "095553.911000", "095553.914000", "095553.917000", "095553.920000", "095553.923000", "095553.925000", "095553.928000", "095553.931000", "095553.934000", "095553.937000", "095553.939000", "095553.942000", "095553.945000", "095633.889000", "095633.892000", "095633.895000", "095633.899000", "095633.902000", "095633.904000", "095633.907000", "095633.910000", "095633.913000", "095633.929000", "095633.932000", "095633.934000", "095633.937000", "095633.940000", "095633.943000", "095633.946000", "095633.948000", "095633.951000", "095633.954000", "095633.957000", "095633.960000", "095633.962000", "095633.965000", "095633.968000", "095633.971000", "095633.974000", "095713.890000", "095713.893000", "095713.896000", "095713.899000", "095713.901000", "095713.904000", "095713.907000", "095713.910000", "095713.913000", "095713.915000", "095713.918000", "095713.921000", "095713.924000", "095713.927000", "095713.929000", "095713.932000", "095713.935000", "095713.938000", "095713.941000", "095713.944000", "095713.946000", "095713.949000", "095713.952000", "095713.955000", "095713.958000", "095713.960000", "095713.963000", "095753.889000", "095753.892000", "095753.895000", "095753.898000", "095753.900000", "095753.903000", "095753.906000", "095753.909000", "095753.911000", "095753.914000", "095753.937000", "095753.940000", "095753.943000", "095753.945000", "095753.948000", "095753.951000", "095753.954000", "095753.957000", "095753.959000", "095753.962000", "095753.965000", "095753.968000", "095753.971000", "095753.973000", "095753.976000", "095753.979000", "095753.982000", "095833.889000", "095833.892000", "095833.895000", "095833.898000", "095833.901000", "095833.903000", "095833.906000", "095833.909000", "095833.912000", "095833.915000", "095833.917000", "095833.920000", "095833.923000", "095833.926000", "095833.929000", "095833.931000", "095833.934000", "095833.937000", "095833.940000", "095833.943000", "095833.945000", "095833.948000", "095833.951000", "095833.954000", "095833.957000", "095833.959000", "095833.962000", "095913.890000", "095913.893000", "095913.896000", "095913.899000", "095913.901000", "095913.904000", "095913.907000", "095913.910000", "095913.913000", "095913.915000", "095913.918000", "095913.921000", "095913.924000", "095913.927000", "095913.929000", "095913.932000", "095913.935000", "095913.938000", "095913.941000", "095913.944000", "095913.946000", "095913.949000", "095913.952000", "095913.955000", "095913.958000", "095913.961000", "095913.963000", "095953.889000", "095953.892000", "095953.895000", "095953.898000", "095953.900000", "095953.903000", "095953.906000", "095953.909000", "095953.912000", "095953.914000", "095953.917000", "095953.920000", "095953.923000", "095953.926000", "095953.928000", "095953.931000", "095953.934000", "095953.937000", "095953.940000", "095953.943000", "095953.945000", "095953.948000", "095953.951000", "095953.954000", "095953.957000", "095953.959000", "095953.962000", "100033.889000", "100033.892000", "100033.895000", "100033.898000", "100033.900000", "100033.903000", "100033.906000", "100033.909000", "100033.912000", "100033.914000", "100033.917000", "100033.920000", "100033.923000", "100033.926000", "100033.928000", "100033.931000", "100033.934000", "100033.937000", "100033.940000", "100033.942000", "100033.945000", "100033.948000", "100033.951000", "100033.954000", "100033.956000", "100033.963000", "100033.966000", "100113.890000", "100113.893000", "100113.896000", "100113.899000", "100113.901000", "100113.904000", "100113.907000", "100113.910000", "100113.913000", "100113.915000", "100113.918000", "100113.921000", "100113.924000", "100113.927000", "100113.930000", "100113.933000", "100113.936000", "100113.938000", "100113.941000", "100113.944000", "100113.947000", "100113.950000", "100113.952000", "100113.955000", "100113.958000", "100113.961000", "100153.890000", "100153.893000", "100153.896000", "100153.899000", "100153.901000", "100153.904000", "100153.907000", "100153.910000", "100153.913000", "100153.916000", "100153.918000", "100153.921000", "100153.924000", "100153.927000", "100153.930000", "100153.932000", "100153.935000", "100153.938000", "100153.941000", "100153.944000", "100153.946000", "100153.949000", "100153.952000", "100153.955000", "100153.958000", "100153.960000", "100153.963000", "100233.889000", "100233.892000", "100233.895000", "100233.898000", "100233.901000", "100233.904000", "100233.907000", "100233.910000", "100233.913000", "100233.916000", "100233.919000", "100233.931000", "100233.934000", "100233.937000", "100233.940000", "100233.943000", "100233.946000", "100233.948000", "100233.951000", "100233.954000", "100233.957000", "100233.960000", "100233.962000", "100233.965000", "100233.968000", "100233.971000", "100233.974000", "100313.889000", "100313.892000", "100313.895000", "100313.898000", "100313.900000", "100313.903000", "100313.906000", "100313.909000", "100313.912000", "100313.914000", "100313.917000", "100313.920000", "100313.923000", "100313.926000", "100313.929000", "100313.931000", "100313.934000", "100313.937000", "100313.940000", "100313.943000", "100313.945000", "100313.948000", "100313.951000", "100313.954000", "100313.957000", "100313.960000", "100313.962000", "100353.890000", "100353.893000", "100353.901000", "100353.904000", "100353.907000", "100353.910000", "100353.913000", "100353.916000", "100353.918000", "100353.921000", "100353.924000", "100353.927000", "100353.930000", "100353.932000", "100353.935000", "100353.938000", "100353.941000", "100353.944000", "100353.947000", "100353.949000", "100353.952000", "100353.955000", "100353.958000", "100353.961000", "100353.963000", "100353.966000", "100353.969000", "100408.388000", "100408.392000", "100408.394000", "100408.397000", "100408.400000", "100408.403000", "100408.406000", "100408.409000", "100408.411000", "100408.414000"],
