{
  "AcquisitionMatrixPE": 104,
  "AcquisitionNumber": 1,
  "AcquisitionTime": "13:48:6.677500",
  "BandwidthPerPixelPhaseEncode": 17.17,
  "BaseResolution": 104,
  "BodyPartExamined": "BRAIN",
  "CoilString": "HC1-7;NC1_2",
  "ConsistencyInfo": "N4_VE11C_LATEST_20160120",
  "ConversionSoftware": "dcm2niix",
  "ConversionSoftwareVersion": "v1.0.20190902",
  "DerivedVendorReportedEchoSpacing": 0.000560011,
  "DeviceSerialNumber": "167006",
  "DwellTime": 2.1e-06,
  "EchoTime": 0.037,
  "EchoTrainLength": 104,
  "EffectiveEchoSpacing": 0.000560011,
  "FlipAngle": 52,
  "ImageComments": "Unaliased_MB4_PE3_LB",
  "ImageOrientationPatientDICOM": [0.99992, -0.00495253, 0.0116009, 0.0101224, 0.863807, -0.503722],
  "ImageType": [
    "ORIGINAL",
    "PRIMARY",
    "M",
    "MB",
    "ND",
    "MOSAIC"
],
  "ImagingFrequency": 123.259,
  "InPlanePhaseEncodingDirectionDICOM": "COL",
  "InstitutionAddress": "Chemin_Queen-Mary_4565_Montreal_District_CA_H3W_1W5",
  "InstitutionName": "IUGM",
  "InstitutionalDepartmentName": "Department",
  "MRAcquisitionType": "2D",
  "MagneticFieldStrength": 3,
  "Manufacturer": "Siemens",
  "ManufacturersModelName": "Prisma_fit",
  "Modality": "MR",
  "MultibandAccelerationFactor": 4,
  "PartialFourier": 1,
  "PatientPosition": "HFS",
  "PercentPhaseFOV": 100,
  "PhaseEncodingDirection": "j",
  "PhaseEncodingSteps": 104,
  "PhaseResolution": 1,
  "PixelBandwidth": 2290,
  "ProcedureStepDescription": "video_friends",
  "ProtocolName": "func_task-friends-s05e18a",
  "PulseSequenceDetails": "%CustomerSeq%_cmrr_mbep2d_bold",
  "ReceiveCoilActiveElements": "HC1-7;NC1,2",
  "ReceiveCoilName": "HeadNeck_64",
  "ReconMatrixPE": 104,
  "RepetitionTime": 1.49,
  "SAR": 0.0368573,
  "ScanOptions": "FS",
  "ScanningSequence": "EP",
  "SequenceName": "epfid2d1_104",
  "SequenceVariant": "SK_SS",
  "SeriesDescription": "func_task-friends-s05e18a",
  "SeriesNumber": 9,
  "ShimSetting": [624, -7204, -8859, 371, -15, -165, 3, 0],
  "SliceThickness": 2,
  "SliceTiming": [0, 0.785, 0.1, 0.8825, 0.1975, 0.98, 0.295, 1.0775, 0.3925, 1.1775, 0.49, 1.275, 0.59, 1.3725, 0.6875, 0, 0.785, 0.1, 0.8825, 0.1975, 0.98, 0.295, 1.0775, 0.3925, 1.1775, 0.49, 1.275, 0.59, 1.3725, 0.6875, 0, 0.785, 0.1, 0.8825, 0.1975, 0.98, 0.295, 1.0775, 0.3925, 1.1775, 0.49, 1.275, 0.59, 1.3725, 0.6875, 0, 0.785, 0.1, 0.8825, 0.1975, 0.98, 0.295, 1.0775, 0.3925, 1.1775, 0.49, 1.275, 0.59, 1.3725, 0.6875],
  "SoftwareVersions": "syngo_MR_E11",
  "SpacingBetweenSlices": 2,
  "StationName": "MRC35049",
  "TaskName": "s05e18a",
  "TotalReadoutTime": 0.0576811,
  "TxRefAmp": 251.263,
  "WipMemBlock": "a30c22b8-6d3f-4dcb-9141-bb71e5ce6d9b||Sequence: R016 ve11c/master r/e634e98; Dec 19 2017 11:00:25 by eja",
  "dcmmeta_affine": [
    [-1.9998408555984497, 0.020244885236024857, 0.015052435919642448, 101.52354431152344],
    [0.009905057027935982, 1.7276135683059692, -1.007597804069519, -60.810420989990234],
    [0.023201746866106987, 1.0074430704116821, 1.7275763750076294, -95.55516815185547],
    [0.0, 0.0, 0.0, 1.0]
],
  "dcmmeta_reorient_transform": [
    [0.0, -1.0, 0.0, 103.0],
    [1.0, 0.0, 0.0, 0.0],
    [0.0, 0.0, 1.0, 0.0],
    [0.0, 0.0, 0.0, 1.0]
],
  "dcmmeta_shape": [104, 104, 60, 501],
  "dcmmeta_slice_dim": 2,
  "dcmmeta_version": 0.6,
  "global": {
    "const": {
      "AcquisitionMatrix": [104, 0, 0, 104],
      "AngioFlag": "N",
      "BitsAllocated": 16,
      "BitsStored": 16,
      "BodyPartExamined": "BRAIN",
      "Columns": 832,
      "EchoNumbers": 1,
      "EchoTime": 37.0,
      "EchoTrainLength": 104,
      "FlipAngle": 52.0,
      "HighBit": 15,
      "ImageOrientationPatient": [0.9999204429359, -0.0049525282945, 0.01160087334485, 0.01012244247247, 0.86380678439893, -0.5037215256317],
      "ImagePositionPatient": [-838.91998608445, -742.37967404701, 366.47530463873],
      "ImageType": [
        "ORIGINAL",
        "PRIMARY",
        "M",
        "MB",
        "ND",
        "MOSAIC"
],
      "ImagedNucleus": "1H",
      "ImagingFrequency": 123.258953,
      "InPlanePhaseEncodingDirection": "COL",
      "MRAcquisitionType": "2D",
      "MagneticFieldStrength": 3.0,
      "Manufacturer": "SIEMENS",
      "ManufacturerModelName": "Prisma_fit",
      "Modality": "MR",
      "NumberOfAverages": 1.0,
      "NumberOfPhaseEncodingSteps": 104,
      "PercentPhaseFieldOfView": 100.0,
      "PercentSampling": 100.0,
      "PerformedProcedureStepStartTime": "131000.831000",
      "PhotometricInterpretation": "MONOCHROME2",
      "PixelBandwidth": 2290.0,
      "PixelRepresentation": 0,
      "PixelSpacing": [2.0, 2.0],
      "ProtocolName": "func_task-friends-s05e18a",
      "RepetitionTime": 1490.0,
      "Rows": 832,
      "SAR": 0.03685731080705,
      "SamplesPerPixel": 1,
      "ScanOptions": "FS",
      "ScanningSequence": "EP",
      "SequenceName": "epfid2d1_104",
      "SequenceVariant": [
        "SK",
        "SS"
],
      "SeriesDescription": "func_task-friends-s05e18a",
      "SeriesNumber": 9,
      "SeriesTime": "134938.993000",
      "SliceLocation": -51.139112179906,
      "SliceThickness": 2.0,
      "SmallestImagePixelValue": 0,
      "SoftwareVersions": "syngo MR E11",
      "SpacingBetweenSlices": 1.9999999921253,
      "SpecificCharacterSet": "ISO_IR 100",
      "StudyID": "1",
      "StudyTime": "131000.758000",
      "TransmitCoilName": "Body",
      "VariableFlipAngleFlag": "N",
      "WindowCenterWidthExplanation": "Algo1",
      "dBdt": 0.0},
    "slices": {}
  },
  "time": {
    "samples": {
      "AcquisitionNumber": [1, 2, 3, 4, 5, 6, 7, 8, 9, 10, 11, 12, 13, 14, 15, 16, 17, 18, 19, 20, 21, 22, 23, 24, 25, 26, 27, 28, 29, 30, 31, 32, 33, 34, 35, 36, 37, 38, 39, 40, 41, 42, 43, 44, 45, 46, 47, 48, 49, 50, 51, 52, 53, 54, 55, 56, 57, 58, 59, 60, 61, 62, 63, 64, 65, 66, 67, 68, 69, 70, 71, 72, 73, 74, 75, 76, 77, 78, 79, 80, 81, 82, 83, 84, 85, 86, 87, 88, 89, 90, 91, 92, 93, 94, 95, 96, 97, 98, 99, 100, 101, 102, 103, 104, 105, 106, 107, 108, 109, 110, 111, 112, 113, 114, 115, 116, 117, 118, 119, 120, 121, 122, 123, 124, 125, 126, 127, 128, 129, 130, 131, 132, 133, 134, 135, 136, 137, 138, 139, 140, 141, 142, 143, 144, 145, 146, 147, 148, 149, 150, 151, 152, 153, 154, 155, 156, 157, 158, 159, 160, 161, 162, 163, 164, 165, 166, 167, 168, 169, 170, 171, 172, 173, 174, 175, 176, 177, 178, 179, 180, 181, 182, 183, 184, 185, 186, 187, 188, 189, 190, 191, 192, 193, 194, 195, 196, 197, 198, 199, 200, 201, 202, 203, 204, 205, 206, 207, 208, 209, 210, 211, 212, 213, 214, 215, 216, 217, 218, 219, 220, 221, 222, 223, 224, 225, 226, 227, 228, 229, 230, 231, 232, 233, 234, 235, 236, 237, 238, 239, 240, 241, 242, 243, 244, 245, 246, 247, 248, 249, 250, 251, 252, 253, 254, 255, 256, 257, 258, 259, 260, 261, 262, 263, 264, 265, 266, 267, 268, 269, 270, 271, 272, 273, 274, 275, 276, 277, 278, 279, 280, 281, 282, 283, 284, 285, 286, 287, 288, 289, 290, 291, 292, 293, 294, 295, 296, 297, 298, 299, 300, 301, 302, 303, 304, 305, 306, 307, 308, 309, 310, 311, 312, 313, 314, 315, 316, 317, 318, 319, 320, 321, 322, 323, 324, 325, 326, 327, 328, 329, 330, 331, 332, 333, 334, 335, 336, 337, 338, 339, 340, 341, 342, 343, 344, 345, 346, 347, 348, 349, 350, 351, 352, 353, 354, 355, 356, 357, 358, 359, 360, 361, 362, 363, 364, 365, 366, 367, 368, 369, 370, 371, 372, 373, 374, 375, 376, 377, 378, 379, 380, 381, 382, 383, 384, 385, 386, 387, 388, 389, 390, 391, 392, 393, 394, 395, 396, 397, 398, 399, 400, 401, 402, 403, 404, 405, 406, 407, 408, 409, 410, 411, 412, 413, 414, 415, 416, 417, 418, 419, 420, 421, 422, 423, 424, 425, 426, 427, 428, 429, 430, 431, 432, 433, 434, 435, 436, 437, 438, 439, 440, 441, 442, 443, 444, 445, 446, 447, 448, 449, 450, 451, 452, 453, 454, 455, 456, 457, 458, 459, 460, 461, 462, 463, 464, 465, 466, 467, 468, 469, 470, 471, 472, 473, 474, 475, 476, 477, 478, 479, 480, 481, 482, 483, 484, 485, 486, 487, 488, 489, 490, 491, 492, 493, 494, 495, 496, 497, 498, 499, 500, 501],
      "AcquisitionTime": ["134806.677500", "134808.167500", "134809.657500", "134811.147500", "134812.637500", "134814.127500", "134815.617500", "134817.107500", "134818.597500", "134820.087500", "134821.577500", "134823.067500", "134824.557500", "134826.047500", "134827.537500", "134829.027500", "134830.517500", "134832.007500", "134833.497500", "134834.987500", "134836.477500", "134837.967500", "134839.457500", "134840.947500", "134842.437500", "134843.927500", "134845.417500", "134846.907500", "134848.397500", "134849.887500", "134851.377500", "134852.867500", "134854.357500", "134855.847500", "134857.337500", "134858.827500", "134900.317500", "134901.807500", "134903.297500", "134904.787500", "134906.277500", "134907.767500", "134909.257500", "134910.747500", "134912.237500", "134913.727500", "134915.217500", "134916.707500", "134918.197500", "134919.687500", "134921.177500", "134922.667500", "134924.157500", "134925.647500", "134927.137500", "134928.627500", "134930.117500", "134931.607500", "134933.097500", "134934.587500", "134936.077500", "134937.567500", "134939.057500", "134940.547500", "134942.037500", "134943.527500", "134945.017500", "134946.507500", "134947.997500", "134949.487500", "134950.977500", "134952.467500", "134953.957500", "134955.447500", "134956.937500", "134958.427500", "134959.917500", "135001.407500", "135002.897500", "135004.387500", "135005.877500", "135007.367500", "135008.857500", "135010.347500", "135011.837500", "135013.327500", "135014.817500", "135016.307500", "135017.797500", "135019.287500", "135020.777500", "135022.267500", "135023.757500", "135025.247500", "135026.737500", "135028.227500", "135029.717500", "135031.207500", "135032.697500", "135034.187500", "135035.677500", "135037.167500", "135038.657500", "135040.147500", "135041.637500", "135043.127500", "135044.617500", "135046.107500", "135047.597500", "135049.087500", "135050.577500", "135052.067500", "135053.557500", "135055.047500", "135056.537500", "135058.027500", "135059.517500", "135101.007500", "135102.497500", "135103.987500", "135105.477500", "135106.967500", "135108.457500", "135109.947500", "135111.437500", "135112.927500", "135114.417500", "135115.907500", "135117.397500", "135118.887500", "135120.377500", "135121.867500", "135123.357500", "135124.847500", "135126.337500", "135127.827500", "135129.317500", "135130.807500", "135132.297500", "135133.787500", "135135.277500", "135136.767500", "135138.257500", "135139.747500", "135141.237500", "135142.727500", "135144.217500", "135145.707500", "135147.197500", "135148.687500", "135150.177500", "135151.667500", "135153.157500", "135154.647500", "135156.137500", "135157.627500", "135159.117500", "135200.607500", "135202.097500", "135203.587500", "135205.077500", "135206.567500", "135208.057500", "135209.547500", "135211.037500", "135212.527500", "135214.017500", "135215.507500", "135216.997500", "135218.487500", "135219.977500", "135221.467500", "135222.957500", "135224.447500", "135225.937500", "135227.427500", "135228.917500", "135230.407500", "135231.897500", "135233.387500", "135234.877500", "135236.367500", "135237.857500", "135239.347500", "135240.837500", "135242.327500", "135243.817500", "135245.307500", "135246.797500", "135248.287500", "135249.777500", "135251.267500", "135252.757500", "135254.247500", "135255.737500", "135257.227500", "135258.717500", "135300.207500", "135301.697500", "135303.187500", "135304.677500", "135306.167500", "135307.657500", "135309.147500", "135310.637500", "135312.127500", "135313.617500", "135315.107500", "135316.597500", "135318.087500", "135319.577500", "135321.067500", "135322.557500", "135324.047500", "135325.537500", "135327.027500", "135328.517500", "135330.007500", "135331.497500", "135332.987500", "135334.477500", "135335.967500", "135337.457500", "135338.947500", "135340.437500", "135341.927500", "135343.417500", "135344.907500", "135346.397500", "135347.887500", "135349.377500", "135350.867500", "135352.357500", "135353.847500", "135355.337500", "135356.827500", "135358.317500", "135359.807500", "135401.297500", "135402.787500", "135404.277500", "135405.767500", "135407.257500", "135408.747500", "135410.237500", "135411.727500", "135413.217500", "135414.707500", "135416.197500", "135417.687500", "135419.177500", "135420.667500", "135422.157500", "135423.647500", "135425.137500", "135426.627500", "135428.117500", "135429.607500", "135431.097500", "135432.587500", "135434.077500", "135435.567500", "135437.057500", "135438.547500", "135440.037500", "135441.527500", "135443.017500", "135444.507500", "135445.997500", "135447.487500", "135448.977500", "135450.467500", "135451.957500", "135453.447500", "135454.937500", "135456.427500", "135457.917500", "135459.407500", "135500.897500", "135502.387500", "135503.877500", "135505.367500", "135506.857500", "135508.347500", "135509.837500", "135511.327500", "135512.817500", "135514.307500", "135515.797500", "135517.287500", "135518.777500", "135520.267500", "135521.757500", "135523.247500", "135524.737500", "135526.227500", "135527.717500", "135529.207500", "135530.697500", "135532.187500", "135533.677500", "135535.167500", "135536.657500", "135538.147500", "135539.637500", "135541.127500", "135542.617500", "135544.107500", "135545.597500", "135547.087500", "135548.577500", "135550.067500", "135551.557500", "135553.047500", "135554.537500", "135556.027500", "135557.517500", "135559.007500", "135600.497500", "135601.987500", "135603.477500", "135604.967500", "135606.457500", "135607.947500", "135609.437500", "135610.927500", "135612.417500", "135613.907500", "135615.397500", "135616.887500", "135618.377500", "135619.867500", "135621.357500", "135622.847500", "135624.337500", "135625.827500", "135627.317500", "135628.807500", "135630.297500", "135631.787500", "135633.277500", "135634.767500", "135636.257500", "135637.747500", "135639.237500", "135640.727500", "135642.217500", "135643.707500", "135645.197500", "135646.687500", "135648.177500", "135649.667500", "135651.157500", "135652.647500", "135654.137500", "135655.627500", "135657.117500", "135658.607500", "135700.097500", "135701.587500", "135703.077500", "135704.567500", "135706.057500", "135707.547500", "135709.037500", "135710.527500", "135712.017500", "135713.507500", "135714.997500", "135716.487500", "135717.977500", "135719.467500", "135720.957500", "135722.447500", "135723.937500", "135725.427500", "135726.917500", "135728.407500", "135729.897500", "135731.387500", "135732.877500", "135734.367500", "135735.857500", "135737.347500", "135738.837500", "135740.327500", "135741.817500", "135743.307500", "135744.797500", "135746.287500", "135747.777500", "135749.267500", "135750.757500", "135752.247500", "135753.737500", "135755.227500", "135756.717500", "135758.207500", "135759.697500", "135801.187500", "135802.677500", "135804.167500", "135805.657500", "135807.147500", "135808.637500", "135810.127500", "135811.617500", "135813.107500", "135814.597500", "135816.087500", "135817.577500", "135819.067500", "135820.557500", "135822.047500", "135823.537500", "135825.027500", "135826.517500", "135828.007500", "135829.497500", "135830.987500", "135832.477500", "135833.967500", "135835.457500", "135836.947500", "135838.437500", "135839.927500", "135841.417500", "135842.907500", "135844.397500", "135845.887500", "135847.377500", "135848.867500", "135850.357500", "135851.847500", "135853.337500", "135854.827500", "135856.317500", "135857.807500", "135859.297500", "135900.787500", "135902.277500", "135903.767500", "135905.257500", "135906.747500", "135908.237500", "135909.727500", "135911.217500", "135912.707500", "135914.197500", "135915.687500", "135917.177500", "135918.667500", "135920.157500", "135921.647500", "135923.137500", "135924.627500", "135926.117500", "135927.607500", "135929.097500", "135930.587500", "135932.077500", "135933.567500", "135935.057500", "135936.547500", "135938.037500", "135939.527500", "135941.017500", "135942.507500", "135943.997500", "135945.487500", "135946.977500", "135948.467500", "135949.957500", "135951.447500", "135952.937500", "135954.427500", "135955.917500", "135957.407500", "135958.897500", "140000.387500", "140001.877500", "140003.367500", "140004.857500", "140006.347500", "140007.837500", "140009.327500", "140010.817500", "140012.307500", "140013.797500", "140015.287500", "140016.777500", "140018.267500", "140019.757500", "140021.247500", "140022.737500", "140024.227500", "140025.717500", "140027.207500", "140028.697500", "140030.187500", "140031.677500"],
      "ContentTime": ["134938.995000", "134939.000000", "134939.003000", "134939.006000", "134939.009000", "134939.011000", "134939.015000", "134939.017000", "134939.020000", "134939.023000", "134939.026000", "134939.029000", "134939.032000", "134939.035000", "134939.038000", "134939.040000", "134939.043000", "134939.046000", "134939.049000", "134939.052000", "134939.054000", "134958.959000", "134958.962000", "134958.965000", "134958.967000", "134958.970000", "134958.973000", "134958.976000", "134958.979000", "134958.982000", "134958.984000", "134958.987000", "134958.991000", "134958.994000", "134958.997000", "134959.000000", "134959.002000", "134959.005000", "134959.023000", "134959.026000", "134959.028000", "135018.960000", "135018.963000", "135018.966000", "135018.968000", "135018.971000", "135018.974000", "135018.981000", "135018.984000", "135018.987000", "135018.990000", "135018.993000", "135018.996000", "135018.998000", "135019.001000", "135019.004000", "135019.007000", "135019.010000", "135019.022000", "135019.024000", "135019.027000", "135038.960000", "135038.963000", "135038.966000", "135038.969000", "135038.971000", "135038.974000", "135038.977000", "135038.980000", "135038.983000", "135038.985000", "135038.988000", "135038.991000", "135038.994000", "135038.997000", "135039.000000", "135039.003000", "135039.006000", "135039.009000", "135039.012000", "135039.015000", "135058.960000", "135058.963000", "135058.966000", "135058.968000", "135058.971000", "135058.974000", "135058.977000", "135058.980000", "135058.982000", "135058.985000", "135058.988000", "135058.991000", "135058.994000", "135058.996000", "135058.999000", "135059.002000", "135059.005000", "135059.008000", "135059.011000", "135059.014000", "135118.959000", "135118.962000", "135118.965000", "135118.968000", "135118.971000", "135118.973000", "135118.976000", "135118.979000", "135118.982000", "135118.985000", "135118.988000", "135118.990000", "135118.993000", "135118.996000", "135119.000000", "135119.003000", "135119.006000", "135119.009000", "135119.012000", "135119.015000", "135138.959000", "135138.962000", "135138.965000", "135138.968000", "135138.971000", "135138.973000", "135138.976000", "135138.979000", "135138.982000", "135138.985000", "135138.992000", "135138.995000", "135138.998000", "135139.001000", "135139.004000", "135139.007000", "135139.009000", "135139.012000", "135139.015000", "135139.018000", "135139.021000", "135218.959000", "135218.962000", "135218.965000", "135218.968000", "135218.970000", "135218.973000", "135218.977000", "135218.981000", "135218.985000", "135218.988000", "135218.991000", "135218.994000", "135218.997000", "135219.001000", "135219.004000", "135219.007000", "135219.009000", "135219.012000", "135219.015000", "135219.018000", "135219.021000", "135219.023000", "135219.026000", "135219.029000", "135219.032000", "135219.035000", "135258.960000", "135258.963000", "135258.966000", "135258.969000", "135258.972000", "135258.975000", "135258.978000", "135258.980000", "135258.983000", "135258.986000", "135258.989000", "135258.992000", "135258.995000", "135258.998000", "135259.002000", "135259.004000", "135259.007000", "135259.010000", "135259.013000", "135259.016000", "135259.019000", "135259.021000", "135259.024000", "135259.027000", "135259.030000", "135259.033000", "135259.035000", "135338.959000", "135338.962000", "135338.973000", "135338.976000", "135338.979000", "135338.982000", "135338.985000", "135338.987000", "135338.990000", "135338.993000", "135338.996000", "135339.000000", "135339.003000", "135339.006000", "135339.009000", "135339.011000", "135339.014000", "135339.017000", "135339.020000", "135339.023000", "135339.026000", "135339.028000", "135339.031000", "135339.034000", "135339.037000", "135339.040000", "135339.043000", "135418.959000", "135418.962000", "135418.965000", "135418.968000", "135418.971000", "135418.973000", "135418.976000", "135418.979000", "135418.982000", "135418.985000", "135418.988000", "135418.991000", "135419.008000", "135419.011000", "135419.014000", "135419.017000", "135419.020000", "135419.023000", "135419.025000", "135419.028000", "135419.031000", "135419.034000", "135419.037000", "135419.040000", "135419.043000", "135419.045000", "135419.048000", "135458.960000", "135458.963000", "135458.966000", "135458.969000", "135458.971000", "135458.974000", "135458.977000", "135458.980000", "135458.983000", "135458.986000", "135458.989000", "135458.992000", "135458.995000", "135458.998000", "135459.001000", "135459.004000", "135459.006000", "135459.009000", "135459.012000", "135459.015000", "135459.018000", "135459.021000", "135459.024000", "135459.027000", "135459.029000", "135459.032000", "135459.035000", "135538.960000", "135538.963000", "135538.966000", "135538.969000", "135538.971000", "135538.974000", "135538.977000", "135538.980000", "135538.983000", "135538.986000", "135538.988000", "135538.991000", "135538.994000", "135538.997000", "135539.001000", "135539.004000", "135539.007000", "135539.009000", "135539.012000", "135539.015000", "135539.018000", "135539.021000", "135539.023000", "135539.026000", "135539.029000", "135539.032000", "135539.035000", "135618.959000", "135618.962000", "135618.965000", "135618.968000", "135618.971000", "135618.981000", "135618.983000", "135618.986000", "135618.989000", "135618.992000", "135618.995000", "135618.998000", "135619.001000", "135619.004000", "135619.007000", "135619.010000", "135619.013000", "135619.016000", "135619.018000", "135619.021000", "135619.024000", "135619.027000", "135619.030000", "135619.036000", "135619.039000", "135619.042000", "135619.044000", "135658.959000", "135658.962000", "135658.965000", "135658.968000", "135658.971000", "135658.974000", "135658.977000", "135658.980000", "135658.983000", "135658.986000", "135658.988000", "135658.991000", "135658.994000", "135658.997000", "135659.000000", "135659.003000", "135659.005000", "135659.008000", "135659.011000", "135659.014000", "135659.017000", "135659.020000", "135659.022000", "135659.025000", "135659.028000", "135659.031000", "135738.960000", "135738.963000", "135738.966000", "135738.969000", "135738.972000", "135738.975000", "135738.977000", "135738.980000", "135738.983000", "135738.986000", "135738.989000", "135738.992000", "135738.995000", "135738.998000", "135739.001000", "135739.005000", "135739.007000", "135739.010000", "135739.013000", "135739.016000", "135739.019000", "135739.022000", "135739.025000", "135739.028000", "135739.030000", "135739.033000", "135739.036000", "135818.959000", "135818.962000", "135818.965000", "135818.968000", "135818.970000", "135818.973000", "135818.976000", "135818.979000", "135818.982000", "135818.985000", "135818.988000", "135818.990000", "135818.993000", "135818.996000", "135819.000000", "135819.003000", "135819.006000", "135819.009000", "135819.011000", "135819.014000", "135819.017000", "135819.020000", "135819.023000", "135819.026000", "135819.029000", "135819.042000", "135819.045000", "135858.959000", "135858.962000", "135858.965000", "135858.968000", "135858.970000", "135858.973000", "135858.976000", "135858.979000", "135858.997000", "135859.001000", "135859.004000", "135859.007000", "135859.010000", "135859.013000", "135859.016000", "135859.018000", "135859.021000", "135859.024000", "135859.027000", "135859.030000", "135859.032000", "135859.035000", "135859.038000", "135859.041000", "135859.044000", "135859.047000", "135859.050000", "135938.960000", "135938.963000", "135938.966000", "135938.969000", "135938.972000", "135938.975000", "135938.978000", "135938.980000", "135938.983000", "135938.986000", "135938.989000", "135938.992000", "135938.995000", "135938.998000", "135939.001000", "135939.004000", "135939.007000", "135939.010000", "135939.012000", "135939.015000", "135939.018000", "135939.021000", "135939.024000", "135939.027000", "135939.030000", "135939.033000", "135939.036000", "140018.960000", "140018.963000", "140018.966000", "140018.969000", "140018.972000", "140018.974000", "140018.977000", "140018.980000", "140018.983000", "140018.986000", "140018.989000", "140018.992000", "140018.995000", "140018.998000", "140019.002000", "140019.005000", "140019.007000", "140019.010000", "140019.013000", "140019.016000", "140019.019000", "140019.022000", "140019.025000", "140019.028000", "140019.030000", "140019.033000", "140019.036000", "140033.713000", "140033.716000", "140033.719000", "140033.722000", "140033.725000", "140033.728000", "140033.731000", "140033.733000", "140033.736000", "140033.739000"],
