{
  "AcquisitionMatrixPE": 104,
  "AcquisitionNumber": 1,
  "AcquisitionTime": "14:04:5.435000",
  "BandwidthPerPixelPhaseEncode": 17.17,
  "BaseResolution": 104,
  "BodyPartExamined": "BRAIN",
  "CoilString": "HC1-7;NC1_2",
  "ConsistencyInfo": "N4_VE11C_LATEST_20160120",
  "ConversionSoftware": "dcm2niix",
  "ConversionSoftwareVersion": "v1.0.20190902",
  "DerivedVendorReportedEchoSpacing": 0.000560011,
  "DeviceSerialNumber": "167006",
  "DwellTime": 2.1e-06,
  "EchoTime": 0.037,
  "EchoTrainLength": 104,
  "EffectiveEchoSpacing": 0.000560011,
  "FlipAngle": 52,
  "ImageComments": "Unaliased_MB4_PE3_LB",
  "ImageOrientationPatientDICOM": [0.999924, 0.00801426, 0.00941539, -0.0020942, 0.860266, -0.509842],
  "ImageType": [
    "ORIGINAL",
    "PRIMARY",
    "M",
    "MB",
    "ND",
    "MOSAIC"
],
  "ImagingFrequency": 123.259,
  "InPlanePhaseEncodingDirectionDICOM": "COL",
  "InstitutionAddress": "Chemin_Queen-Mary_4565_Montreal_District_CA_H3W_1W5",
  "InstitutionName": "IUGM",
  "InstitutionalDepartmentName": "Department",
  "MRAcquisitionType": "2D",
  "MagneticFieldStrength": 3,
  "Manufacturer": "Siemens",
  "ManufacturersModelName": "Prisma_fit",
  "Modality": "MR",
  "MultibandAccelerationFactor": 4,
  "PartialFourier": 1,
  "PatientPosition": "HFS",
  "PercentPhaseFOV": 100,
  "PhaseEncodingDirection": "j",
  "PhaseEncodingSteps": 104,
  "PhaseResolution": 1,
  "PixelBandwidth": 2290,
  "ProcedureStepDescription": "video_friends",
  "ProtocolName": "func_task-friends-s05e07a",
  "PulseSequenceDetails": "%CustomerSeq%_cmrr_mbep2d_bold",
  "ReceiveCoilActiveElements": "HC1-7;NC1,2",
  "ReceiveCoilName": "HeadNeck_64",
  "ReconMatrixPE": 104,
  "RepetitionTime": 1.49,
  "SAR": 0.0359238,
  "ScanOptions": "FS",
  "ScanningSequence": "EP",
  "SequenceName": "epfid2d1_104",
  "SequenceVariant": "SK_SS",
  "SeriesDescription": "func_task-friends-s05e07a",
  "SeriesNumber": 11,
  "ShimSetting": [628, -7192, -8870, 405, 0, -182, -19, -26],
  "SliceThickness": 2,
  "SliceTiming": [0, 0.785, 0.0975, 0.8825, 0.1975, 0.98, 0.295, 1.0775, 0.3925, 1.1775, 0.49, 1.275, 0.5875, 1.3725, 0.6875, 0, 0.785, 0.0975, 0.8825, 0.1975, 0.98, 0.295, 1.0775, 0.3925, 1.1775, 0.49, 1.275, 0.5875, 1.3725, 0.6875, 0, 0.785, 0.0975, 0.8825, 0.1975, 0.98, 0.295, 1.0775, 0.3925, 1.1775, 0.49, 1.275, 0.5875, 1.3725, 0.6875, 0, 0.785, 0.0975, 0.8825, 0.1975, 0.98, 0.295, 1.0775, 0.3925, 1.1775, 0.49, 1.275, 0.5875, 1.3725, 0.6875],
  "SoftwareVersions": "syngo_MR_E11",
  "SpacingBetweenSlices": 2,
  "StationName": "MRC35049",
  "TaskName": "s05e07a",
  "TotalReadoutTime": 0.0576811,
  "TxRefAmp": 250.938,
  "WipMemBlock": "12de55e6-18c3-41af-ad6b-bec9e566524c||Sequence: R016 ve11c/master r/e634e98; Dec 19 2017 11:00:25 by eja",
  "dcmmeta_affine": [
    [-1.999847173690796, -0.004188397899270058, 0.024371476843953133, 103.1635513305664],
    [-0.016028527170419693, 1.7205312252044678, -1.0195661783218384, -58.59907150268555],
    [0.01883077062666416, 1.019683599472046, 1.7204333543777466, -104.98365020751953],
    [0.0, 0.0, 0.0, 1.0]
],
  "dcmmeta_reorient_transform": [
    [0.0, -1.0, 0.0, 103.0],
    [1.0, 0.0, 0.0, 0.0],
    [0.0, 0.0, 1.0, 0.0],
    [0.0, 0.0, 0.0, 1.0]
],
  "dcmmeta_shape": [104, 104, 60, 459],
  "dcmmeta_slice_dim": 2,
  "dcmmeta_version": 0.6,
  "global": {
    "const": {
      "AcquisitionMatrix": [104, 0, 0, 104],
      "AngioFlag": "N",
      "BitsAllocated": 16,
      "BitsStored": 16,
      "BodyPartExamined": "BRAIN",
      "Columns": 832,
      "EchoNumbers": 1,
      "EchoTime": 37.0,
      "EchoTrainLength": 104,
      "FlipAngle": 52.0,
      "HighBit": 15,
      "ImageOrientationPatient": [0.99992355813153, 0.00801426356381, 0.00941538491564, -0.0020941988839, 0.86026563380458, -0.5098417927415],
      "ImagePositionPatient": [-829.15192026558, -750.72341547354, 364.35418384771],
      "ImageType": [
        "ORIGINAL",
        "PRIMARY",
        "M",
        "MB",
        "ND",
        "MOSAIC"
],
      "ImagedNucleus": "1H",
      "ImagingFrequency": 123.25898,
      "InPlanePhaseEncodingDirection": "COL",
      "MRAcquisitionType": "2D",
      "MagneticFieldStrength": 3.0,
      "Manufacturer": "SIEMENS",
      "ManufacturerModelName": "Prisma_fit",
      "Modality": "MR",
      "NumberOfAverages": 1.0,
      "NumberOfPhaseEncodingSteps": 104,
      "PercentPhaseFieldOfView": 100.0,
      "PercentSampling": 100.0,
      "PerformedProcedureStepStartTime": "134528.001000",
      "PhotometricInterpretation": "MONOCHROME2",
      "PixelBandwidth": 2290.0,
      "PixelRepresentation": 0,
      "PixelSpacing": [2.0, 2.0],
      "ProtocolName": "func_task-friends-s05e07a",
      "RepetitionTime": 1490.0,
      "Rows": 832,
      "SAR": 0.03592379020381,
      "SamplesPerPixel": 1,
      "ScanOptions": "FS",
      "ScanningSequence": "EP",
      "SequenceName": "epfid2d1_104",
      "SequenceVariant": [
        "SK",
        "SS"
],
      "SeriesDescription": "func_task-friends-s05e07a",
      "SeriesNumber": 11,
      "SeriesTime": "140609.763000",
      "SliceLocation": -59.178744813352,
      "SliceThickness": 2.0,
      "SmallestImagePixelValue": 0,
      "SoftwareVersions": "syngo MR E11",
      "SpacingBetweenSlices": 1.9999999985904,
      "SpecificCharacterSet": "ISO_IR 100",
      "StudyID": "1",
      "StudyTime": "134527.903000",
      "TransmitCoilName": "Body",
      "VariableFlipAngleFlag": "N",
      "WindowCenterWidthExplanation": "Algo1",
      "dBdt": 0.0},
    "slices": {}
  },
  "time": {
    "samples": {
      "AcquisitionNumber": [1, 2, 3, 4, 5, 6, 7, 8, 9, 10, 11, 12, 13, 14, 15, 16, 17, 18, 19, 20, 21, 22, 23, 24, 25, 26, 27, 28, 29, 30, 31, 32, 33, 34, 35, 36, 37, 38, 39, 40, 41, 42, 43, 44, 45, 46, 47, 48, 49, 50, 51, 52, 53, 54, 55, 56, 57, 58, 59, 60, 61, 62, 63, 64, 65, 66, 67, 68, 69, 70, 71, 72, 73, 74, 75, 76, 77, 78, 79, 80, 81, 82, 83, 84, 85, 86, 87, 88, 89, 90, 91, 92, 93, 94, 95, 96, 97, 98, 99, 100, 101, 102, 103, 104, 105, 106, 107, 108, 109, 110, 111, 112, 113, 114, 115, 116, 117, 118, 119, 120, 121, 122, 123, 124, 125, 126, 127, 128, 129, 130, 131, 132, 133, 134, 135, 136, 137, 138, 139, 140, 141, 142, 143, 144, 145, 146, 147, 148, 149, 150, 151, 152, 153, 154, 155, 156, 157, 158, 159, 160, 161, 162, 163, 164, 165, 166, 167, 168, 169, 170, 171, 172, 173, 174, 175, 176, 177, 178, 179, 180, 181, 182, 183, 184, 185, 186, 187, 188, 189, 190, 191, 192, 193, 194, 195, 196, 197, 198, 199, 200, 201, 202, 203, 204, 205, 206, 207, 208, 209, 210, 211, 212, 213, 214, 215, 216, 217, 218, 219, 220, 221, 222, 223, 224, 225, 226, 227, 228, 229, 230, 231, 232, 233, 234, 235, 236, 237, 238, 239, 240, 241, 242, 243, 244, 245, 246, 247, 248, 249, 250, 251, 252, 253, 254, 255, 256, 257, 258, 259, 260, 261, 262, 263, 264, 265, 266, 267, 268, 269, 270, 271, 272, 273, 274, 275, 276, 277, 278, 279, 280, 281, 282, 283, 284, 285, 286, 287, 288, 289, 290, 291, 292, 293, 294, 295, 296, 297, 298, 299, 300, 301, 302, 303, 304, 305, 306, 307, 308, 309, 310, 311, 312, 313, 314, 315, 316, 317, 318, 319, 320, 321, 322, 323, 324, 325, 326, 327, 328, 329, 330, 331, 332, 333, 334, 335, 336, 337, 338, 339, 340, 341, 342, 343, 344, 345, 346, 347, 348, 349, 350, 351, 352, 353, 354, 355, 356, 357, 358, 359, 360, 361, 362, 363, 364, 365, 366, 367, 368, 369, 370, 371, 372, 373, 374, 375, 376, 377, 378, 379, 380, 381, 382, 383, 384, 385, 386, 387, 388, 389, 390, 391, 392, 393, 394, 395, 396, 397, 398, 399, 400, 401, 402, 403, 404, 405, 406, 407, 408, 409, 410, 411, 412, 413, 414, 415, 416, 417, 418, 419, 420, 421, 422, 423, 424, 425, 426, 427, 428, 429, 430, 431, 432, 433, 434, 435, 436, 437, 438, 439, 440, 441, 442, 443, 444, 445, 446, 447, 448, 449, 450, 451, 452, 453, 454, 455, 456, 457, 458, 459],
      "AcquisitionTime": ["140405.435000", "140406.925000", "140408.415000", "140409.905000", "140411.395000", "140412.885000", "140414.375000", "140415.865000", "140417.355000", "140418.845000", "140420.335000", "140421.825000", "140423.315000", "140424.805000", "140426.295000", "140427.785000", "140429.275000", "140430.765000", "140432.255000", "140433.745000", "140435.235000", "140436.725000", "140438.215000", "140439.705000", "140441.195000", "140442.685000", "140444.175000", "140445.665000", "140447.155000", "140448.645000", "140450.135000", "140451.625000", "140453.115000", "140454.605000", "140456.095000", "140457.585000", "140459.075000", "140500.565000", "140502.055000", "140503.545000", "140505.035000", "140506.525000", "140508.015000", "140509.505000", "140510.995000", "140512.485000", "140513.975000", "140515.465000", "140516.955000", "140518.445000", "140519.935000", "140521.425000", "140522.915000", "140524.405000", "140525.895000", "140527.385000", "140528.875000", "140530.365000", "140531.855000", "140533.345000", "140534.835000", "140536.325000", "140537.815000", "140539.305000", "140540.795000", "140542.285000", "140543.775000", "140545.265000", "140546.755000", "140548.245000", "140549.735000", "140551.225000", "140552.715000", "140554.205000", "140555.695000", "140557.185000", "140558.675000", "140600.165000", "140601.655000", "140603.145000", "140604.635000", "140606.125000", "140607.615000", "140609.105000", "140610.595000", "140612.085000", "140613.575000", "140615.065000", "140616.555000", "140618.045000", "140619.535000", "140621.025000", "140622.515000", "140624.005000", "140625.495000", "140626.985000", "140628.475000", "140629.965000", "140631.455000", "140632.945000", "140634.435000", "140635.925000", "140637.415000", "140638.905000", "140640.395000", "140641.885000", "140643.375000", "140644.865000", "140646.355000", "140647.845000", "140649.335000", "140650.825000", "140652.315000", "140653.805000", "140655.295000", "140656.785000", "140658.275000", "140659.765000", "140701.255000", "140702.745000", "140704.235000", "140705.725000", "140707.215000", "140708.705000", "140710.195000", "140711.685000", "140713.175000", "140714.665000", "140716.155000", "140717.645000", "140719.135000", "140720.625000", "140722.115000", "140723.605000", "140725.095000", "140726.585000", "140728.075000", "140729.565000", "140731.055000", "140732.545000", "140734.035000", "140735.525000", "140737.015000", "140738.505000", "140739.995000", "140741.485000", "140742.975000", "140744.465000", "140745.955000", "140747.445000", "140748.935000", "140750.425000", "140751.915000", "140753.405000", "140754.895000", "140756.385000", "140757.875000", "140759.365000", "140800.855000", "140802.345000", "140803.835000", "140805.325000", "140806.815000", "140808.305000", "140809.795000", "140811.285000", "140812.775000", "140814.265000", "140815.755000", "140817.245000", "140818.735000", "140820.225000", "140821.715000", "140823.205000", "140824.695000", "140826.185000", "140827.675000", "140829.165000", "140830.655000", "140832.145000", "140833.635000", "140835.125000", "140836.615000", "140838.105000", "140839.595000", "140841.085000", "140842.575000", "140844.065000", "140845.555000", "140847.045000", "140848.535000", "140850.025000", "140851.515000", "140853.005000", "140854.495000", "140855.985000", "140857.475000", "140858.965000", "140900.455000", "140901.945000", "140903.435000", "140904.925000", "140906.415000", "140907.905000", "140909.395000", "140910.885000", "140912.375000", "140913.865000", "140915.355000", "140916.845000", "140918.335000", "140919.825000", "140921.315000", "140922.805000", "140924.295000", "140925.785000", "140927.275000", "140928.765000", "140930.255000", "140931.745000", "140933.235000", "140934.725000", "140936.215000", "140937.705000", "140939.195000", "140940.685000", "140942.175000", "140943.665000", "140945.155000", "140946.645000", "140948.135000", "140949.625000", "140951.115000", "140952.605000", "140954.095000", "140955.585000", "140957.075000", "140958.565000", "141000.055000", "141001.545000", "141003.035000", "141004.525000", "141006.015000", "141007.505000", "141008.995000", "141010.485000", "141011.975000", "141013.465000", "141014.955000", "141016.445000", "141017.935000", "141019.425000", "141020.915000", "141022.405000", "141023.895000", "141025.385000", "141026.875000", "141028.365000", "141029.855000", "141031.345000", "141032.835000", "141034.325000", "141035.815000", "141037.305000", "141038.795000", "141040.285000", "141041.775000", "141043.265000", "141044.755000", "141046.245000", "141047.735000", "141049.225000", "141050.715000", "141052.205000", "141053.695000", "141055.185000", "141056.675000", "141058.165000", "141059.655000", "141101.145000", "141102.635000", "141104.125000", "141105.615000", "141107.105000", "141108.595000", "141110.085000", "141111.575000", "141113.065000", "141114.555000", "141116.045000", "141117.535000", "141119.025000", "141120.515000", "141122.005000", "141123.495000", "141124.985000", "141126.475000", "141127.965000", "141129.455000", "141130.945000", "141132.435000", "141133.925000", "141135.415000", "141136.905000", "141138.395000", "141139.885000", "141141.375000", "141142.865000", "141144.355000", "141145.845000", "141147.335000", "141148.825000", "141150.315000", "141151.805000", "141153.295000", "141154.785000", "141156.275000", "141157.765000", "141159.255000", "141200.745000", "141202.235000", "141203.725000", "141205.215000", "141206.705000", "141208.195000", "141209.685000", "141211.175000", "141212.665000", "141214.155000", "141215.645000", "141217.135000", "141218.625000", "141220.115000", "141221.605000", "141223.095000", "141224.585000", "141226.075000", "141227.565000", "141229.055000", "141230.545000", "141232.035000", "141233.525000", "141235.015000", "141236.505000", "141237.995000", "141239.485000", "141240.975000", "141242.465000", "141243.955000", "141245.445000", "141246.935000", "141248.425000", "141249.915000", "141251.405000", "141252.895000", "141254.385000", "141255.875000", "141257.365000", "141258.855000", "141300.345000", "141301.835000", "141303.325000", "141304.815000", "141306.305000", "141307.795000", "141309.285000", "141310.775000", "141312.265000", "141313.755000", "141315.245000", "141316.735000", "141318.225000", "141319.715000", "141321.205000", "141322.695000", "141324.185000", "141325.675000", "141327.165000", "141328.655000", "141330.145000", "141331.635000", "141333.125000", "141334.615000", "141336.105000", "141337.595000", "141339.085000", "141340.575000", "141342.065000", "141343.555000", "141345.045000", "141346.535000", "141348.025000", "141349.515000", "141351.005000", "141352.495000", "141353.985000", "141355.475000", "141356.965000", "141358.455000", "141359.945000", "141401.435000", "141402.925000", "141404.415000", "141405.905000", "141407.395000", "141408.885000", "141410.375000", "141411.865000", "141413.355000", "141414.845000", "141416.335000", "141417.825000", "141419.315000", "141420.805000", "141422.295000", "141423.785000", "141425.275000", "141426.765000", "141428.255000", "141429.745000", "141431.235000", "141432.725000", "141434.215000", "141435.705000", "141437.195000", "141438.685000", "141440.175000", "141441.665000", "141443.155000", "141444.645000", "141446.135000", "141447.625000", "141449.115000", "141450.605000", "141452.095000", "141453.585000", "141455.075000", "141456.565000", "141458.055000", "141459.545000", "141501.035000", "141502.525000", "141504.015000", "141505.505000", "141506.995000", "141508.485000", "141509.975000", "141511.465000", "141512.955000", "141514.445000", "141515.935000", "141517.425000", "141518.915000", "141520.405000", "141521.895000", "141523.385000", "141524.875000", "141526.365000", "141527.855000"],
      "ContentTime": ["140609.766000", "140609.769000", "140609.772000", "140609.775000", "140609.778000", "140609.781000", "140609.784000", "140609.787000", "140609.790000", "140609.792000", "140609.795000", "140609.798000", "140609.801000", "140609.804000", "140609.807000", "140609.809000", "140609.812000", "140609.815000", "140609.818000", "140609.821000", "140609.824000", "140609.826000", "140609.829000", "140609.832000", "140609.835000", "140609.838000", "140609.841000", "140609.844000", "140609.851000", "140609.854000", "140609.857000", "140609.859000", "140609.863000", "140609.865000", "140609.868000", "140609.871000", "140609.874000", "140609.877000", "140609.880000", "140649.729000", "140649.732000", "140649.735000", "140649.738000", "140649.741000", "140649.743000", "140649.746000", "140649.756000", "140649.758000", "140649.761000", "140649.764000", "140649.767000", "140649.777000", "140649.780000", "140649.783000", "140649.786000", "140649.788000", "140649.791000", "140649.794000", "140649.797000", "140649.800000", "140649.803000", "140649.806000", "140649.808000", "140649.811000", "140649.814000", "140649.817000", "140649.820000", "140649.823000", "140649.825000", "140649.834000", "140649.837000", "140649.839000", "140649.842000", "140649.845000", "140649.848000", "140649.850000", "140649.853000", "140649.856000", "140649.859000", "140709.730000", "140709.733000", "140709.736000", "140709.738000", "140709.741000", "140709.744000", "140709.747000", "140709.750000", "140709.752000", "140709.755000", "140709.758000", "140709.761000", "140709.764000", "140709.767000", "140709.770000", "140709.772000", "140709.775000", "140709.778000", "140709.781000", "140709.784000", "140729.730000", "140729.733000", "140729.735000", "140729.738000", "140729.741000", "140729.744000", "140729.747000", "140729.750000", "140729.752000", "140729.755000", "140729.758000", "140729.761000", "140729.764000", "140729.767000", "140729.769000", "140729.772000", "140729.775000", "140729.778000", "140729.781000", "140729.784000", "140749.730000", "140749.733000", "140749.736000", "140749.738000", "140749.741000", "140749.744000", "140749.747000", "140749.750000", "140749.753000", "140749.756000", "140749.759000", "140749.761000", "140749.764000", "140749.767000", "140749.770000", "140749.773000", "140749.780000", "140749.783000", "140749.786000", "140749.789000", "140809.730000", "140809.733000", "140809.736000", "140809.738000", "140809.741000", "140809.744000", "140809.747000", "140809.750000", "140809.753000", "140809.756000", "140809.758000", "140809.761000", "140809.764000", "140809.767000", "140809.770000", "140809.773000", "140809.775000", "140809.778000", "140809.781000", "140809.784000", "140849.730000", "140849.733000", "140849.736000", "140849.738000", "140849.741000", "140849.744000", "140849.747000", "140849.756000", "140849.759000", "140849.762000", "140849.765000", "140849.768000", "140849.771000", "140849.774000", "140849.777000", "140849.779000", "140849.782000", "140849.785000", "140849.788000", "140849.791000", "140849.794000", "140849.796000", "140849.799000", "140849.802000", "140849.805000", "140849.808000", "140849.811000", "140849.814000", "140849.816000", "140849.819000", "140849.822000", "140929.730000", "140929.733000", "140929.736000", "140929.739000", "140929.741000", "140929.744000", "140929.747000", "140929.750000", "140929.753000", "140929.756000", "140929.759000", "140929.762000", "140929.764000", "140929.767000", "140929.770000", "140929.773000", "140929.776000", "140929.779000", "140929.791000", "140929.795000", "140929.799000", "140929.802000", "140929.805000", "140929.808000", "140929.811000", "140929.814000", "141009.730000", "141009.733000", "141009.736000", "141009.739000", "141009.742000", "141009.744000", "141009.747000", "141009.750000", "141009.753000", "141009.756000", "141009.759000", "141009.762000", "141009.764000", "141009.767000", "141009.770000", "141009.773000", "141009.776000", "141009.779000", "141009.782000", "141009.785000", "141009.787000", "141009.790000", "141009.793000", "141009.796000", "141009.799000", "141009.802000", "141009.804000", "141049.730000", "141049.733000", "141049.746000", "141049.749000", "141049.767000", "141049.770000", "141049.781000", "141049.824000", "141049.827000", "141049.829000", "141049.832000", "141049.835000", "141049.838000", "141049.841000", "141049.844000", "141049.847000", "141049.849000", "141049.852000", "141049.855000", "141049.858000", "141049.861000", "141049.864000", "141049.867000", "141049.869000", "141049.872000", "141049.875000", "141049.878000", "141129.729000", "141129.732000", "141129.735000", "141129.738000", "141129.741000", "141129.743000", "141129.746000", "141129.749000", "141129.752000", "141129.755000", "141129.758000", "141129.761000", "141129.763000", "141129.766000", "141129.769000", "141129.772000", "141129.775000", "141129.782000", "141129.785000", "141129.788000", "141129.790000", "141129.793000", "141129.796000", "141129.799000", "141129.802000", "141129.805000", "141129.808000", "141209.730000", "141209.733000", "141209.736000", "141209.739000", "141209.742000", "141209.745000", "141209.748000", "141209.750000", "141209.753000", "141209.756000", "141209.759000", "141209.762000", "141209.765000", "141209.768000", "141209.771000", "141209.774000", "141209.777000", "141209.780000", "141209.783000", "141209.785000", "141209.788000", "141209.791000", "141209.794000", "141209.797000", "141209.800000", "141209.803000", "141209.806000", "141249.730000", "141249.733000", "141249.736000", "141249.739000", "141249.742000", "141249.745000", "141249.748000", "141249.751000", "141249.754000", "141249.756000", "141249.759000", "141249.762000", "141249.765000", "141249.768000", "141249.771000", "141249.774000", "141249.777000", "141249.780000", "141249.783000", "141249.786000", "141249.788000", "141249.791000", "141249.794000", "141249.797000", "141249.800000", "141249.803000", "141249.805000", "141329.730000", "141329.733000", "141329.736000", "141329.739000", "141329.742000", "141329.745000", "141329.748000", "141329.751000", "141329.754000", "141329.756000", "141329.759000", "141329.762000", "141329.765000", "141329.768000", "141329.772000", "141329.775000", "141329.777000", "141329.780000", "141329.783000", "141329.786000", "141329.789000", "141329.792000", "141329.795000", "141329.798000", "141329.800000", "141329.803000", "141329.806000", "141409.730000", "141409.733000", "141409.736000", "141409.739000", "141409.742000", "141409.745000", "141409.748000", "141409.751000", "141409.754000", "141409.756000", "141409.759000", "141409.762000", "141409.765000", "141409.768000", "141409.787000", "141409.790000", "141409.793000", "141409.796000", "141409.798000", "141409.801000", "141409.804000", "141409.807000", "141409.810000", "141409.813000", "141409.816000", "141409.819000", "141449.730000", "141449.733000", "141449.736000", "141449.739000", "141449.742000", "141449.745000", "141449.748000", "141449.751000", "141449.754000", "141449.756000", "141449.759000", "141449.762000", "141449.765000", "141449.768000", "141449.771000", "141449.774000", "141449.777000", "141449.780000", "141449.783000", "141449.786000", "141449.789000", "141449.791000", "141449.799000", "141449.802000", "141449.805000", "141449.808000", "141449.811000", "141529.740000", "141529.743000", "141529.746000", "141529.749000", "141529.752000", "141529.754000", "141529.757000", "141529.760000", "141529.763000", "141529.766000", "141529.827000", "141529.830000", "141529.832000", "141529.835000", "141529.839000", "141529.841000", "141529.844000", "141529.847000", "141529.850000", "141529.853000", "141529.856000", "141529.859000", "141529.862000", "141529.864000", "141529.867000", "141529.870000", "141529.873000", "141530.441000"],
