{
  "AcquisitionMatrixPE": 104,
  "AcquisitionNumber": 1,
  "AcquisitionTime": "14:16:19.210000",
  "BandwidthPerPixelPhaseEncode": 17.17,
  "BaseResolution": 104,
  "BodyPartExamined": "BRAIN",
  "CoilString": "HC1-7;NC1_2",
  "ConsistencyInfo": "N4_VE11C_LATEST_20160120",
  "ConversionSoftware": "dcm2niix",
  "ConversionSoftwareVersion": "v1.0.20190902",
  "DerivedVendorReportedEchoSpacing": 0.000560011,
  "DeviceSerialNumber": "167006",
  "DwellTime": 2.1e-06,
  "EchoTime": 0.037,
  "EchoTrainLength": 104,
  "EffectiveEchoSpacing": 0.000560011,
  "FlipAngle": 52,
  "ImageComments": "Unaliased_MB4_PE3_LB",
  "ImageOrientationPatientDICOM": [0.999924, 0.00801426, 0.00941539, -0.0020942, 0.860266, -0.509842],
  "ImageType": [
    "ORIGINAL",
    "PRIMARY",
    "M",
    "MB",
    "ND",
    "MOSAIC"
],
  "ImagingFrequency": 123.259,
  "InPlanePhaseEncodingDirectionDICOM": "COL",
  "InstitutionAddress": "Chemin_Queen-Mary_4565_Montreal_District_CA_H3W_1W5",
  "InstitutionName": "IUGM",
  "InstitutionalDepartmentName": "Department",
  "MRAcquisitionType": "2D",
  "MagneticFieldStrength": 3,
  "Manufacturer": "Siemens",
  "ManufacturersModelName": "Prisma_fit",
  "Modality": "MR",
  "MultibandAccelerationFactor": 4,
  "PartialFourier": 1,
  "PatientPosition": "HFS",
  "PercentPhaseFOV": 100,
  "PhaseEncodingDirection": "j",
  "PhaseEncodingSteps": 104,
  "PhaseResolution": 1,
  "PixelBandwidth": 2290,
  "ProcedureStepDescription": "video_friends",
  "ProtocolName": "func_task-friends-s05e07b",
  "PulseSequenceDetails": "%CustomerSeq%_cmrr_mbep2d_bold",
  "ReceiveCoilActiveElements": "HC1-7;NC1,2",
  "ReceiveCoilName": "HeadNeck_64",
  "ReconMatrixPE": 104,
  "RepetitionTime": 1.49,
  "SAR": 0.0359345,
  "ScanOptions": "FS",
  "ScanningSequence": "EP",
  "SequenceName": "epfid2d1_104",
  "SequenceVariant": "SK_SS",
  "SeriesDescription": "func_task-friends-s05e07b",
  "SeriesNumber": 13,
  "ShimSetting": [628, -7192, -8870, 405, 0, -182, -19, -26],
  "SliceThickness": 2,
  "SliceTiming": [0, 0.785, 0.0975, 0.8825, 0.1975, 0.98, 0.295, 1.0775, 0.3925, 1.1775, 0.49, 1.275, 0.5875, 1.3725, 0.6875, 0, 0.785, 0.0975, 0.8825, 0.1975, 0.98, 0.295, 1.0775, 0.3925, 1.1775, 0.49, 1.275, 0.5875, 1.3725, 0.6875, 0, 0.785, 0.0975, 0.8825, 0.1975, 0.98, 0.295, 1.0775, 0.3925, 1.1775, 0.49, 1.275, 0.5875, 1.3725, 0.6875, 0, 0.785, 0.0975, 0.8825, 0.1975, 0.98, 0.295, 1.0775, 0.3925, 1.1775, 0.49, 1.275, 0.5875, 1.3725, 0.6875],
  "SoftwareVersions": "syngo_MR_E11",
  "SpacingBetweenSlices": 2,
  "StationName": "MRC35049",
  "TaskName": "s05e07b",
  "TotalReadoutTime": 0.0576811,
  "TxRefAmp": 250.938,
  "WipMemBlock": "6b4c8215-64bb-427b-8fca-e9533c3b7067||Sequence: R016 ve11c/master r/e634e98; Dec 19 2017 11:00:25 by eja",
  "dcmmeta_affine": [
    [-1.999847173690796, -0.004188397899270058, 0.024371476843953133, 103.1635513305664],
    [-0.016028527170419693, 1.7205312252044678, -1.0195661783218384, -58.59907150268555],
    [0.01883077062666416, 1.019683599472046, 1.7204333543777466, -104.98365020751953],
    [0.0, 0.0, 0.0, 1.0]
],
  "dcmmeta_reorient_transform": [
    [0.0, -1.0, 0.0, 103.0],
    [1.0, 0.0, 0.0, 0.0],
    [0.0, 0.0, 1.0, 0.0],
    [0.0, 0.0, 0.0, 1.0]
],
  "dcmmeta_shape": [104, 104, 60, 493],
  "dcmmeta_slice_dim": 2,
  "dcmmeta_version": 0.6,
  "global": {
    "const": {
      "AcquisitionMatrix": [104, 0, 0, 104],
      "AngioFlag": "N",
      "BitsAllocated": 16,
      "BitsStored": 16,
      "BodyPartExamined": "BRAIN",
      "Columns": 832,
      "EchoNumbers": 1,
      "EchoTime": 37.0,
      "EchoTrainLength": 104,
      "FlipAngle": 52.0,
      "HighBit": 15,
      "ImageOrientationPatient": [0.99992355813153, 0.00801426356381, 0.00941538491564, -0.0020941988839, 0.86026563380458, -0.5098417927415],
      "ImagePositionPatient": [-829.15192026558, -750.72341547354, 364.35418384771],
      "ImageType": [
        "ORIGINAL",
        "PRIMARY",
        "M",
        "MB",
        "ND",
        "MOSAIC"
],
      "ImagedNucleus": "1H",
      "ImagingFrequency": 123.25899,
      "InPlanePhaseEncodingDirection": "COL",
      "MRAcquisitionType": "2D",
      "MagneticFieldStrength": 3.0,
      "Manufacturer": "SIEMENS",
      "ManufacturerModelName": "Prisma_fit",
      "Modality": "MR",
      "NumberOfAverages": 1.0,
      "NumberOfPhaseEncodingSteps": 104,
      "PercentPhaseFieldOfView": 100.0,
      "PercentSampling": 100.0,
      "PerformedProcedureStepStartTime": "134528.001000",
      "PhotometricInterpretation": "MONOCHROME2",
      "PixelBandwidth": 2290.0,
      "PixelRepresentation": 0,
      "PixelSpacing": [2.0, 2.0],
      "ProtocolName": "func_task-friends-s05e07b",
      "RepetitionTime": 1490.0,
      "Rows": 832,
      "SAR": 0.03593445857714,
      "SamplesPerPixel": 1,
      "ScanOptions": "FS",
      "ScanningSequence": "EP",
      "SequenceName": "epfid2d1_104",
      "SequenceVariant": [
        "SK",
        "SS"
],
      "SeriesDescription": "func_task-friends-s05e07b",
      "SeriesNumber": 13,
      "SeriesTime": "141738.464000",
      "SliceLocation": -59.178744813352,
      "SliceThickness": 2.0,
      "SmallestImagePixelValue": 0,
      "SoftwareVersions": "syngo MR E11",
      "SpacingBetweenSlices": 1.9999999985904,
      "SpecificCharacterSet": "ISO_IR 100",
      "StudyID": "1",
      "StudyTime": "134527.903000",
      "TransmitCoilName": "Body",
      "VariableFlipAngleFlag": "N",
      "WindowCenterWidthExplanation": "Algo1",
      "dBdt": 0.0},
    "slices": {}
  },
  "time": {
    "samples": {
      "AcquisitionNumber": [1, 2, 3, 4, 5, 6, 7, 8, 9, 10, 11, 12, 13, 14, 15, 16, 17, 18, 19, 20, 21, 22, 23, 24, 25, 26, 27, 28, 29, 30, 31, 32, 33, 34, 35, 36, 37, 38, 39, 40, 41, 42, 43, 44, 45, 46, 47, 48, 49, 50, 51, 52, 53, 54, 55, 56, 57, 58, 59, 60, 61, 62, 63, 64, 65, 66, 67, 68, 69, 70, 71, 72, 73, 74, 75, 76, 77, 78, 79, 80, 81, 82, 83, 84, 85, 86, 87, 88, 89, 90, 91, 92, 93, 94, 95, 96, 97, 98, 99, 100, 101, 102, 103, 104, 105, 106, 107, 108, 109, 110, 111, 112, 113, 114, 115, 116, 117, 118, 119, 120, 121, 122, 123, 124, 125, 126, 127, 128, 129, 130, 131, 132, 133, 134, 135, 136, 137, 138, 139, 140, 141, 142, 143, 144, 145, 146, 147, 148, 149, 150, 151, 152, 153, 154, 155, 156, 157, 158, 159, 160, 161, 162, 163, 164, 165, 166, 167, 168, 169, 170, 171, 172, 173, 174, 175, 176, 177, 178, 179, 180, 181, 182, 183, 184, 185, 186, 187, 188, 189, 190, 191, 192, 193, 194, 195, 196, 197, 198, 199, 200, 201, 202, 203, 204, 205, 206, 207, 208, 209, 210, 211, 212, 213, 214, 215, 216, 217, 218, 219, 220, 221, 222, 223, 224, 225, 226, 227, 228, 229, 230, 231, 232, 233, 234, 235, 236, 237, 238, 239, 240, 241, 242, 243, 244, 245, 246, 247, 248, 249, 250, 251, 252, 253, 254, 255, 256, 257, 258, 259, 260, 261, 262, 263, 264, 265, 266, 267, 268, 269, 270, 271, 272, 273, 274, 275, 276, 277, 278, 279, 280, 281, 282, 283, 284, 285, 286, 287, 288, 289, 290, 291, 292, 293, 294, 295, 296, 297, 298, 299, 300, 301, 302, 303, 304, 305, 306, 307, 308, 309, 310, 311, 312, 313, 314, 315, 316, 317, 318, 319, 320, 321, 322, 323, 324, 325, 326, 327, 328, 329, 330, 331, 332, 333, 334, 335, 336, 337, 338, 339, 340, 341, 342, 343, 344, 345, 346, 347, 348, 349, 350, 351, 352, 353, 354, 355, 356, 357, 358, 359, 360, 361, 362, 363, 364, 365, 366, 367, 368, 369, 370, 371, 372, 373, 374, 375, 376, 377, 378, 379, 380, 381, 382, 383, 384, 385, 386, 387, 388, 389, 390, 391, 392, 393, 394, 395, 396, 397, 398, 399, 400, 401, 402, 403, 404, 405, 406, 407, 408, 409, 410, 411, 412, 413, 414, 415, 416, 417, 418, 419, 420, 421, 422, 423, 424, 425, 426, 427, 428, 429, 430, 431, 432, 433, 434, 435, 436, 437, 438, 439, 440, 441, 442, 443, 444, 445, 446, 447, 448, 449, 450, 451, 452, 453, 454, 455, 456, 457, 458, 459, 460, 461, 462, 463, 464, 465, 466, 467, 468, 469, 470, 471, 472, 473, 474, 475, 476, 477, 478, 479, 480, 481, 482, 483, 484, 485, 486, 487, 488, 489, 490, 491, 492, 493],
      "AcquisitionTime": ["141619.210000", "141620.700000", "141622.190000", "141623.680000", "141625.170000", "141626.660000", "141628.150000", "141629.640000", "141631.130000", "141632.620000", "141634.110000", "141635.600000", "141637.090000", "141638.580000", "141640.070000", "141641.560000", "141643.050000", "141644.540000", "141646.030000", "141647.520000", "141649.010000", "141650.500000", "141651.990000", "141653.480000", "141654.970000", "141656.460000", "141657.950000", "141659.440000", "141700.930000", "141702.420000", "141703.910000", "141705.400000", "141706.890000", "141708.380000", "141709.870000", "141711.360000", "141712.850000", "141714.340000", "141715.830000", "141717.320000", "141718.810000", "141720.300000", "141721.790000", "141723.280000", "141724.770000", "141726.260000", "141727.750000", "141729.240000", "141730.730000", "141732.220000", "141733.710000", "141735.200000", "141736.690000", "141738.180000", "141739.670000", "141741.160000", "141742.650000", "141744.140000", "141745.630000", "141747.120000", "141748.610000", "141750.100000", "141751.590000", "141753.080000", "141754.570000", "141756.060000", "141757.550000", "141759.040000", "141800.530000", "141802.020000", "141803.510000", "141805.000000", "141806.490000", "141807.980000", "141809.470000", "141810.960000", "141812.450000", "141813.940000", "141815.430000", "141816.920000", "141818.410000", "141819.900000", "141821.390000", "141822.880000", "141824.370000", "141825.860000", "141827.350000", "141828.840000", "141830.330000", "141831.820000", "141833.310000", "141834.800000", "141836.290000", "141837.780000", "141839.270000", "141840.760000", "141842.250000", "141843.740000", "141845.230000", "141846.720000", "141848.210000", "141849.700000", "141851.190000", "141852.680000", "141854.170000", "141855.660000", "141857.150000", "141858.640000", "141900.130000", "141901.620000", "141903.110000", "141904.600000", "141906.090000", "141907.580000", "141909.070000", "141910.560000", "141912.050000", "141913.540000", "141915.030000", "141916.520000", "141918.010000", "141919.500000", "141920.990000", "141922.480000", "141923.970000", "141925.460000", "141926.950000", "141928.440000", "141929.930000", "141931.420000", "141932.910000", "141934.400000", "141935.890000", "141937.380000", "141938.870000", "141940.360000", "141941.850000", "141943.340000", "141944.830000", "141946.320000", "141947.810000", "141949.300000", "141950.790000", "141952.280000", "141953.770000", "141955.260000", "141956.750000", "141958.240000", "141959.730000", "142001.220000", "142002.710000", "142004.200000", "142005.690000", "142007.180000", "142008.670000", "142010.160000", "142011.650000", "142013.140000", "142014.630000", "142016.120000", "142017.610000", "142019.100000", "142020.590000", "142022.080000", "142023.570000", "142025.060000", "142026.550000", "142028.040000", "142029.530000", "142031.020000", "142032.510000", "142034.000000", "142035.490000", "142036.980000", "142038.470000", "142039.960000", "142041.450000", "142042.940000", "142044.430000", "142045.920000", "142047.410000", "142048.900000", "142050.390000", "142051.880000", "142053.370000", "142054.860000", "142056.350000", "142057.840000", "142059.330000", "142100.820000", "142102.310000", "142103.800000", "142105.290000", "142106.780000", "142108.270000", "142109.760000", "142111.250000", "142112.740000", "142114.230000", "142115.720000", "142117.210000", "142118.700000", "142120.190000", "142121.680000", "142123.170000", "142124.660000", "142126.150000", "142127.640000", "142129.130000", "142130.620000", "142132.110000", "142133.600000", "142135.090000", "142136.580000", "142138.070000", "142139.560000", "142141.050000", "142142.540000", "142144.030000", "142145.520000", "142147.010000", "142148.500000", "142149.990000", "142151.480000", "142152.970000", "142154.460000", "142155.950000", "142157.440000", "142158.930000", "142200.420000", "142201.910000", "142203.400000", "142204.890000", "142206.380000", "142207.870000", "142209.360000", "142210.850000", "142212.340000", "142213.830000", "142215.320000", "142216.810000", "142218.300000", "142219.790000", "142221.280000", "142222.770000", "142224.260000", "142225.750000", "142227.240000", "142228.730000", "142230.220000", "142231.710000", "142233.200000", "142234.690000", "142236.180000", "142237.670000", "142239.160000", "142240.650000", "142242.140000", "142243.630000", "142245.120000", "142246.610000", "142248.100000", "142249.590000", "142251.080000", "142252.570000", "142254.060000", "142255.550000", "142257.040000", "142258.530000", "142300.020000", "142301.510000", "142303.000000", "142304.490000", "142305.980000", "142307.470000", "142308.960000", "142310.450000", "142311.940000", "142313.430000", "142314.920000", "142316.410000", "142317.900000", "142319.390000", "142320.880000", "142322.370000", "142323.860000", "142325.350000", "142326.840000", "142328.330000", "142329.820000", "142331.310000", "142332.800000", "142334.290000", "142335.780000", "142337.270000", "142338.760000", "142340.250000", "142341.740000", "142343.230000", "142344.720000", "142346.210000", "142347.700000", "142349.190000", "142350.680000", "142352.170000", "142353.660000", "142355.150000", "142356.640000", "142358.130000", "142359.620000", "142401.110000", "142402.600000", "142404.090000", "142405.580000", "142407.070000", "142408.560000", "142410.050000", "142411.540000", "142413.030000", "142414.520000", "142416.010000", "142417.500000", "142418.990000", "142420.480000", "142421.970000", "142423.460000", "142424.950000", "142426.440000", "142427.930000", "142429.420000", "142430.910000", "142432.400000", "142433.890000", "142435.380000", "142436.870000", "142438.360000", "142439.850000", "142441.340000", "142442.830000", "142444.320000", "142445.810000", "142447.300000", "142448.790000", "142450.280000", "142451.770000", "142453.260000", "142454.750000", "142456.240000", "142457.730000", "142459.220000", "142500.710000", "142502.200000", "142503.690000", "142505.180000", "142506.670000", "142508.160000", "142509.650000", "142511.140000", "142512.630000", "142514.120000", "142515.610000", "142517.100000", "142518.590000", "142520.080000", "142521.570000", "142523.060000", "142524.550000", "142526.040000", "142527.530000", "142529.020000", "142530.510000", "142532.000000", "142533.490000", "142534.980000", "142536.470000", "142537.960000", "142539.450000", "142540.940000", "142542.430000", "142543.920000", "142545.410000", "142546.900000", "142548.390000", "142549.880000", "142551.370000", "142552.860000", "142554.350000", "142555.840000", "142557.330000", "142558.820000", "142600.310000", "142601.800000", "142603.290000", "142604.780000", "142606.270000", "142607.760000", "142609.250000", "142610.740000", "142612.230000", "142613.720000", "142615.210000", "142616.700000", "142618.190000", "142619.680000", "142621.170000", "142622.660000", "142624.150000", "142625.640000", "142627.130000", "142628.620000", "142630.110000", "142631.600000", "142633.090000", "142634.580000", "142636.070000", "142637.560000", "142639.050000", "142640.540000", "142642.030000", "142643.520000", "142645.010000", "142646.500000", "142647.990000", "142649.480000", "142650.970000", "142652.460000", "142653.950000", "142655.440000", "142656.930000", "142658.420000", "142659.910000", "142701.400000", "142702.890000", "142704.380000", "142705.870000", "142707.360000", "142708.850000", "142710.340000", "142711.830000", "142713.320000", "142714.810000", "142716.300000", "142717.790000", "142719.280000", "142720.770000", "142722.260000", "142723.750000", "142725.240000", "142726.730000", "142728.220000", "142729.710000", "142731.200000", "142732.690000", "142734.180000", "142735.670000", "142737.160000", "142738.650000", "142740.140000", "142741.630000", "142743.120000", "142744.610000", "142746.100000", "142747.590000", "142749.080000", "142750.570000", "142752.060000", "142753.550000", "142755.040000", "142756.530000", "142758.020000", "142759.510000", "142801.000000", "142802.490000", "142803.980000", "142805.470000", "142806.960000", "142808.450000", "142809.940000", "142811.430000", "142812.920000", "142814.410000", "142815.900000", "142817.390000", "142818.880000", "142820.370000", "142821.860000", "142823.350000", "142824.840000", "142826.330000", "142827.820000", "142829.310000", "142830.800000", "142832.290000"],
      "ContentTime": ["141738.467000", "141738.470000", "141738.473000", "141738.476000", "141738.479000", "141738.482000", "141738.484000", "141738.488000", "141738.490000", "141738.493000", "141738.496000", "141738.499000", "141738.502000", "141738.505000", "141738.508000", "141738.517000", "141738.520000", "141738.522000", "141738.525000", "141738.528000", "141738.531000", "141738.534000", "141738.538000", "141738.541000", "141738.543000", "141738.546000", "141758.436000", "141758.439000", "141758.442000", "141758.445000", "141758.448000", "141758.498000", "141758.501000", "141758.504000", "141758.507000", "141758.510000", "141758.512000", "141758.515000", "141758.518000", "141758.521000", "141758.524000", "141758.527000", "141758.530000", "141758.533000", "141758.535000", "141758.538000", "141818.436000", "141818.439000", "141818.442000", "141818.444000", "141818.447000", "141818.450000", "141818.453000", "141818.456000", "141818.459000", "141818.462000", "141818.464000", "141818.467000", "141818.476000", "141818.479000", "141818.482000", "141818.485000", "141818.488000", "141818.491000", "141818.494000", "141818.496000", "141838.436000", "141838.439000", "141838.442000", "141838.444000", "141838.447000", "141838.450000", "141838.453000", "141838.456000", "141838.459000", "141838.462000", "141838.464000", "141838.467000", "141838.470000", "141838.473000", "141838.476000", "141838.484000", "141838.487000", "141838.490000", "141838.493000", "141838.495000", "141858.436000", "141858.439000", "141858.442000", "141858.444000", "141858.447000", "141858.457000", "141858.460000", "141858.463000", "141858.466000", "141858.475000", "141858.478000", "141858.481000", "141858.484000", "141858.486000", "141858.489000", "141858.492000", "141858.495000", "141858.498000", "141858.501000", "141858.504000", "141938.435000", "141938.438000", "141938.441000", "141938.444000", "141938.446000", "141938.449000", "141938.452000", "141938.455000", "141938.458000", "141938.461000", "141938.464000", "141938.466000", "141938.469000", "141938.472000", "141938.475000", "141938.478000", "141938.481000", "141938.484000", "141938.487000", "141938.490000", "141938.500000", "141938.503000", "141938.506000", "141938.509000", "141938.511000", "141938.514000", "141938.517000", "142018.436000", "142018.444000", "142018.447000", "142018.450000", "142018.453000", "142018.456000", "142018.459000", "142018.462000", "142018.464000", "142018.467000", "142018.470000", "142018.473000", "142018.476000", "142018.486000", "142018.489000", "142018.492000", "142018.494000", "142018.497000", "142018.500000", "142018.503000", "142018.506000", "142018.509000", "142018.512000", "142018.515000", "142018.517000", "142018.520000", "142018.523000", "142058.436000", "142058.439000", "142058.442000", "142058.445000", "142058.448000", "142058.450000", "142058.454000", "142058.457000", "142058.460000", "142058.463000", "142058.466000", "142058.468000", "142058.471000", "142058.474000", "142058.477000", "142058.480000", "142058.483000", "142058.486000", "142058.489000", "142058.491000", "142058.494000", "142058.497000", "142058.500000", "142058.503000", "142058.506000", "142058.508000", "142138.436000", "142138.439000", "142138.442000", "142138.445000", "142138.448000", "142138.450000", "142138.453000", "142138.456000", "142138.459000", "142138.462000", "142138.465000", "142138.468000", "142138.471000", "142138.473000", "142138.477000", "142138.479000", "142138.482000", "142138.485000", "142138.488000", "142138.491000", "142138.494000", "142138.497000", "142138.500000", "142138.502000", "142138.505000", "142138.508000", "142138.511000", "142218.436000", "142218.439000", "142218.442000", "142218.445000", "142218.447000", "142218.451000", "142218.453000", "142218.456000", "142218.459000", "142218.462000", "142218.465000", "142218.468000", "142218.471000", "142218.474000", "142218.477000", "142218.480000", "142218.483000", "142218.486000", "142218.489000", "142218.492000", "142218.495000", "142218.498000", "142218.510000", "142218.512000", "142218.515000", "142218.518000", "142218.521000", "142258.436000", "142258.439000", "142258.442000", "142258.445000", "142258.448000", "142258.451000", "142258.453000", "142258.456000", "142258.459000", "142258.462000", "142258.465000", "142258.468000", "142258.471000", "142258.473000", "142258.476000", "142258.479000", "142258.490000", "142258.493000", "142258.496000", "142258.498000", "142258.501000", "142258.504000", "142258.507000", "142258.510000", "142258.513000", "142258.516000", "142258.518000", "142338.436000", "142338.439000", "142338.442000", "142338.445000", "142338.448000", "142338.450000", "142338.453000", "142338.456000", "142338.459000", "142338.462000", "142338.465000", "142338.468000", "142338.471000", "142338.473000", "142338.476000", "142338.479000", "142338.482000", "142338.485000", "142338.488000", "142338.491000", "142338.493000", "142338.496000", "142338.499000", "142338.502000", "142338.505000", "142338.508000", "142338.511000", "142418.435000", "142418.438000", "142418.441000", "142418.444000", "142418.447000", "142418.458000", "142418.461000", "142418.463000", "142418.466000", "142418.469000", "142418.472000", "142418.475000", "142418.478000", "142418.481000", "142418.484000", "142418.486000", "142418.489000", "142418.492000", "142418.495000", "142418.498000", "142418.501000", "142418.504000", "142418.506000", "142418.509000", "142418.512000", "142418.515000", "142418.518000", "142458.436000", "142458.439000", "142458.442000", "142458.445000", "142458.448000", "142458.451000", "142458.453000", "142458.456000", "142458.459000", "142458.462000", "142458.465000", "142458.468000", "142458.471000", "142458.480000", "142458.484000", "142458.487000", "142458.489000", "142458.492000", "142458.495000", "142458.498000", "142458.501000", "142458.504000", "142458.507000", "142458.510000", "142458.512000", "142458.515000", "142538.436000", "142538.439000", "142538.442000", "142538.445000", "142538.448000", "142538.450000", "142538.453000", "142538.456000", "142538.459000", "142538.462000", "142538.465000", "142538.468000", "142538.471000", "142538.473000", "142538.476000", "142538.479000", "142538.482000", "142538.485000", "142538.488000", "142538.491000", "142538.494000", "142538.497000", "142538.499000", "142538.502000", "142538.505000", "142538.508000", "142538.511000", "142618.436000", "142618.439000", "142618.442000", "142618.445000", "142618.448000", "142618.450000", "142618.453000", "142618.456000", "142618.459000", "142618.462000", "142618.465000", "142618.468000", "142618.471000", "142618.473000", "142618.477000", "142618.479000", "142618.482000", "142618.485000", "142618.488000", "142618.491000", "142618.494000", "142618.496000", "142618.499000", "142618.502000", "142618.505000", "142618.508000", "142618.511000", "142658.436000", "142658.439000", "142658.442000", "142658.445000", "142658.448000", "142658.451000", "142658.454000", "142658.456000", "142658.459000", "142658.462000", "142658.465000", "142658.468000", "142658.471000", "142658.474000", "142658.477000", "142658.480000", "142658.482000", "142658.485000", "142658.488000", "142658.491000", "142658.494000", "142658.497000", "142658.500000", "142658.503000", "142658.505000", "142658.508000", "142658.511000", "142738.436000", "142738.439000", "142738.442000", "142738.445000", "142738.456000", "142738.459000", "142738.462000", "142738.465000", "142738.468000", "142738.470000", "142738.473000", "142738.476000", "142738.479000", "142738.482000", "142738.485000", "142738.488000", "142738.491000", "142738.494000", "142738.496000", "142738.499000", "142738.502000", "142738.505000", "142738.508000", "142738.511000", "142738.514000", "142738.517000", "142738.519000", "142758.436000", "142758.439000", "142758.442000", "142758.445000", "142758.448000", "142758.451000", "142758.453000", "142758.457000", "142758.459000", "142758.462000", "142758.465000", "142758.468000", "142758.471000", "142834.586000", "142834.589000", "142834.592000", "142834.595000", "142834.609000", "142834.612000", "142834.615000", "142834.618000", "142834.621000", "142834.624000", "142834.626000", "142834.629000", "142834.632000", "142834.635000", "142834.638000", "142834.641000", "142834.644000", "142834.647000", "142834.650000", "142834.653000", "142834.656000", "142834.659000", "142834.662000", "142834.664000", "142834.667000"],
