{
  "AcquisitionMatrixPE": 104,
  "AcquisitionNumber": 1,
  "AcquisitionTime": "15:05:1.090000",
  "BandwidthPerPixelPhaseEncode": 17.17,
  "BaseResolution": 104,
  "BodyPartExamined": "BRAIN",
  "CoilString": "HC1-7;NC1_2",
  "ConsistencyInfo": "N4_VE11C_LATEST_20160120",
  "ConversionSoftware": "dcm2niix",
  "ConversionSoftwareVersion": "v1.0.20190902",
  "DerivedVendorReportedEchoSpacing": 0.000560011,
  "DeviceSerialNumber": "167006",
  "DwellTime": 2.1e-06,
  "EchoTime": 0.037,
  "EchoTrainLength": 104,
  "EffectiveEchoSpacing": 0.000560011,
  "FlipAngle": 52,
  "ImageComments": "Unaliased_MB4_PE3_LB",
  "ImageOrientationPatientDICOM": [0.999924, 0.00801426, 0.00941539, -0.0020942, 0.860266, -0.509842],
  "ImageType": [
    "ORIGINAL",
    "PRIMARY",
    "M",
    "MB",
    "ND",
    "MOSAIC"
],
  "ImagingFrequency": 123.259,
  "InPlanePhaseEncodingDirectionDICOM": "COL",
  "InstitutionAddress": "Chemin_Queen-Mary_4565_Montreal_District_CA_H3W_1W5",
  "InstitutionName": "IUGM",
  "InstitutionalDepartmentName": "Department",
  "MRAcquisitionType": "2D",
  "MagneticFieldStrength": 3,
  "Manufacturer": "Siemens",
  "ManufacturersModelName": "Prisma_fit",
  "Modality": "MR",
  "MultibandAccelerationFactor": 4,
  "PartialFourier": 1,
  "PatientPosition": "HFS",
  "PercentPhaseFOV": 100,
  "PhaseEncodingDirection": "j",
  "PhaseEncodingSteps": 104,
  "PhaseResolution": 1,
  "PixelBandwidth": 2290,
  "ProcedureStepDescription": "video_friends",
  "ProtocolName": "func_task-friends-s05e09b",
  "PulseSequenceDetails": "%CustomerSeq%_cmrr_mbep2d_bold",
  "ReceiveCoilActiveElements": "HC1-7;NC1,2",
  "ReceiveCoilName": "HeadNeck_64",
  "ReconMatrixPE": 104,
  "RepetitionTime": 1.49,
  "SAR": 0.0359336,
  "ScanOptions": "FS",
  "ScanningSequence": "EP",
  "SequenceName": "epfid2d1_104",
  "SequenceVariant": "SK_SS",
  "SeriesDescription": "func_task-friends-s05e09b",
  "SeriesNumber": 21,
  "ShimSetting": [628, -7192, -8870, 405, 0, -182, -19, -26],
  "SliceThickness": 2,
  "SliceTiming": [0, 0.785, 0.0975, 0.8825, 0.195, 0.98, 0.295, 1.0775, 0.3925, 1.175, 0.49, 1.2725, 0.5875, 1.3725, 0.685, 0, 0.785, 0.0975, 0.8825, 0.195, 0.98, 0.295, 1.0775, 0.3925, 1.175, 0.49, 1.2725, 0.5875, 1.3725, 0.685, 0, 0.785, 0.0975, 0.8825, 0.195, 0.98, 0.295, 1.0775, 0.3925, 1.175, 0.49, 1.2725, 0.5875, 1.3725, 0.685, 0, 0.785, 0.0975, 0.8825, 0.195, 0.98, 0.295, 1.0775, 0.3925, 1.175, 0.49, 1.2725, 0.5875, 1.3725, 0.685],
  "SoftwareVersions": "syngo_MR_E11",
  "SpacingBetweenSlices": 2,
  "StationName": "MRC35049",
  "TaskName": "s05e09b",
  "TotalReadoutTime": 0.0576811,
  "TxRefAmp": 250.938,
  "WipMemBlock": "4b3ff715-8b52-4956-a287-c86f5ad3dfbf||Sequence: R016 ve11c/master r/e634e98; Dec 19 2017 11:00:25 by eja",
  "dcmmeta_affine": [
    [-1.999847173690796, -0.004188397899270058, 0.024371476843953133, 103.1635513305664],
    [-0.016028527170419693, 1.7205312252044678, -1.0195661783218384, -58.59907150268555],
    [0.01883077062666416, 1.019683599472046, 1.7204333543777466, -104.98365020751953],
    [0.0, 0.0, 0.0, 1.0]
],
  "dcmmeta_reorient_transform": [
    [0.0, -1.0, 0.0, 103.0],
    [1.0, 0.0, 0.0, 0.0],
    [0.0, 0.0, 1.0, 0.0],
    [0.0, 0.0, 0.0, 1.0]
],
  "dcmmeta_shape": [104, 104, 60, 490],
  "dcmmeta_slice_dim": 2,
  "dcmmeta_version": 0.6,
  "global": {
    "const": {
      "AcquisitionMatrix": [104, 0, 0, 104],
      "AngioFlag": "N",
      "BitsAllocated": 16,
      "BitsStored": 16,
      "BodyPartExamined": "BRAIN",
      "Columns": 832,
      "EchoNumbers": 1,
      "EchoTime": 37.0,
      "EchoTrainLength": 104,
      "FlipAngle": 52.0,
      "HighBit": 15,
      "ImageOrientationPatient": [0.99992355813153, 0.00801426356381, 0.00941538491564, -0.0020941988839, 0.86026563380458, -0.5098417927415],
      "ImagePositionPatient": [-829.15192026558, -750.72341547354, 364.35418384771],
      "ImageType": [
        "ORIGINAL",
        "PRIMARY",
        "M",
        "MB",
        "ND",
        "MOSAIC"
],
      "ImagedNucleus": "1H",
      "ImagingFrequency": 123.25901,
      "InPlanePhaseEncodingDirection": "COL",
      "MRAcquisitionType": "2D",
      "MagneticFieldStrength": 3.0,
      "Manufacturer": "SIEMENS",
      "ManufacturerModelName": "Prisma_fit",
      "Modality": "MR",
      "NumberOfAverages": 1.0,
      "NumberOfPhaseEncodingSteps": 104,
      "PercentPhaseFieldOfView": 100.0,
      "PercentSampling": 100.0,
      "PerformedProcedureStepStartTime": "134528.001000",
      "PhotometricInterpretation": "MONOCHROME2",
      "PixelBandwidth": 2290.0,
      "PixelRepresentation": 0,
      "PixelSpacing": [2.0, 2.0],
      "ProtocolName": "func_task-friends-s05e09b",
      "RepetitionTime": 1490.0,
      "Rows": 832,
      "SAR": 0.03593357636901,
      "SamplesPerPixel": 1,
      "ScanOptions": "FS",
      "ScanningSequence": "EP",
      "SequenceName": "epfid2d1_104",
      "SequenceVariant": [
        "SK",
        "SS"
],
      "SeriesDescription": "func_task-friends-s05e09b",
      "SeriesNumber": 21,
      "SeriesTime": "150628.194000",
      "SliceLocation": -59.178744813352,
      "SliceThickness": 2.0,
      "SmallestImagePixelValue": 0,
      "SoftwareVersions": "syngo MR E11",
      "SpacingBetweenSlices": 1.9999999985904,
      "SpecificCharacterSet": "ISO_IR 100",
      "StudyID": "1",
      "StudyTime": "134527.903000",
      "TransmitCoilName": "Body",
      "VariableFlipAngleFlag": "N",
      "WindowCenterWidthExplanation": "Algo1",
      "dBdt": 0.0},
    "slices": {}
  },
  "time": {
    "samples": {
      "AcquisitionNumber": [1, 2, 3, 4, 5, 6, 7, 8, 9, 10, 11, 12, 13, 14, 15, 16, 17, 18, 19, 20, 21, 22, 23, 24, 25, 26, 27, 28, 29, 30, 31, 32, 33, 34, 35, 36, 37, 38, 39, 40, 41, 42, 43, 44, 45, 46, 47, 48, 49, 50, 51, 52, 53, 54, 55, 56, 57, 58, 59, 60, 61, 62, 63, 64, 65, 66, 67, 68, 69, 70, 71, 72, 73, 74, 75, 76, 77, 78, 79, 80, 81, 82, 83, 84, 85, 86, 87, 88, 89, 90, 91, 92, 93, 94, 95, 96, 97, 98, 99, 100, 101, 102, 103, 104, 105, 106, 107, 108, 109, 110, 111, 112, 113, 114, 115, 116, 117, 118, 119, 120, 121, 122, 123, 124, 125, 126, 127, 128, 129, 130, 131, 132, 133, 134, 135, 136, 137, 138, 139, 140, 141, 142, 143, 144, 145, 146, 147, 148, 149, 150, 151, 152, 153, 154, 155, 156, 157, 158, 159, 160, 161, 162, 163, 164, 165, 166, 167, 168, 169, 170, 171, 172, 173, 174, 175, 176, 177, 178, 179, 180, 181, 182, 183, 184, 185, 186, 187, 188, 189, 190, 191, 192, 193, 194, 195, 196, 197, 198, 199, 200, 201, 202, 203, 204, 205, 206, 207, 208, 209, 210, 211, 212, 213, 214, 215, 216, 217, 218, 219, 220, 221, 222, 223, 224, 225, 226, 227, 228, 229, 230, 231, 232, 233, 234, 235, 236, 237, 238, 239, 240, 241, 242, 243, 244, 245, 246, 247, 248, 249, 250, 251, 252, 253, 254, 255, 256, 257, 258, 259, 260, 261, 262, 263, 264, 265, 266, 267, 268, 269, 270, 271, 272, 273, 274, 275, 276, 277, 278, 279, 280, 281, 282, 283, 284, 285, 286, 287, 288, 289, 290, 291, 292, 293, 294, 295, 296, 297, 298, 299, 300, 301, 302, 303, 304, 305, 306, 307, 308, 309, 310, 311, 312, 313, 314, 315, 316, 317, 318, 319, 320, 321, 322, 323, 324, 325, 326, 327, 328, 329, 330, 331, 332, 333, 334, 335, 336, 337, 338, 339, 340, 341, 342, 343, 344, 345, 346, 347, 348, 349, 350, 351, 352, 353, 354, 355, 356, 357, 358, 359, 360, 361, 362, 363, 364, 365, 366, 367, 368, 369, 370, 371, 372, 373, 374, 375, 376, 377, 378, 379, 380, 381, 382, 383, 384, 385, 386, 387, 388, 389, 390, 391, 392, 393, 394, 395, 396, 397, 398, 399, 400, 401, 402, 403, 404, 405, 406, 407, 408, 409, 410, 411, 412, 413, 414, 415, 416, 417, 418, 419, 420, 421, 422, 423, 424, 425, 426, 427, 428, 429, 430, 431, 432, 433, 434, 435, 436, 437, 438, 439, 440, 441, 442, 443, 444, 445, 446, 447, 448, 449, 450, 451, 452, 453, 454, 455, 456, 457, 458, 459, 460, 461, 462, 463, 464, 465, 466, 467, 468, 469, 470, 471, 472, 473, 474, 475, 476, 477, 478, 479, 480, 481, 482, 483, 484, 485, 486, 487, 488, 489, 490],
      "AcquisitionTime": ["150501.090000", "150502.580000", "150504.070000", "150505.560000", "150507.050000", "150508.540000", "150510.030000", "150511.520000", "150513.010000", "150514.500000", "150515.990000", "150517.480000", "150518.970000", "150520.460000", "150521.950000", "150523.440000", "150524.930000", "150526.420000", "150527.910000", "150529.400000", "150530.890000", "150532.380000", "150533.870000", "150535.360000", "150536.850000", "150538.340000", "150539.830000", "150541.320000", "150542.810000", "150544.300000", "150545.790000", "150547.280000", "150548.770000", "150550.260000", "150551.750000", "150553.240000", "150554.730000", "150556.220000", "150557.710000", "150559.200000", "150600.690000", "150602.180000", "150603.670000", "150605.160000", "150606.650000", "150608.140000", "150609.630000", "150611.120000", "150612.610000", "150614.100000", "150615.590000", "150617.080000", "150618.570000", "150620.060000", "150621.550000", "150623.040000", "150624.530000", "150626.020000", "150627.510000", "150629.000000", "150630.490000", "150631.980000", "150633.470000", "150634.960000", "150636.450000", "150637.940000", "150639.430000", "150640.920000", "150642.410000", "150643.900000", "150645.390000", "150646.880000", "150648.370000", "150649.860000", "150651.350000", "150652.840000", "150654.330000", "150655.820000", "150657.310000", "150658.800000", "150700.290000", "150701.780000", "150703.270000", "150704.760000", "150706.250000", "150707.740000", "150709.230000", "150710.720000", "150712.210000", "150713.700000", "150715.190000", "150716.680000", "150718.170000", "150719.660000", "150721.150000", "150722.640000", "150724.130000", "150725.620000", "150727.110000", "150728.600000", "150730.090000", "150731.580000", "150733.070000", "150734.560000", "150736.050000", "150737.540000", "150739.030000", "150740.520000", "150742.010000", "150743.500000", "150744.990000", "150746.480000", "150747.970000", "150749.460000", "150750.950000", "150752.440000", "150753.930000", "150755.420000", "150756.910000", "150758.400000", "150759.890000", "150801.380000", "150802.870000", "150804.360000", "150805.850000", "150807.340000", "150808.830000", "150810.320000", "150811.810000", "150813.300000", "150814.790000", "150816.280000", "150817.770000", "150819.260000", "150820.750000", "150822.240000", "150823.730000", "150825.220000", "150826.710000", "150828.200000", "150829.690000", "150831.180000", "150832.670000", "150834.160000", "150835.650000", "150837.140000", "150838.630000", "150840.120000", "150841.610000", "150843.100000", "150844.590000", "150846.080000", "150847.570000", "150849.060000", "150850.550000", "150852.040000", "150853.530000", "150855.020000", "150856.510000", "150858.000000", "150859.490000", "150900.980000", "150902.470000", "150903.960000", "150905.450000", "150906.940000", "150908.430000", "150909.920000", "150911.410000", "150912.900000", "150914.390000", "150915.880000", "150917.370000", "150918.860000", "150920.350000", "150921.840000", "150923.330000", "150924.820000", "150926.310000", "150927.800000", "150929.290000", "150930.780000", "150932.270000", "150933.760000", "150935.250000", "150936.740000", "150938.230000", "150939.720000", "150941.210000", "150942.700000", "150944.190000", "150945.680000", "150947.170000", "150948.660000", "150950.150000", "150951.640000", "150953.130000", "150954.620000", "150956.110000", "150957.600000", "150959.090000", "151000.580000", "151002.070000", "151003.560000", "151005.050000", "151006.540000", "151008.030000", "151009.520000", "151011.010000", "151012.500000", "151013.990000", "151015.480000", "151016.970000", "151018.460000", "151019.950000", "151021.440000", "151022.930000", "151024.420000", "151025.910000", "151027.400000", "151028.890000", "151030.380000", "151031.870000", "151033.360000", "151034.850000", "151036.340000", "151037.830000", "151039.320000", "151040.810000", "151042.300000", "151043.790000", "151045.280000", "151046.770000", "151048.260000", "151049.750000", "151051.240000", "151052.730000", "151054.220000", "151055.710000", "151057.200000", "151058.690000", "151100.180000", "151101.670000", "151103.160000", "151104.650000", "151106.140000", "151107.630000", "151109.120000", "151110.610000", "151112.100000", "151113.590000", "151115.080000", "151116.570000", "151118.060000", "151119.550000", "151121.040000", "151122.530000", "151124.020000", "151125.510000", "151127.000000", "151128.490000", "151129.980000", "151131.470000", "151132.960000", "151134.450000", "151135.940000", "151137.430000", "151138.920000", "151140.410000", "151141.900000", "151143.390000", "151144.880000", "151146.370000", "151147.860000", "151149.350000", "151150.840000", "151152.330000", "151153.820000", "151155.310000", "151156.800000", "151158.290000", "151159.780000", "151201.270000", "151202.760000", "151204.250000", "151205.740000", "151207.230000", "151208.720000", "151210.210000", "151211.700000", "151213.190000", "151214.680000", "151216.170000", "151217.660000", "151219.150000", "151220.640000", "151222.130000", "151223.620000", "151225.110000", "151226.600000", "151228.090000", "151229.580000", "151231.070000", "151232.560000", "151234.050000", "151235.540000", "151237.030000", "151238.520000", "151240.010000", "151241.500000", "151242.990000", "151244.480000", "151245.970000", "151247.460000", "151248.950000", "151250.440000", "151251.930000", "151253.420000", "151254.910000", "151256.400000", "151257.890000", "151259.380000", "151300.870000", "151302.360000", "151303.850000", "151305.340000", "151306.830000", "151308.320000", "151309.810000", "151311.300000", "151312.790000", "151314.280000", "151315.770000", "151317.260000", "151318.750000", "151320.240000", "151321.730000", "151323.220000", "151324.710000", "151326.200000", "151327.690000", "151329.180000", "151330.670000", "151332.160000", "151333.650000", "151335.140000", "151336.630000", "151338.120000", "151339.610000", "151341.100000", "151342.590000", "151344.080000", "151345.570000", "151347.060000", "151348.550000", "151350.040000", "151351.530000", "151353.020000", "151354.510000", "151356.000000", "151357.490000", "151358.980000", "151400.470000", "151401.960000", "151403.450000", "151404.940000", "151406.430000", "151407.920000", "151409.410000", "151410.900000", "151412.390000", "151413.880000", "151415.370000", "151416.860000", "151418.350000", "151419.840000", "151421.330000", "151422.820000", "151424.310000", "151425.800000", "151427.290000", "151428.780000", "151430.270000", "151431.760000", "151433.250000", "151434.740000", "151436.230000", "151437.720000", "151439.210000", "151440.700000", "151442.190000", "151443.680000", "151445.170000", "151446.660000", "151448.150000", "151449.640000", "151451.130000", "151452.620000", "151454.110000", "151455.600000", "151457.090000", "151458.580000", "151500.070000", "151501.560000", "151503.050000", "151504.540000", "151506.030000", "151507.520000", "151509.010000", "151510.500000", "151511.990000", "151513.480000", "151514.970000", "151516.460000", "151517.950000", "151519.440000", "151520.930000", "151522.420000", "151523.910000", "151525.400000", "151526.890000", "151528.380000", "151529.870000", "151531.360000", "151532.850000", "151534.340000", "151535.830000", "151537.320000", "151538.810000", "151540.300000", "151541.790000", "151543.280000", "151544.770000", "151546.260000", "151547.750000", "151549.240000", "151550.730000", "151552.220000", "151553.710000", "151555.200000", "151556.690000", "151558.180000", "151559.670000", "151601.160000", "151602.650000", "151604.140000", "151605.630000", "151607.120000", "151608.610000", "151610.100000", "151611.590000", "151613.080000", "151614.570000", "151616.060000", "151617.550000", "151619.040000", "151620.530000", "151622.020000", "151623.510000", "151625.000000", "151626.490000", "151627.980000", "151629.470000", "151630.960000", "151632.450000", "151633.940000", "151635.430000", "151636.920000", "151638.410000", "151639.900000", "151641.390000", "151642.880000", "151644.370000", "151645.860000", "151647.350000", "151648.840000", "151650.330000", "151651.820000", "151653.310000", "151654.800000", "151656.290000", "151657.780000", "151659.270000", "151700.760000", "151702.250000", "151703.740000", "151705.230000", "151706.720000", "151708.210000", "151709.700000"],
      "ContentTime": ["150628.198000", "150628.201000", "150628.204000", "150628.207000", "150628.214000", "150628.217000", "150628.220000", "150628.223000", "150628.226000", "150628.229000", "150628.231000", "150628.234000", "150628.243000", "150628.246000", "150628.248000", "150628.251000", "150628.254000", "150628.257000", "150628.260000", "150628.263000", "150628.266000", "150628.268000", "150628.271000", "150628.274000", "150628.277000", "150628.280000", "150628.283000", "150628.286000", "150628.289000", "150628.291000", "150628.294000", "150628.297000", "150628.300000", "150628.303000", "150648.153000", "150648.156000", "150648.159000", "150648.161000", "150648.164000", "150648.167000", "150648.170000", "150648.173000", "150648.179000", "150648.182000", "150648.185000", "150648.187000", "150648.190000", "150648.193000", "150648.196000", "150648.199000", "150648.202000", "150648.205000", "150648.207000", "150648.210000", "150708.153000", "150708.156000", "150708.167000", "150708.170000", "150708.173000", "150708.175000", "150708.178000", "150708.181000", "150708.184000", "150708.187000", "150708.190000", "150708.193000", "150708.196000", "150708.198000", "150708.201000", "150708.204000", "150708.207000", "150708.210000", "150708.213000", "150708.216000", "150708.218000", "150728.153000", "150728.156000", "150728.159000", "150728.162000", "150728.165000", "150728.168000", "150728.170000", "150728.178000", "150728.181000", "150728.184000", "150728.186000", "150728.189000", "150728.192000", "150728.195000", "150728.198000", "150728.201000", "150728.204000", "150728.207000", "150728.210000", "150728.212000", "150808.153000", "150808.156000", "150808.159000", "150808.162000", "150808.165000", "150808.168000", "150808.171000", "150808.173000", "150808.176000", "150808.179000", "150808.182000", "150808.185000", "150808.188000", "150808.191000", "150808.193000", "150808.196000", "150808.199000", "150808.202000", "150808.205000", "150808.208000", "150808.211000", "150808.214000", "150808.216000", "150808.219000", "150808.222000", "150808.225000", "150808.228000", "150808.231000", "150808.234000", "150808.237000", "150848.154000", "150848.157000", "150848.160000", "150848.163000", "150848.165000", "150848.168000", "150848.171000", "150848.174000", "150848.177000", "150848.180000", "150848.183000", "150848.185000", "150848.188000", "150848.191000", "150848.194000", "150848.197000", "150848.200000", "150848.203000", "150848.206000", "150848.208000", "150848.211000", "150848.214000", "150848.217000", "150848.220000", "150848.223000", "150848.226000", "150848.228000", "150928.153000", "150928.156000", "150928.159000", "150928.162000", "150928.165000", "150928.168000", "150928.170000", "150928.173000", "150928.176000", "150928.179000", "150928.182000", "150928.185000", "150928.188000", "150928.191000", "150928.194000", "150928.196000", "150928.204000", "150928.207000", "150928.210000", "150928.213000", "150928.216000", "150928.219000", "150928.221000", "150928.224000", "150928.227000", "150928.230000", "150928.233000", "151008.154000", "151008.157000", "151008.160000", "151008.167000", "151008.169000", "151008.172000", "151008.175000", "151008.178000", "151008.181000", "151008.184000", "151008.187000", "151008.190000", "151008.193000", "151008.196000", "151008.198000", "151008.201000", "151008.204000", "151008.207000", "151008.210000", "151008.213000", "151008.216000", "151008.219000", "151008.221000", "151008.224000", "151008.227000", "151008.230000", "151048.153000", "151048.156000", "151048.159000", "151048.162000", "151048.165000", "151048.168000", "151048.171000", "151048.173000", "151048.184000", "151048.187000", "151048.190000", "151048.193000", "151048.196000", "151048.199000", "151048.201000", "151048.204000", "151048.207000", "151048.210000", "151048.213000", "151048.216000", "151048.219000", "151048.222000", "151048.224000", "151048.227000", "151048.230000", "151048.233000", "151048.236000", "151128.153000", "151128.156000", "151128.159000", "151128.162000", "151128.165000", "151128.168000", "151128.170000", "151128.173000", "151128.176000", "151128.179000", "151128.182000", "151128.185000", "151128.188000", "151128.190000", "151128.193000", "151128.196000", "151128.199000", "151128.202000", "151128.205000", "151128.208000", "151128.211000", "151128.213000", "151128.216000", "151128.219000", "151128.222000", "151128.225000", "151128.228000", "151208.154000", "151208.157000", "151208.160000", "151208.163000", "151208.166000", "151208.169000", "151208.171000", "151208.174000", "151208.177000", "151208.180000", "151208.183000", "151208.186000", "151208.189000", "151208.192000", "151208.194000", "151208.197000", "151208.200000", "151208.203000", "151208.206000", "151208.209000", "151208.212000", "151208.214000", "151208.217000", "151208.220000", "151208.223000", "151208.226000", "151208.229000", "151248.153000", "151248.156000", "151248.163000", "151248.166000", "151248.169000", "151248.172000", "151248.175000", "151248.178000", "151248.181000", "151248.184000", "151248.187000", "151248.189000", "151248.192000", "151248.195000", "151248.198000", "151248.201000", "151248.204000", "151248.206000", "151248.209000", "151248.212000", "151248.215000", "151248.218000", "151248.221000", "151248.224000", "151248.227000", "151248.229000", "151248.232000", "151328.153000", "151328.156000", "151328.159000", "151328.162000", "151328.173000", "151328.176000", "151328.179000", "151328.182000", "151328.185000", "151328.188000", "151328.191000", "151328.194000", "151328.197000", "151328.200000", "151328.202000", "151328.205000", "151328.208000", "151328.211000", "151328.214000", "151328.217000", "151328.219000", "151328.222000", "151328.225000", "151328.228000", "151328.231000", "151328.234000", "151328.237000", "151408.153000", "151408.156000", "151408.159000", "151408.162000", "151408.165000", "151408.168000", "151408.171000", "151408.174000", "151408.176000", "151408.179000", "151408.189000", "151408.192000", "151408.195000", "151408.198000", "151408.201000", "151408.204000", "151408.207000", "151408.209000", "151408.212000", "151408.215000", "151408.218000", "151408.221000", "151408.224000", "151408.227000", "151408.230000", "151408.233000", "151448.154000", "151448.157000", "151448.160000", "151448.163000", "151448.166000", "151448.169000", "151448.172000", "151448.174000", "151448.177000", "151448.180000", "151448.183000", "151448.186000", "151448.189000", "151448.192000", "151448.195000", "151448.198000", "151448.200000", "151448.209000", "151448.212000", "151448.215000", "151448.218000", "151448.221000", "151448.224000", "151448.227000", "151448.230000", "151448.233000", "151448.236000", "151528.153000", "151528.156000", "151528.159000", "151528.162000", "151528.165000", "151528.168000", "151528.171000", "151528.173000", "151528.176000", "151528.179000", "151528.182000", "151528.185000", "151528.188000", "151528.191000", "151528.194000", "151528.197000", "151528.199000", "151528.202000", "151528.205000", "151528.208000", "151528.211000", "151528.214000", "151528.217000", "151528.220000", "151528.222000", "151528.225000", "151528.228000", "151608.153000", "151608.156000", "151608.159000", "151608.162000", "151608.165000", "151608.168000", "151608.170000", "151608.173000", "151608.176000", "151608.179000", "151608.182000", "151608.185000", "151608.188000", "151608.191000", "151608.194000", "151608.197000", "151608.200000", "151608.202000", "151608.205000", "151608.208000", "151608.211000", "151608.214000", "151608.217000", "151608.220000", "151608.223000", "151608.225000", "151608.228000", "151648.154000", "151648.157000", "151648.160000", "151648.163000", "151648.166000", "151648.169000", "151648.171000", "151648.174000", "151648.177000", "151648.180000", "151648.183000", "151648.200000", "151648.203000", "151648.206000", "151648.209000", "151648.212000", "151648.214000", "151648.217000", "151648.220000", "151648.223000", "151648.226000", "151648.229000", "151648.232000", "151648.235000", "151648.238000", "151648.252000", "151648.255000", "151711.581000", "151711.584000", "151711.587000", "151711.590000", "151711.604000", "151711.606000", "151711.609000", "151711.612000", "151711.615000", "151711.618000", "151711.621000", "151711.624000", "151711.627000", "151711.630000", "151711.632000", "151711.635000"],
