{
  "AcquisitionMatrixPE": 104,
  "AcquisitionNumber": 1,
  "AcquisitionTime": "11:10:5.197500",
  "BandwidthPerPixelPhaseEncode": 17.17,
  "BaseResolution": 104,
  "BodyPartExamined": "BRAIN",
  "CoilCombinationMethod": "Sum of Squares",
  "ConsistencyInfo": "N4_VE11C_LATEST_20160120",
  "ConversionSoftware": "dcm2niix",
  "ConversionSoftwareVersion": "v1.0.20211006",
  "DerivedVendorReportedEchoSpacing": 0.000560011,
  "DeviceSerialNumber": "167006",
  "DwellTime": 2.1e-06,
  "EchoTime": 0.037,
  "EchoTrainLength": 104,
  "EffectiveEchoSpacing": 0.000560011,
  "FlipAngle": 52,
  "HeudiconvVersion": "0.11.3.post9+gc939bf8",
  "ImageComments": "Unaliased MB4/PE3/LB",
  "ImageOrientationPatientDICOM": [0.999824, 0.0169335, 0.00810549, -0.0141356, 0.963166, -0.268534],
  "ImageOrientationText": "Tra>Cor(-15.6)>Sag(0.7)",
  "ImageType": [
    "ORIGINAL",
    "PRIMARY",
    "M",
    "MB",
    "ND",
    "MOSAIC"
],
  "ImagingFrequency": 123.259,
  "InPlanePhaseEncodingDirectionDICOM": "COL",
  "InstitutionAddress": "Chemin Queen-Mary 4565,Montreal,District,CA,H3W 1W5",
  "InstitutionName": "IUGM",
  "InstitutionalDepartmentName": "Department",
  "MRAcquisitionType": "2D",
  "MagneticFieldStrength": 3,
  "Manufacturer": "Siemens",
  "ManufacturersModelName": "Prisma_fit",
  "MatrixCoilMode": "SENSE",
  "Modality": "MR",
  "MultibandAccelerationFactor": 4,
  "PartialFourier": 1,
  "PatientPosition": "HFS",
  "PercentPhaseFOV": 100,
  "PercentSampling": 100,
  "PhaseEncodingDirection": "j",
  "PhaseEncodingSteps": 104,
  "PhaseResolution": 1,
  "PixelBandwidth": 2290,
  "ProcedureStepDescription": "video^friends",
  "ProtocolName": "func_task-friends-s06e17b",
  "PulseSequenceDetails": "%CustomerSeq%\\cmrr_mbep2d_bold",
  "ReceiveCoilActiveElements": "HC1-7;NC1,2",
  "ReceiveCoilName": "HeadNeck_64",
  "ReconMatrixPE": 104,
  "RepetitionTime": 1.49,
  "SAR": 0.0321821,
  "ScanOptions": "FS",
  "ScanningSequence": "EP",
  "SequenceName": "epfid2d1_104",
  "SequenceVariant": "SK\\SS",
  "SeriesDescription": "func_task-friends-s06e17b",
  "SeriesNumber": 10,
  "ShimSetting": [638, -7217, -8748, 704, 70, 0, 38, -2],
  "SliceThickness": 2,
  "SliceTiming": [0, 0.785, 0.1, 0.8825, 0.1975, 0.98, 0.295, 1.08, 0.3925, 1.1775, 0.49, 1.275, 0.59, 1.3725, 0.6875, 0, 0.785, 0.1, 0.8825, 0.1975, 0.98, 0.295, 1.08, 0.3925, 1.1775, 0.49, 1.275, 0.59, 1.3725, 0.6875, 0, 0.785, 0.1, 0.8825, 0.1975, 0.98, 0.295, 1.08, 0.3925, 1.1775, 0.49, 1.275, 0.59, 1.3725, 0.6875, 0, 0.785, 0.1, 0.8825, 0.1975, 0.98, 0.295, 1.08, 0.3925, 1.1775, 0.49, 1.275, 0.59, 1.3725, 0.6875],
  "SoftwareVersions": "syngo MR E11",
  "SpacingBetweenSlices": 2,
  "StationName": "MRC35049",
  "TaskName": "s06e17b",
  "TotalReadoutTime": 0.0576811,
  "TxRefAmp": 206.999,
  "WipMemBlock": "c9ffafc1-dde2-4b53-b346-4598c7d460d6||Sequence: R016 ve11c/master r/e634e98; Dec 19 2017 11:00:25 by eja",
  "dcmmeta_affine": [
    [-1.9996474981307983, -0.028271248564124107, 0.024708300828933716, 106.07520294189453],
    [-0.03386691212654114, 1.9263328313827515, -0.5367448329925537, -80.52580261230469],
    [0.01621098257601261, 0.5370686650276184, 1.9264719486236572, -54.18156051635742],
    [0.0, 0.0, 0.0, 1.0]
],
  "dcmmeta_reorient_transform": [
    [0.0, -1.0, 0.0, 103.0],
    [1.0, 0.0, 0.0, 0.0],
    [0.0, 0.0, 1.0, 0.0],
    [0.0, 0.0, 0.0, 1.0]
],
  "dcmmeta_shape": [104, 104, 60, 462],
  "dcmmeta_slice_dim": 2,
  "dcmmeta_version": 0.6,
  "global": {
    "const": {
      "AcquisitionMatrix": [104, 0, 0, 104],
      "AngioFlag": "N",
      "BitsAllocated": 16,
      "BitsStored": 16,
      "BodyPartExamined": "BRAIN",
      "Columns": 832,
      "EchoNumbers": 1,
      "EchoTime": 37.0,
      "EchoTrainLength": 104,
      "FlipAngle": 52.0,
      "HighBit": 15,
      "ImageOrientationPatient": [0.99982376401581, 0.01693345584015, 0.00810549089039, -0.0141356241503, 0.96316639048872, -0.268534333676],
      "ImagePositionPatient": [-820.74422779837, -831.39916116539, 190.72871141271],
      "ImageType": [
        "ORIGINAL",
        "PRIMARY",
        "M",
        "MB",
        "ND",
        "MOSAIC"
],
      "ImagedNucleus": "1H",
      "ImagingFrequency": 123.25879,
      "InPlanePhaseEncodingDirection": "COL",
      "MRAcquisitionType": "2D",
      "MagneticFieldStrength": 3.0,
      "Manufacturer": "SIEMENS",
      "ManufacturerModelName": "Prisma_fit",
      "Modality": "MR",
      "NumberOfAverages": 1.0,
      "NumberOfPhaseEncodingSteps": 104,
      "PercentPhaseFieldOfView": 100.0,
      "PercentSampling": 100.0,
      "PerformedProcedureStepStartTime": "103306.787000",
      "PhotometricInterpretation": "MONOCHROME2",
      "PixelBandwidth": 2290.0,
      "PixelRepresentation": 0,
      "PixelSpacing": [2.0, 2.0],
      "ProtocolName": "func_task-friends-s06e17b",
      "RepetitionTime": 1490.0,
      "Rows": 832,
      "SAR": 0.03218208601082,
      "SamplesPerPixel": 1,
      "ScanOptions": "FS",
      "ScanningSequence": "EP",
      "SequenceName": "epfid2d1_104",
      "SequenceVariant": [
        "SK",
        "SS"
],
      "SeriesDescription": "func_task-friends-s06e17b",
      "SeriesNumber": 10,
      "SeriesTime": "111134.060000",
      "SliceLocation": -29.268253914757,
      "SliceThickness": 2.0,
      "SmallestImagePixelValue": 0,
      "SoftwareVersions": "syngo MR E11",
      "SpacingBetweenSlices": 1.9999999525623,
      "SpecificCharacterSet": "ISO_IR 100",
      "StudyID": "1",
      "StudyTime": "103306.678000",
      "TransmitCoilName": "Body",
      "VariableFlipAngleFlag": "N",
      "WindowCenterWidthExplanation": "Algo1",
      "dBdt": 0.0},
    "slices": {}
  },
  "time": {
    "samples": {
      "AcquisitionNumber": [1, 2, 3, 4, 5, 6, 7, 8, 9, 10, 11, 12, 13, 14, 15, 16, 17, 18, 19, 20, 21, 22, 23, 24, 25, 26, 27, 28, 29, 30, 31, 32, 33, 34, 35, 36, 37, 38, 39, 40, 41, 42, 43, 44, 45, 46, 47, 48, 49, 50, 51, 52, 53, 54, 55, 56, 57, 58, 59, 60, 61, 62, 63, 64, 65, 66, 67, 68, 69, 70, 71, 72, 73, 74, 75, 76, 77, 78, 79, 80, 81, 82, 83, 84, 85, 86, 87, 88, 89, 90, 91, 92, 93, 94, 95, 96, 97, 98, 99, 100, 101, 102, 103, 104, 105, 106, 107, 108, 109, 110, 111, 112, 113, 114, 115, 116, 117, 118, 119, 120, 121, 122, 123, 124, 125, 126, 127, 128, 129, 130, 131, 132, 133, 134, 135, 136, 137, 138, 139, 140, 141, 142, 143, 144, 145, 146, 147, 148, 149, 150, 151, 152, 153, 154, 155, 156, 157, 158, 159, 160, 161, 162, 163, 164, 165, 166, 167, 168, 169, 170, 171, 172, 173, 174, 175, 176, 177, 178, 179, 180, 181, 182, 183, 184, 185, 186, 187, 188, 189, 190, 191, 192, 193, 194, 195, 196, 197, 198, 199, 200, 201, 202, 203, 204, 205, 206, 207, 208, 209, 210, 211, 212, 213, 214, 215, 216, 217, 218, 219, 220, 221, 222, 223, 224, 225, 226, 227, 228, 229, 230, 231, 232, 233, 234, 235, 236, 237, 238, 239, 240, 241, 242, 243, 244, 245, 246, 247, 248, 249, 250, 251, 252, 253, 254, 255, 256, 257, 258, 259, 260, 261, 262, 263, 264, 265, 266, 267, 268, 269, 270, 271, 272, 273, 274, 275, 276, 277, 278, 279, 280, 281, 282, 283, 284, 285, 286, 287, 288, 289, 290, 291, 292, 293, 294, 295, 296, 297, 298, 299, 300, 301, 302, 303, 304, 305, 306, 307, 308, 309, 310, 311, 312, 313, 314, 315, 316, 317, 318, 319, 320, 321, 322, 323, 324, 325, 326, 327, 328, 329, 330, 331, 332, 333, 334, 335, 336, 337, 338, 339, 340, 341, 342, 343, 344, 345, 346, 347, 348, 349, 350, 351, 352, 353, 354, 355, 356, 357, 358, 359, 360, 361, 362, 363, 364, 365, 366, 367, 368, 369, 370, 371, 372, 373, 374, 375, 376, 377, 378, 379, 380, 381, 382, 383, 384, 385, 386, 387, 388, 389, 390, 391, 392, 393, 394, 395, 396, 397, 398, 399, 400, 401, 402, 403, 404, 405, 406, 407, 408, 409, 410, 411, 412, 413, 414, 415, 416, 417, 418, 419, 420, 421, 422, 423, 424, 425, 426, 427, 428, 429, 430, 431, 432, 433, 434, 435, 436, 437, 438, 439, 440, 441, 442, 443, 444, 445, 446, 447, 448, 449, 450, 451, 452, 453, 454, 455, 456, 457, 458, 459, 460, 461, 462],
      "AcquisitionTime": ["111005.197500", "111006.687500", "111008.177500", "111009.667500", "111011.157500", "111012.647500", "111014.137500", "111015.627500", "111017.117500", "111018.607500", "111020.097500", "111021.587500", "111023.077500", "111024.567500", "111026.057500", "111027.547500", "111029.037500", "111030.527500", "111032.017500", "111033.507500", "111034.997500", "111036.487500", "111037.977500", "111039.467500", "111040.957500", "111042.447500", "111043.937500", "111045.427500", "111046.917500", "111048.407500", "111049.897500", "111051.387500", "111052.877500", "111054.367500", "111055.857500", "111057.347500", "111058.837500", "111100.327500", "111101.817500", "111103.307500", "111104.797500", "111106.287500", "111107.777500", "111109.267500", "111110.757500", "111112.247500", "111113.737500", "111115.227500", "111116.717500", "111118.207500", "111119.697500", "111121.187500", "111122.677500", "111124.167500", "111125.657500", "111127.147500", "111128.637500", "111130.127500", "111131.617500", "111133.107500", "111134.597500", "111136.087500", "111137.577500", "111139.067500", "111140.557500", "111142.047500", "111143.537500", "111145.027500", "111146.517500", "111148.007500", "111149.497500", "111150.987500", "111152.477500", "111153.967500", "111155.457500", "111156.947500", "111158.437500", "111159.927500", "111201.417500", "111202.907500", "111204.397500", "111205.887500", "111207.377500", "111208.867500", "111210.357500", "111211.847500", "111213.337500", "111214.827500", "111216.317500", "111217.807500", "111219.297500", "111220.787500", "111222.277500", "111223.767500", "111225.257500", "111226.747500", "111228.237500", "111229.727500", "111231.217500", "111232.707500", "111234.197500", "111235.687500", "111237.177500", "111238.667500", "111240.157500", "111241.647500", "111243.137500", "111244.627500", "111246.117500", "111247.607500", "111249.097500", "111250.587500", "111252.077500", "111253.567500", "111255.057500", "111256.547500", "111258.037500", "111259.527500", "111301.017500", "111302.507500", "111303.997500", "111305.487500", "111306.977500", "111308.467500", "111309.957500", "111311.447500", "111312.937500", "111314.427500", "111315.917500", "111317.407500", "111318.897500", "111320.387500", "111321.877500", "111323.367500", "111324.857500", "111326.347500", "111327.837500", "111329.327500", "111330.817500", "111332.307500", "111333.797500", "111335.287500", "111336.777500", "111338.267500", "111339.757500", "111341.247500", "111342.737500", "111344.227500", "111345.717500", "111347.207500", "111348.697500", "111350.187500", "111351.677500", "111353.167500", "111354.657500", "111356.147500", "111357.637500", "111359.127500", "111400.617500", "111402.107500", "111403.597500", "111405.087500", "111406.577500", "111408.067500", "111409.557500", "111411.047500", "111412.537500", "111414.027500", "111415.517500", "111417.007500", "111418.497500", "111419.987500", "111421.477500", "111422.967500", "111424.457500", "111425.947500", "111427.437500", "111428.927500", "111430.417500", "111431.907500", "111433.397500", "111434.887500", "111436.377500", "111437.867500", "111439.357500", "111440.847500", "111442.337500", "111443.827500", "111445.317500", "111446.807500", "111448.297500", "111449.787500", "111451.277500", "111452.767500", "111454.257500", "111455.747500", "111457.237500", "111458.727500", "111500.217500", "111501.707500", "111503.197500", "111504.687500", "111506.177500", "111507.667500", "111509.157500", "111510.647500", "111512.137500", "111513.627500", "111515.117500", "111516.607500", "111518.097500", "111519.587500", "111521.077500", "111522.567500", "111524.057500", "111525.547500", "111527.037500", "111528.527500", "111530.017500", "111531.507500", "111532.997500", "111534.487500", "111535.977500", "111537.467500", "111538.957500", "111540.447500", "111541.937500", "111543.427500", "111544.917500", "111546.407500", "111547.897500", "111549.387500", "111550.877500", "111552.367500", "111553.857500", "111555.347500", "111556.837500", "111558.327500", "111559.817500", "111601.307500", "111602.797500", "111604.287500", "111605.777500", "111607.267500", "111608.757500", "111610.247500", "111611.737500", "111613.227500", "111614.717500", "111616.207500", "111617.697500", "111619.187500", "111620.677500", "111622.167500", "111623.657500", "111625.147500", "111626.637500", "111628.127500", "111629.617500", "111631.107500", "111632.597500", "111634.087500", "111635.577500", "111637.067500", "111638.557500", "111640.047500", "111641.537500", "111643.027500", "111644.517500", "111646.007500", "111647.497500", "111648.987500", "111650.477500", "111651.967500", "111653.457500", "111654.947500", "111656.437500", "111657.927500", "111659.417500", "111700.907500", "111702.397500", "111703.887500", "111705.377500", "111706.867500", "111708.357500", "111709.847500", "111711.337500", "111712.827500", "111714.317500", "111715.807500", "111717.297500", "111718.787500", "111720.277500", "111721.767500", "111723.257500", "111724.747500", "111726.237500", "111727.727500", "111729.217500", "111730.707500", "111732.197500", "111733.687500", "111735.177500", "111736.667500", "111738.157500", "111739.647500", "111741.137500", "111742.627500", "111744.117500", "111745.607500", "111747.097500", "111748.587500", "111750.077500", "111751.567500", "111753.057500", "111754.547500", "111756.037500", "111757.527500", "111759.017500", "111800.507500", "111801.997500", "111803.487500", "111804.977500", "111806.467500", "111807.957500", "111809.447500", "111810.937500", "111812.427500", "111813.917500", "111815.407500", "111816.897500", "111818.387500", "111819.877500", "111821.367500", "111822.857500", "111824.347500", "111825.837500", "111827.327500", "111828.817500", "111830.307500", "111831.797500", "111833.287500", "111834.777500", "111836.267500", "111837.757500", "111839.247500", "111840.737500", "111842.227500", "111843.717500", "111845.207500", "111846.697500", "111848.187500", "111849.677500", "111851.167500", "111852.657500", "111854.147500", "111855.637500", "111857.127500", "111858.617500", "111900.107500", "111901.597500", "111903.087500", "111904.577500", "111906.067500", "111907.557500", "111909.047500", "111910.537500", "111912.027500", "111913.517500", "111915.007500", "111916.497500", "111917.987500", "111919.477500", "111920.967500", "111922.457500", "111923.947500", "111925.437500", "111926.927500", "111928.417500", "111929.907500", "111931.397500", "111932.887500", "111934.377500", "111935.867500", "111937.357500", "111938.847500", "111940.337500", "111941.827500", "111943.317500", "111944.807500", "111946.297500", "111947.787500", "111949.277500", "111950.767500", "111952.257500", "111953.747500", "111955.237500", "111956.727500", "111958.217500", "111959.707500", "112001.197500", "112002.687500", "112004.177500", "112005.667500", "112007.157500", "112008.647500", "112010.137500", "112011.627500", "112013.117500", "112014.607500", "112016.097500", "112017.587500", "112019.077500", "112020.567500", "112022.057500", "112023.547500", "112025.037500", "112026.527500", "112028.017500", "112029.507500", "112030.997500", "112032.487500", "112033.977500", "112035.467500", "112036.957500", "112038.447500", "112039.937500", "112041.427500", "112042.917500", "112044.407500", "112045.897500", "112047.387500", "112048.877500", "112050.367500", "112051.857500", "112053.347500", "112054.837500", "112056.327500", "112057.817500", "112059.307500", "112100.797500", "112102.287500", "112103.777500", "112105.267500", "112106.757500", "112108.247500", "112109.737500", "112111.227500", "112112.717500", "112114.207500", "112115.697500", "112117.187500", "112118.677500", "112120.167500", "112121.657500", "112123.147500", "112124.637500", "112126.127500", "112127.617500", "112129.107500", "112130.597500", "112132.087500"],
      "ContentTime": ["111134.063000", "111134.066000", "111134.069000", "111134.079000", "111134.087000", "111134.090000", "111134.093000", "111134.096000", "111134.104000", "111134.107000", "111134.110000", "111134.113000", "111134.116000", "111134.119000", "111134.122000", "111134.125000", "111134.128000", "111134.131000", "111134.134000", "111134.137000", "111134.140000", "111134.146000", "111134.149000", "111134.152000", "111134.155000", "111134.158000", "111134.161000", "111134.164000", "111134.167000", "111134.170000", "111134.173000", "111134.176000", "111134.179000", "111134.182000", "111154.031000", "111154.034000", "111154.037000", "111154.040000", "111154.043000", "111154.046000", "111154.049000", "111154.052000", "111154.054000", "111154.057000", "111154.060000", "111154.063000", "111154.066000", "111154.069000", "111154.072000", "111154.075000", "111154.078000", "111154.095000", "111154.098000", "111154.101000", "111214.032000", "111214.035000", "111214.092000", "111214.095000", "111214.098000", "111214.101000", "111214.104000", "111214.107000", "111214.110000", "111214.112000", "111214.115000", "111214.118000", "111214.121000", "111214.124000", "111214.127000", "111214.130000", "111214.133000", "111214.136000", "111214.139000", "111214.142000", "111234.032000", "111234.035000", "111234.038000", "111234.041000", "111234.044000", "111234.046000", "111234.049000", "111234.052000", "111234.055000", "111234.058000", "111234.061000", "111234.064000", "111234.072000", "111234.079000", "111234.082000", "111234.085000", "111234.088000", "111234.091000", "111234.094000", "111234.097000", "111314.032000", "111314.035000", "111314.038000", "111314.041000", "111314.044000", "111314.047000", "111314.050000", "111314.053000", "111314.055000", "111314.063000", "111314.066000", "111314.069000", "111314.072000", "111314.074000", "111314.077000", "111314.080000", "111314.083000", "111314.086000", "111314.089000", "111314.092000", "111314.095000", "111314.098000", "111314.101000", "111314.104000", "111314.107000", "111314.110000", "111314.113000", "111314.116000", "111314.119000", "111314.122000", "111314.125000", "111314.128000", "111354.032000", "111354.035000", "111354.038000", "111354.041000", "111354.044000", "111354.053000", "111354.055000", "111354.059000", "111354.061000", "111354.065000", "111354.067000", "111354.071000", "111354.073000", "111354.076000", "111354.079000", "111354.084000", "111354.087000", "111354.089000", "111354.092000", "111354.095000", "111354.098000", "111354.101000", "111354.104000", "111354.107000", "111354.110000", "111354.113000", "111354.116000", "111434.032000", "111434.035000", "111434.038000", "111434.041000", "111434.044000", "111434.047000", "111434.050000", "111434.053000", "111434.056000", "111434.058000", "111434.061000", "111434.064000", "111434.067000", "111434.079000", "111434.082000", "111434.088000", "111434.091000", "111434.094000", "111434.097000", "111434.100000", "111434.103000", "111434.106000", "111434.108000", "111434.111000", "111434.114000", "111434.117000", "111434.120000", "111514.032000", "111514.035000", "111514.038000", "111514.041000", "111514.044000", "111514.047000", "111514.050000", "111514.053000", "111514.056000", "111514.059000", "111514.061000", "111514.064000", "111514.068000", "111514.071000", "111514.074000", "111514.077000", "111514.080000", "111514.083000", "111514.086000", "111514.088000", "111514.091000", "111514.094000", "111514.097000", "111514.100000", "111514.103000", "111514.106000", "111514.109000", "111554.032000", "111554.035000", "111554.038000", "111554.041000", "111554.044000", "111554.047000", "111554.050000", "111554.053000", "111554.056000", "111554.059000", "111554.062000", "111554.065000", "111554.068000", "111554.071000", "111554.074000", "111554.077000", "111554.080000", "111554.082000", "111554.085000", "111554.088000", "111554.091000", "111554.094000", "111554.097000", "111554.100000", "111554.103000", "111554.106000", "111634.031000", "111634.034000", "111634.037000", "111634.040000", "111634.043000", "111634.046000", "111634.049000", "111634.052000", "111634.055000", "111634.058000", "111634.061000", "111634.064000", "111634.066000", "111634.069000", "111634.089000", "111634.092000", "111634.095000", "111634.098000", "111634.100000", "111634.103000", "111634.106000", "111634.109000", "111634.112000", "111634.115000", "111634.118000", "111634.122000", "111634.125000", "111714.032000", "111714.035000", "111714.038000", "111714.041000", "111714.044000", "111714.047000", "111714.050000", "111714.053000", "111714.056000", "111714.059000", "111714.062000", "111714.065000", "111714.068000", "111714.070000", "111714.074000", "111714.085000", "111714.088000", "111714.091000", "111714.094000", "111714.097000", "111714.100000", "111714.103000", "111714.106000", "111714.109000", "111714.112000", "111714.115000", "111714.117000", "111754.032000", "111754.035000", "111754.038000", "111754.041000", "111754.044000", "111754.053000", "111754.056000", "111754.059000", "111754.062000", "111754.065000", "111754.068000", "111754.071000", "111754.074000", "111754.077000", "111754.080000", "111754.083000", "111754.086000", "111754.089000", "111754.092000", "111754.095000", "111754.098000", "111754.101000", "111754.104000", "111754.107000", "111754.110000", "111754.113000", "111754.116000", "111834.032000", "111834.035000", "111834.038000", "111834.041000", "111834.044000", "111834.047000", "111834.051000", "111834.054000", "111834.057000", "111834.060000", "111834.063000", "111834.066000", "111834.069000", "111834.072000", "111834.075000", "111834.078000", "111834.084000", "111834.087000", "111834.090000", "111834.093000", "111834.096000", "111834.099000", "111834.102000", "111834.105000", "111834.108000", "111834.111000", "111834.113000", "111914.032000", "111914.035000", "111914.038000", "111914.041000", "111914.044000", "111914.047000", "111914.050000", "111914.053000", "111914.056000", "111914.059000", "111914.068000", "111914.071000", "111914.074000", "111914.077000", "111914.080000", "111914.083000", "111914.086000", "111914.089000", "111914.092000", "111914.095000", "111914.098000", "111914.100000", "111914.104000", "111914.107000", "111914.110000", "111914.112000", "111914.115000", "111954.032000", "111954.035000", "111954.038000", "111954.041000", "111954.044000", "111954.047000", "111954.050000", "111954.053000", "111954.056000", "111954.059000", "111954.062000", "111954.065000", "111954.067000", "111954.070000", "111954.073000", "111954.076000", "111954.079000", "111954.082000", "111954.085000", "111954.088000", "111954.091000", "111954.094000", "111954.097000", "111954.100000", "111954.103000", "111954.106000", "111954.109000", "112034.032000", "112034.035000", "112034.038000", "112034.041000", "112034.044000", "112034.047000", "112034.050000", "112034.053000", "112034.056000", "112034.063000", "112034.066000", "112034.069000", "112034.072000", "112034.075000", "112034.078000", "112034.082000", "112034.085000", "112034.088000", "112034.091000", "112034.094000", "112034.097000", "112034.100000", "112034.102000", "112034.111000", "112034.114000", "112034.117000", "112114.031000", "112114.034000", "112114.037000", "112114.040000", "112114.043000", "112114.046000", "112114.049000", "112114.052000", "112114.055000", "112114.058000", "112114.078000", "112114.081000", "112114.084000", "112114.087000", "112114.090000", "112114.093000", "112114.096000", "112114.099000", "112114.102000", "112114.105000", "112114.108000", "112114.111000", "112114.113000", "112114.116000", "112114.119000", "112114.122000", "112114.125000", "112133.789000", "112133.892000", "112133.898000", "112133.901000", "112133.904000", "112133.907000", "112133.910000", "112133.913000", "112133.916000", "112133.919000", "112133.922000", "112133.925000", "112133.928000", "112133.931000"],
