{
  "AcquisitionMatrixPE": 104,
  "AcquisitionNumber": 1,
  "AcquisitionTime": "16:35:48.837500",
  "BandwidthPerPixelPhaseEncode": 17.17,
  "BaseResolution": 104,
  "BodyPartExamined": "BRAIN",
  "CoilString": "HC1-7;NC1_2",
  "ConsistencyInfo": "N4_VE11C_LATEST_20160120",
  "ConversionSoftware": "dcm2niix",
  "ConversionSoftwareVersion": "v1.0.20190902",
  "DerivedVendorReportedEchoSpacing": 0.000560011,
  "DeviceSerialNumber": "167006",
  "DwellTime": 2.1e-06,
  "EchoTime": 0.037,
  "EchoTrainLength": 104,
  "EffectiveEchoSpacing": 0.000560011,
  "FlipAngle": 52,
  "ImageComments": "Unaliased_MB4_PE3_LB",
  "ImageOrientationPatientDICOM": [0.999709, 0.0159869, 0.0180393, -0.0115163, 0.974247, -0.22519],
  "ImageType": [
    "ORIGINAL",
    "PRIMARY",
    "M",
    "MB",
    "ND",
    "MOSAIC"
],
  "ImagingFrequency": 123.259,
  "InPlanePhaseEncodingDirectionDICOM": "COL",
  "InstitutionAddress": "Chemin_Queen-Mary_4565_Montreal_District_CA_H3W_1W5",
  "InstitutionName": "IUGM",
  "InstitutionalDepartmentName": "Department",
  "MRAcquisitionType": "2D",
  "MagneticFieldStrength": 3,
  "Manufacturer": "Siemens",
  "ManufacturersModelName": "Prisma_fit",
  "Modality": "MR",
  "MultibandAccelerationFactor": 4,
  "PartialFourier": 1,
  "PatientPosition": "HFS",
  "PercentPhaseFOV": 100,
  "PhaseEncodingDirection": "j",
  "PhaseEncodingSteps": 104,
  "PhaseResolution": 1,
  "PixelBandwidth": 2290,
  "ProcedureStepDescription": "video_friends",
  "ProtocolName": "func_task-friends-s05e22b",
  "PulseSequenceDetails": "%CustomerSeq%_cmrr_mbep2d_bold",
  "ReceiveCoilActiveElements": "HC1-7;NC1,2",
  "ReceiveCoilName": "HeadNeck_64",
  "ReconMatrixPE": 104,
  "RepetitionTime": 1.49,
  "SAR": 0.0315956,
  "ScanOptions": "FS",
  "ScanningSequence": "EP",
  "SequenceName": "epfid2d1_104",
  "SequenceVariant": "SK_SS",
  "SeriesDescription": "func_task-friends-s05e22b",
  "SeriesNumber": 15,
  "ShimSetting": [651, -7234, -8739, 714, 65, -28, 135, -8],
  "SliceThickness": 2,
  "SliceTiming": [0, 0.7825, 0.0975, 0.88, 0.195, 0.98, 0.2925, 1.0775, 0.39, 1.175, 0.49, 1.2725, 0.5875, 1.37, 0.685, 0, 0.7825, 0.0975, 0.88, 0.195, 0.98, 0.2925, 1.0775, 0.39, 1.175, 0.49, 1.2725, 0.5875, 1.37, 0.685, 0, 0.7825, 0.0975, 0.88, 0.195, 0.98, 0.2925, 1.0775, 0.39, 1.175, 0.49, 1.2725, 0.5875, 1.37, 0.685, 0, 0.7825, 0.0975, 0.88, 0.195, 0.98, 0.2925, 1.0775, 0.39, 1.175, 0.49, 1.2725, 0.5875, 1.37, 0.685],
  "SoftwareVersions": "syngo_MR_E11",
  "SpacingBetweenSlices": 2,
  "StationName": "MRC35049",
  "TaskName": "s05e22b",
  "TotalReadoutTime": 0.0576811,
  "TxRefAmp": 207.448,
  "WipMemBlock": "e3fe146d-c855-452a-9243-85e8a2766967||Sequence: R016 ve11c/master r/e634e98; Dec 19 2017 11:00:25 by eja",
  "dcmmeta_affine": [
    [-1.9994189739227295, -0.023032592609524727, 0.042349692434072495, 105.3096923828125],
    [-0.03197386860847473, 1.9484937191009521, -0.4498331844806671, -76.64045715332031],
    [0.036078643053770065, 0.45037955045700073, 1.9482958316802979, -41.520172119140625],
    [0.0, 0.0, 0.0, 1.0]
],
  "dcmmeta_reorient_transform": [
    [0.0, -1.0, 0.0, 103.0],
    [1.0, 0.0, 0.0, 0.0],
    [0.0, 0.0, 1.0, 0.0],
    [0.0, 0.0, 0.0, 1.0]
],
  "dcmmeta_shape": [104, 104, 60, 484],
  "dcmmeta_slice_dim": 2,
  "dcmmeta_version": 0.6,
  "global": {
    "const": {
      "AcquisitionMatrix": [104, 0, 0, 104],
      "AngioFlag": "N",
      "BitsAllocated": 16,
      "BitsStored": 16,
      "BodyPartExamined": "BRAIN",
      "Columns": 832,
      "EchoNumbers": 1,
      "EchoTime": 37.0,
      "EchoTrainLength": 104,
      "FlipAngle": 52.0,
      "HighBit": 15,
      "ImageOrientationPatient": [0.99970945819189, 0.01598693499679, 0.01803932124775, -0.0115162965181, 0.97424685851969, -0.2251897723677],
      "ImagePositionPatient": [-822.34196048609, -844.94459600918, 155.67444884562],
      "ImageType": [
        "ORIGINAL",
        "PRIMARY",
        "M",
        "MB",
        "ND",
        "MOSAIC"
],
      "ImagedNucleus": "1H",
      "ImagingFrequency": 123.258969,
      "InPlanePhaseEncodingDirection": "COL",
      "MRAcquisitionType": "2D",
      "MagneticFieldStrength": 3.0,
      "Manufacturer": "SIEMENS",
      "ManufacturerModelName": "Prisma_fit",
      "Modality": "MR",
      "NumberOfAverages": 1.0,
      "NumberOfPhaseEncodingSteps": 104,
      "PercentPhaseFieldOfView": 100.0,
      "PercentSampling": 100.0,
      "PerformedProcedureStepStartTime": "154509.859000",
      "PhotometricInterpretation": "MONOCHROME2",
      "PixelBandwidth": 2290.0,
      "PixelRepresentation": 0,
      "PixelSpacing": [2.0, 2.0],
      "ProtocolName": "func_task-friends-s05e22b",
      "RepetitionTime": 1490.0,
      "Rows": 832,
      "SAR": 0.03159557241117,
      "SamplesPerPixel": 1,
      "ScanOptions": "FS",
      "ScanningSequence": "EP",
      "SequenceName": "epfid2d1_104",
      "SequenceVariant": [
        "SK",
        "SS"
],
      "SeriesDescription": "func_task-friends-s05e22b",
      "SeriesNumber": 15,
      "SeriesTime": "163647.549000",
      "SliceLocation": -20.97916149614,
      "SliceThickness": 2.0,
      "SmallestImagePixelValue": 0,
      "SoftwareVersions": "syngo MR E11",
      "SpacingBetweenSlices": 2.0000000027986,
      "SpecificCharacterSet": "ISO_IR 100",
      "StudyID": "1",
      "StudyTime": "154509.795000",
      "TransmitCoilName": "Body",
      "VariableFlipAngleFlag": "N",
      "WindowCenterWidthExplanation": "Algo1",
      "dBdt": 0.0},
    "slices": {}
  },
  "time": {
    "samples": {
      "AcquisitionNumber": [1, 2, 3, 4, 5, 6, 7, 8, 9, 10, 11, 12, 13, 14, 15, 16, 17, 18, 19, 20, 21, 22, 23, 24, 25, 26, 27, 28, 29, 30, 31, 32, 33, 34, 35, 36, 37, 38, 39, 40, 41, 42, 43, 44, 45, 46, 47, 48, 49, 50, 51, 52, 53, 54, 55, 56, 57, 58, 59, 60, 61, 62, 63, 64, 65, 66, 67, 68, 69, 70, 71, 72, 73, 74, 75, 76, 77, 78, 79, 80, 81, 82, 83, 84, 85, 86, 87, 88, 89, 90, 91, 92, 93, 94, 95, 96, 97, 98, 99, 100, 101, 102, 103, 104, 105, 106, 107, 108, 109, 110, 111, 112, 113, 114, 115, 116, 117, 118, 119, 120, 121, 122, 123, 124, 125, 126, 127, 128, 129, 130, 131, 132, 133, 134, 135, 136, 137, 138, 139, 140, 141, 142, 143, 144, 145, 146, 147, 148, 149, 150, 151, 152, 153, 154, 155, 156, 157, 158, 159, 160, 161, 162, 163, 164, 165, 166, 167, 168, 169, 170, 171, 172, 173, 174, 175, 176, 177, 178, 179, 180, 181, 182, 183, 184, 185, 186, 187, 188, 189, 190, 191, 192, 193, 194, 195, 196, 197, 198, 199, 200, 201, 202, 203, 204, 205, 206, 207, 208, 209, 210, 211, 212, 213, 214, 215, 216, 217, 218, 219, 220, 221, 222, 223, 224, 225, 226, 227, 228, 229, 230, 231, 232, 233, 234, 235, 236, 237, 238, 239, 240, 241, 242, 243, 244, 245, 246, 247, 248, 249, 250, 251, 252, 253, 254, 255, 256, 257, 258, 259, 260, 261, 262, 263, 264, 265, 266, 267, 268, 269, 270, 271, 272, 273, 274, 275, 276, 277, 278, 279, 280, 281, 282, 283, 284, 285, 286, 287, 288, 289, 290, 291, 292, 293, 294, 295, 296, 297, 298, 299, 300, 301, 302, 303, 304, 305, 306, 307, 308, 309, 310, 311, 312, 313, 314, 315, 316, 317, 318, 319, 320, 321, 322, 323, 324, 325, 326, 327, 328, 329, 330, 331, 332, 333, 334, 335, 336, 337, 338, 339, 340, 341, 342, 343, 344, 345, 346, 347, 348, 349, 350, 351, 352, 353, 354, 355, 356, 357, 358, 359, 360, 361, 362, 363, 364, 365, 366, 367, 368, 369, 370, 371, 372, 373, 374, 375, 376, 377, 378, 379, 380, 381, 382, 383, 384, 385, 386, 387, 388, 389, 390, 391, 392, 393, 394, 395, 396, 397, 398, 399, 400, 401, 402, 403, 404, 405, 406, 407, 408, 409, 410, 411, 412, 413, 414, 415, 416, 417, 418, 419, 420, 421, 422, 423, 424, 425, 426, 427, 428, 429, 430, 431, 432, 433, 434, 435, 436, 437, 438, 439, 440, 441, 442, 443, 444, 445, 446, 447, 448, 449, 450, 451, 452, 453, 454, 455, 456, 457, 458, 459, 460, 461, 462, 463, 464, 465, 466, 467, 468, 469, 470, 471, 472, 473, 474, 475, 476, 477, 478, 479, 480, 481, 482, 483, 484],
      "AcquisitionTime": ["163548.837500", "163550.327500", "163551.817500", "163553.307500", "163554.797500", "163556.287500", "163557.777500", "163559.267500", "163600.757500", "163602.247500", "163603.737500", "163605.227500", "163606.717500", "163608.207500", "163609.697500", "163611.187500", "163612.677500", "163614.167500", "163615.657500", "163617.147500", "163618.637500", "163620.127500", "163621.617500", "163623.107500", "163624.597500", "163626.087500", "163627.577500", "163629.067500", "163630.557500", "163632.047500", "163633.537500", "163635.027500", "163636.517500", "163638.007500", "163639.497500", "163640.987500", "163642.477500", "163643.967500", "163645.457500", "163646.947500", "163648.437500", "163649.927500", "163651.417500", "163652.907500", "163654.397500", "163655.887500", "163657.377500", "163658.867500", "163700.357500", "163701.847500", "163703.337500", "163704.827500", "163706.317500", "163707.807500", "163709.297500", "163710.787500", "163712.277500", "163713.767500", "163715.257500", "163716.747500", "163718.237500", "163719.727500", "163721.217500", "163722.707500", "163724.197500", "163725.687500", "163727.177500", "163728.667500", "163730.157500", "163731.647500", "163733.137500", "163734.627500", "163736.117500", "163737.607500", "163739.097500", "163740.587500", "163742.077500", "163743.567500", "163745.057500", "163746.547500", "163748.037500", "163749.527500", "163751.017500", "163752.507500", "163753.997500", "163755.487500", "163756.977500", "163758.467500", "163759.957500", "163801.447500", "163802.937500", "163804.427500", "163805.917500", "163807.407500", "163808.897500", "163810.387500", "163811.877500", "163813.367500", "163814.857500", "163816.347500", "163817.837500", "163819.327500", "163820.817500", "163822.307500", "163823.797500", "163825.287500", "163826.777500", "163828.267500", "163829.757500", "163831.247500", "163832.737500", "163834.227500", "163835.717500", "163837.207500", "163838.697500", "163840.187500", "163841.677500", "163843.167500", "163844.657500", "163846.147500", "163847.637500", "163849.127500", "163850.617500", "163852.107500", "163853.597500", "163855.087500", "163856.577500", "163858.067500", "163859.557500", "163901.047500", "163902.537500", "163904.027500", "163905.517500", "163907.007500", "163908.497500", "163909.987500", "163911.477500", "163912.967500", "163914.457500", "163915.947500", "163917.437500", "163918.927500", "163920.417500", "163921.907500", "163923.397500", "163924.887500", "163926.377500", "163927.867500", "163929.357500", "163930.847500", "163932.337500", "163933.827500", "163935.317500", "163936.807500", "163938.297500", "163939.787500", "163941.277500", "163942.767500", "163944.257500", "163945.747500", "163947.237500", "163948.727500", "163950.217500", "163951.707500", "163953.197500", "163954.687500", "163956.177500", "163957.667500", "163959.157500", "164000.647500", "164002.137500", "164003.627500", "164005.117500", "164006.607500", "164008.097500", "164009.587500", "164011.077500", "164012.567500", "164014.057500", "164015.547500", "164017.037500", "164018.527500", "164020.017500", "164021.507500", "164022.997500", "164024.487500", "164025.977500", "164027.467500", "164028.957500", "164030.447500", "164031.937500", "164033.427500", "164034.917500", "164036.407500", "164037.897500", "164039.387500", "164040.877500", "164042.367500", "164043.857500", "164045.347500", "164046.837500", "164048.327500", "164049.817500", "164051.307500", "164052.797500", "164054.287500", "164055.777500", "164057.267500", "164058.757500", "164100.247500", "164101.737500", "164103.227500", "164104.717500", "164106.207500", "164107.697500", "164109.187500", "164110.677500", "164112.167500", "164113.657500", "164115.147500", "164116.637500", "164118.127500", "164119.617500", "164121.107500", "164122.597500", "164124.087500", "164125.577500", "164127.067500", "164128.557500", "164130.047500", "164131.537500", "164133.027500", "164134.517500", "164136.007500", "164137.497500", "164138.987500", "164140.477500", "164141.967500", "164143.457500", "164144.947500", "164146.437500", "164147.927500", "164149.417500", "164150.907500", "164152.397500", "164153.887500", "164155.377500", "164156.867500", "164158.357500", "164159.847500", "164201.337500", "164202.827500", "164204.317500", "164205.807500", "164207.297500", "164208.787500", "164210.277500", "164211.767500", "164213.257500", "164214.747500", "164216.237500", "164217.727500", "164219.217500", "164220.707500", "164222.197500", "164223.687500", "164225.177500", "164226.667500", "164228.157500", "164229.647500", "164231.137500", "164232.627500", "164234.117500", "164235.607500", "164237.097500", "164238.587500", "164240.077500", "164241.567500", "164243.057500", "164244.547500", "164246.037500", "164247.527500", "164249.017500", "164250.507500", "164251.997500", "164253.487500", "164254.977500", "164256.467500", "164257.957500", "164259.447500", "164300.937500", "164302.427500", "164303.917500", "164305.407500", "164306.897500", "164308.387500", "164309.877500", "164311.367500", "164312.857500", "164314.347500", "164315.837500", "164317.327500", "164318.817500", "164320.307500", "164321.797500", "164323.287500", "164324.777500", "164326.267500", "164327.757500", "164329.247500", "164330.737500", "164332.227500", "164333.717500", "164335.207500", "164336.697500", "164338.187500", "164339.677500", "164341.167500", "164342.657500", "164344.147500", "164345.637500", "164347.127500", "164348.617500", "164350.107500", "164351.597500", "164353.087500", "164354.577500", "164356.067500", "164357.557500", "164359.047500", "164400.537500", "164402.027500", "164403.517500", "164405.007500", "164406.497500", "164407.987500", "164409.477500", "164410.967500", "164412.457500", "164413.947500", "164415.437500", "164416.927500", "164418.417500", "164419.907500", "164421.397500", "164422.887500", "164424.377500", "164425.867500", "164427.357500", "164428.847500", "164430.337500", "164431.827500", "164433.317500", "164434.807500", "164436.297500", "164437.787500", "164439.277500", "164440.767500", "164442.257500", "164443.747500", "164445.237500", "164446.727500", "164448.217500", "164449.707500", "164451.197500", "164452.687500", "164454.177500", "164455.667500", "164457.157500", "164458.647500", "164500.137500", "164501.627500", "164503.117500", "164504.607500", "164506.097500", "164507.587500", "164509.077500", "164510.567500", "164512.057500", "164513.547500", "164515.037500", "164516.527500", "164518.017500", "164519.507500", "164520.997500", "164522.487500", "164523.977500", "164525.467500", "164526.957500", "164528.447500", "164529.937500", "164531.427500", "164532.917500", "164534.407500", "164535.897500", "164537.387500", "164538.877500", "164540.367500", "164541.857500", "164543.347500", "164544.837500", "164546.327500", "164547.817500", "164549.307500", "164550.797500", "164552.287500", "164553.777500", "164555.267500", "164556.757500", "164558.247500", "164559.737500", "164601.227500", "164602.717500", "164604.207500", "164605.697500", "164607.187500", "164608.677500", "164610.167500", "164611.657500", "164613.147500", "164614.637500", "164616.127500", "164617.617500", "164619.107500", "164620.597500", "164622.087500", "164623.577500", "164625.067500", "164626.557500", "164628.047500", "164629.537500", "164631.027500", "164632.517500", "164634.007500", "164635.497500", "164636.987500", "164638.477500", "164639.967500", "164641.457500", "164642.947500", "164644.437500", "164645.927500", "164647.417500", "164648.907500", "164650.397500", "164651.887500", "164653.377500", "164654.867500", "164656.357500", "164657.847500", "164659.337500", "164700.827500", "164702.317500", "164703.807500", "164705.297500", "164706.787500", "164708.277500", "164709.767500", "164711.257500", "164712.747500", "164714.237500", "164715.727500", "164717.217500", "164718.707500", "164720.197500", "164721.687500", "164723.177500", "164724.667500", "164726.157500", "164727.647500", "164729.137500", "164730.627500", "164732.117500", "164733.607500", "164735.097500", "164736.587500", "164738.077500", "164739.567500", "164741.057500", "164742.547500", "164744.037500", "164745.527500", "164747.017500", "164748.507500"],
      "ContentTime": ["163647.552000", "163647.555000", "163647.558000", "163647.561000", "163647.564000", "163707.503000", "163707.506000", "163707.509000", "163707.511000", "163707.514000", "163707.517000", "163707.520000", "163707.523000", "163707.533000", "163707.536000", "163707.538000", "163707.541000", "163707.544000", "163707.547000", "163707.550000", "163707.560000", "163707.563000", "163707.566000", "163707.568000", "163707.571000", "163727.504000", "163727.507000", "163727.509000", "163727.523000", "163727.526000", "163727.529000", "163727.532000", "163727.534000", "163727.537000", "163727.540000", "163727.543000", "163727.546000", "163727.549000", "163727.552000", "163727.554000", "163727.557000", "163727.560000", "163727.563000", "163727.566000", "163727.569000", "163727.571000", "163747.504000", "163747.507000", "163747.509000", "163747.512000", "163747.515000", "163747.518000", "163747.521000", "163747.523000", "163747.526000", "163747.529000", "163747.532000", "163747.535000", "163747.537000", "163747.540000", "163747.550000", "163747.553000", "163747.556000", "163747.558000", "163747.573000", "163747.576000", "163807.504000", "163807.507000", "163807.509000", "163807.512000", "163807.515000", "163807.518000", "163807.521000", "163807.524000", "163807.526000", "163807.529000", "163807.532000", "163807.535000", "163807.538000", "163807.540000", "163807.543000", "163807.546000", "163807.549000", "163807.552000", "163807.554000", "163807.557000", "163847.503000", "163847.506000", "163847.509000", "163847.511000", "163847.514000", "163847.517000", "163847.520000", "163847.523000", "163847.525000", "163847.528000", "163847.531000", "163847.534000", "163847.537000", "163847.539000", "163847.542000", "163847.545000", "163847.548000", "163847.551000", "163847.553000", "163847.556000", "163847.559000", "163847.562000", "163847.565000", "163847.568000", "163847.570000", "163847.573000", "163847.576000", "163847.579000", "163847.582000", "163847.585000", "163847.588000", "163847.590000", "163847.593000", "163927.503000", "163927.506000", "163927.509000", "163927.512000", "163927.520000", "163927.523000", "163927.526000", "163927.529000", "163927.531000", "163927.534000", "163927.537000", "163927.540000", "163927.543000", "163927.546000", "163927.549000", "163927.551000", "163927.554000", "163927.557000", "163927.560000", "163927.563000", "163927.565000", "163927.568000", "163927.571000", "163927.574000", "163927.577000", "163927.580000", "163927.583000", "164007.504000", "164007.507000", "164007.510000", "164007.513000", "164007.515000", "164007.518000", "164007.521000", "164007.524000", "164007.527000", "164007.530000", "164007.533000", "164007.535000", "164007.572000", "164007.575000", "164007.578000", "164007.581000", "164007.583000", "164007.586000", "164007.589000", "164007.592000", "164007.595000", "164007.597000", "164007.600000", "164007.603000", "164007.606000", "164007.609000", "164007.612000", "164047.504000", "164047.507000", "164047.510000", "164047.513000", "164047.515000", "164047.518000", "164047.521000", "164047.524000", "164047.527000", "164047.530000", "164047.532000", "164047.535000", "164047.538000", "164047.541000", "164047.544000", "164047.547000", "164047.549000", "164047.552000", "164047.555000", "164047.558000", "164047.561000", "164047.564000", "164047.567000", "164047.570000", "164047.572000", "164047.575000", "164127.503000", "164127.506000", "164127.509000", "164127.512000", "164127.514000", "164127.517000", "164127.520000", "164127.523000", "164127.526000", "164127.529000", "164127.532000", "164127.534000", "164127.537000", "164127.540000", "164127.543000", "164127.546000", "164127.548000", "164127.551000", "164127.554000", "164127.557000", "164127.560000", "164127.562000", "164127.565000", "164127.568000", "164127.578000", "164127.581000", "164127.584000", "164207.504000", "164207.507000", "164207.510000", "164207.513000", "164207.515000", "164207.518000", "164207.521000", "164207.524000", "164207.527000", "164207.530000", "164207.533000", "164207.535000", "164207.538000", "164207.541000", "164207.544000", "164207.547000", "164207.550000", "164207.552000", "164207.555000", "164207.558000", "164207.561000", "164207.564000", "164207.567000", "164207.569000", "164207.572000", "164207.575000", "164207.578000", "164247.504000", "164247.507000", "164247.510000", "164247.513000", "164247.515000", "164247.518000", "164247.521000", "164247.535000", "164247.537000", "164247.540000", "164247.543000", "164247.546000", "164247.549000", "164247.559000", "164247.562000", "164247.565000", "164247.568000", "164247.571000", "164247.574000", "164247.576000", "164247.579000", "164247.582000", "164247.585000", "164247.588000", "164247.591000", "164247.593000", "164247.596000", "164327.503000", "164327.506000", "164327.509000", "164327.511000", "164327.514000", "164327.517000", "164327.520000", "164327.523000", "164327.526000", "164327.529000", "164327.540000", "164327.543000", "164327.546000", "164327.548000", "164327.552000", "164327.554000", "164327.557000", "164327.560000", "164327.563000", "164327.566000", "164327.569000", "164327.572000", "164327.575000", "164327.578000", "164327.581000", "164327.583000", "164327.586000", "164407.503000", "164407.506000", "164407.509000", "164407.512000", "164407.514000", "164407.517000", "164407.520000", "164407.523000", "164407.526000", "164407.529000", "164407.531000", "164407.534000", "164407.537000", "164407.540000", "164407.550000", "164407.552000", "164407.555000", "164407.558000", "164407.561000", "164407.564000", "164407.567000", "164407.570000", "164407.573000", "164407.575000", "164407.578000", "164407.581000", "164407.584000", "164447.504000", "164447.507000", "164447.510000", "164447.513000", "164447.516000", "164447.519000", "164447.522000", "164447.525000", "164447.527000", "164447.530000", "164447.533000", "164447.536000", "164447.539000", "164447.542000", "164447.545000", "164447.547000", "164447.550000", "164447.553000", "164447.556000", "164447.559000", "164447.562000", "164447.565000", "164447.568000", "164447.571000", "164447.573000", "164447.576000", "164447.579000", "164527.503000", "164527.506000", "164527.509000", "164527.511000", "164527.514000", "164527.517000", "164527.520000", "164527.523000", "164527.526000", "164527.528000", "164527.531000", "164527.534000", "164527.537000", "164527.540000", "164527.543000", "164527.545000", "164527.548000", "164527.551000", "164527.554000", "164527.557000", "164527.560000", "164527.563000", "164527.566000", "164527.569000", "164527.572000", "164527.575000", "164607.503000", "164607.506000", "164607.509000", "164607.512000", "164607.515000", "164607.518000", "164607.520000", "164607.523000", "164607.526000", "164607.529000", "164607.532000", "164607.535000", "164607.537000", "164607.540000", "164607.543000", "164607.546000", "164607.549000", "164607.552000", "164607.555000", "164607.557000", "164607.560000", "164607.563000", "164607.566000", "164607.569000", "164607.572000", "164607.575000", "164607.577000", "164647.504000", "164647.507000", "164647.510000", "164647.513000", "164647.515000", "164647.518000", "164647.521000", "164647.524000", "164647.527000", "164647.530000", "164647.532000", "164647.535000", "164647.538000", "164647.541000", "164647.544000", "164647.547000", "164647.549000", "164647.552000", "164647.555000", "164647.558000", "164647.561000", "164647.564000", "164647.567000", "164647.569000", "164647.572000", "164647.575000", "164647.578000", "164727.504000", "164727.507000", "164727.510000", "164727.524000", "164727.527000", "164727.530000", "164727.533000", "164727.536000", "164727.538000", "164727.541000", "164727.544000", "164727.547000", "164727.550000", "164727.553000", "164727.561000", "164727.563000", "164727.566000", "164727.569000", "164727.572000", "164727.575000", "164727.578000", "164727.581000", "164727.583000", "164727.586000", "164727.589000", "164727.592000", "164727.595000", "164750.782000", "164750.912000", "164750.915000", "164750.917000", "164750.920000", "164750.923000", "164750.926000", "164750.929000", "164750.932000", "164750.935000", "164750.937000", "164750.940000", "164750.943000", "164750.946000", "164750.949000", "164750.952000"],
