{
  "AcquisitionMatrixPE": 104,
  "AcquisitionNumber": 1,
  "AcquisitionTime": "16:23:34.177500",
  "BandwidthPerPixelPhaseEncode": 17.17,
  "BaseResolution": 104,
  "BodyPartExamined": "BRAIN",
  "CoilString": "HC1-7;NC1_2",
  "ConsistencyInfo": "N4_VE11C_LATEST_20160120",
  "ConversionSoftware": "dcm2niix",
  "ConversionSoftwareVersion": "v1.0.20190902",
  "DerivedVendorReportedEchoSpacing": 0.000560011,
  "DeviceSerialNumber": "167006",
  "DwellTime": 2.1e-06,
  "EchoTime": 0.037,
  "EchoTrainLength": 104,
  "EffectiveEchoSpacing": 0.000560011,
  "FlipAngle": 52,
  "ImageComments": "Unaliased_MB4_PE3_LB",
  "ImageOrientationPatientDICOM": [0.999709, 0.0159869, 0.0180393, -0.0115163, 0.974247, -0.22519],
  "ImageType": [
    "ORIGINAL",
    "PRIMARY",
    "M",
    "MB",
    "ND",
    "MOSAIC"
],
  "ImagingFrequency": 123.259,
  "InPlanePhaseEncodingDirectionDICOM": "COL",
  "InstitutionAddress": "Chemin_Queen-Mary_4565_Montreal_District_CA_H3W_1W5",
  "InstitutionName": "IUGM",
  "InstitutionalDepartmentName": "Department",
  "MRAcquisitionType": "2D",
  "MagneticFieldStrength": 3,
  "Manufacturer": "Siemens",
  "ManufacturersModelName": "Prisma_fit",
  "Modality": "MR",
  "MultibandAccelerationFactor": 4,
  "PartialFourier": 1,
  "PatientPosition": "HFS",
  "PercentPhaseFOV": 100,
  "PhaseEncodingDirection": "j",
  "PhaseEncodingSteps": 104,
  "PhaseResolution": 1,
  "PixelBandwidth": 2290,
  "ProcedureStepDescription": "video_friends",
  "ProtocolName": "func_task-friends-s05e22a",
  "PulseSequenceDetails": "%CustomerSeq%_cmrr_mbep2d_bold",
  "ReceiveCoilActiveElements": "HC1-7;NC1,2",
  "ReceiveCoilName": "HeadNeck_64",
  "ReconMatrixPE": 104,
  "RepetitionTime": 1.49,
  "SAR": 0.0315858,
  "ScanOptions": "FS",
  "ScanningSequence": "EP",
  "SequenceName": "epfid2d1_104",
  "SequenceVariant": "SK_SS",
  "SeriesDescription": "func_task-friends-s05e22a",
  "SeriesNumber": 13,
  "ShimSetting": [651, -7234, -8739, 714, 65, -28, 135, -8],
  "SliceThickness": 2,
  "SliceTiming": [0, 0.7825, 0.0975, 0.88, 0.195, 0.9775, 0.2925, 1.0775, 0.39, 1.175, 0.4875, 1.2725, 0.5875, 1.37, 0.685, 0, 0.7825, 0.0975, 0.88, 0.195, 0.9775, 0.2925, 1.0775, 0.39, 1.175, 0.4875, 1.2725, 0.5875, 1.37, 0.685, 0, 0.7825, 0.0975, 0.88, 0.195, 0.9775, 0.2925, 1.0775, 0.39, 1.175, 0.4875, 1.2725, 0.5875, 1.37, 0.685, 0, 0.7825, 0.0975, 0.88, 0.195, 0.9775, 0.2925, 1.0775, 0.39, 1.175, 0.4875, 1.2725, 0.5875, 1.37, 0.685],
  "SoftwareVersions": "syngo_MR_E11",
  "SpacingBetweenSlices": 2,
  "StationName": "MRC35049",
  "TaskName": "s05e22a",
  "TotalReadoutTime": 0.0576811,
  "TxRefAmp": 207.448,
  "WipMemBlock": "bf7f04ae-4513-428e-b21b-465d00ad61d1||Sequence: R016 ve11c/master r/e634e98; Dec 19 2017 11:00:25 by eja",
  "dcmmeta_affine": [
    [-1.9994189739227295, -0.023032592609524727, 0.042349692434072495, 105.3096923828125],
    [-0.03197386860847473, 1.9484937191009521, -0.4498331844806671, -76.64045715332031],
    [0.036078643053770065, 0.45037955045700073, 1.9482958316802979, -41.520172119140625],
    [0.0, 0.0, 0.0, 1.0]
],
  "dcmmeta_reorient_transform": [
    [0.0, -1.0, 0.0, 103.0],
    [1.0, 0.0, 0.0, 0.0],
    [0.0, 0.0, 1.0, 0.0],
    [0.0, 0.0, 0.0, 1.0]
],
  "dcmmeta_shape": [104, 104, 60, 450],
  "dcmmeta_slice_dim": 2,
  "dcmmeta_version": 0.6,
  "global": {
    "const": {
      "AcquisitionMatrix": [104, 0, 0, 104],
      "AngioFlag": "N",
      "BitsAllocated": 16,
      "BitsStored": 16,
      "BodyPartExamined": "BRAIN",
      "Columns": 832,
      "EchoNumbers": 1,
      "EchoTime": 37.0,
      "EchoTrainLength": 104,
      "FlipAngle": 52.0,
      "HighBit": 15,
      "ImageOrientationPatient": [0.99970945819189, 0.01598693499679, 0.01803932124775, -0.0115162965181, 0.97424685851969, -0.2251897723677],
      "ImagePositionPatient": [-822.34196048609, -844.94459600918, 155.67444884562],
      "ImageType": [
        "ORIGINAL",
        "PRIMARY",
        "M",
        "MB",
        "ND",
        "MOSAIC"
],
      "ImagedNucleus": "1H",
      "ImagingFrequency": 123.258966,
      "InPlanePhaseEncodingDirection": "COL",
      "MRAcquisitionType": "2D",
      "MagneticFieldStrength": 3.0,
      "Manufacturer": "SIEMENS",
      "ManufacturerModelName": "Prisma_fit",
      "Modality": "MR",
      "NumberOfAverages": 1.0,
      "NumberOfPhaseEncodingSteps": 104,
      "PercentPhaseFieldOfView": 100.0,
      "PercentSampling": 100.0,
      "PerformedProcedureStepStartTime": "154509.859000",
      "PhotometricInterpretation": "MONOCHROME2",
      "PixelBandwidth": 2290.0,
      "PixelRepresentation": 0,
      "PixelSpacing": [2.0, 2.0],
      "ProtocolName": "func_task-friends-s05e22a",
      "RepetitionTime": 1490.0,
      "Rows": 832,
      "SAR": 0.03158583183024,
      "SamplesPerPixel": 1,
      "ScanOptions": "FS",
      "ScanningSequence": "EP",
      "SequenceName": "epfid2d1_104",
      "SequenceVariant": [
        "SK",
        "SS"
],
      "SeriesDescription": "func_task-friends-s05e22a",
      "SeriesNumber": 13,
      "SeriesTime": "162458.362000",
      "SliceLocation": -20.97916149614,
      "SliceThickness": 2.0,
      "SmallestImagePixelValue": 0,
      "SoftwareVersions": "syngo MR E11",
      "SpacingBetweenSlices": 2.0000000027986,
      "SpecificCharacterSet": "ISO_IR 100",
      "StudyID": "1",
      "StudyTime": "154509.795000",
      "TransmitCoilName": "Body",
      "VariableFlipAngleFlag": "N",
      "WindowCenterWidthExplanation": "Algo1",
      "dBdt": 0.0},
    "slices": {}
  },
  "time": {
    "samples": {
      "AcquisitionNumber": [1, 2, 3, 4, 5, 6, 7, 8, 9, 10, 11, 12, 13, 14, 15, 16, 17, 18, 19, 20, 21, 22, 23, 24, 25, 26, 27, 28, 29, 30, 31, 32, 33, 34, 35, 36, 37, 38, 39, 40, 41, 42, 43, 44, 45, 46, 47, 48, 49, 50, 51, 52, 53, 54, 55, 56, 57, 58, 59, 60, 61, 62, 63, 64, 65, 66, 67, 68, 69, 70, 71, 72, 73, 74, 75, 76, 77, 78, 79, 80, 81, 82, 83, 84, 85, 86, 87, 88, 89, 90, 91, 92, 93, 94, 95, 96, 97, 98, 99, 100, 101, 102, 103, 104, 105, 106, 107, 108, 109, 110, 111, 112, 113, 114, 115, 116, 117, 118, 119, 120, 121, 122, 123, 124, 125, 126, 127, 128, 129, 130, 131, 132, 133, 134, 135, 136, 137, 138, 139, 140, 141, 142, 143, 144, 145, 146, 147, 148, 149, 150, 151, 152, 153, 154, 155, 156, 157, 158, 159, 160, 161, 162, 163, 164, 165, 166, 167, 168, 169, 170, 171, 172, 173, 174, 175, 176, 177, 178, 179, 180, 181, 182, 183, 184, 185, 186, 187, 188, 189, 190, 191, 192, 193, 194, 195, 196, 197, 198, 199, 200, 201, 202, 203, 204, 205, 206, 207, 208, 209, 210, 211, 212, 213, 214, 215, 216, 217, 218, 219, 220, 221, 222, 223, 224, 225, 226, 227, 228, 229, 230, 231, 232, 233, 234, 235, 236, 237, 238, 239, 240, 241, 242, 243, 244, 245, 246, 247, 248, 249, 250, 251, 252, 253, 254, 255, 256, 257, 258, 259, 260, 261, 262, 263, 264, 265, 266, 267, 268, 269, 270, 271, 272, 273, 274, 275, 276, 277, 278, 279, 280, 281, 282, 283, 284, 285, 286, 287, 288, 289, 290, 291, 292, 293, 294, 295, 296, 297, 298, 299, 300, 301, 302, 303, 304, 305, 306, 307, 308, 309, 310, 311, 312, 313, 314, 315, 316, 317, 318, 319, 320, 321, 322, 323, 324, 325, 326, 327, 328, 329, 330, 331, 332, 333, 334, 335, 336, 337, 338, 339, 340, 341, 342, 343, 344, 345, 346, 347, 348, 349, 350, 351, 352, 353, 354, 355, 356, 357, 358, 359, 360, 361, 362, 363, 364, 365, 366, 367, 368, 369, 370, 371, 372, 373, 374, 375, 376, 377, 378, 379, 380, 381, 382, 383, 384, 385, 386, 387, 388, 389, 390, 391, 392, 393, 394, 395, 396, 397, 398, 399, 400, 401, 402, 403, 404, 405, 406, 407, 408, 409, 410, 411, 412, 413, 414, 415, 416, 417, 418, 419, 420, 421, 422, 423, 424, 425, 426, 427, 428, 429, 430, 431, 432, 433, 434, 435, 436, 437, 438, 439, 440, 441, 442, 443, 444, 445, 446, 447, 448, 449, 450],
      "AcquisitionTime": ["162334.177500", "162335.667500", "162337.157500", "162338.647500", "162340.137500", "162341.627500", "162343.117500", "162344.607500", "162346.097500", "162347.587500", "162349.077500", "162350.567500", "162352.057500", "162353.547500", "162355.037500", "162356.527500", "162358.017500", "162359.507500", "162400.997500", "162402.487500", "162403.977500", "162405.467500", "162406.957500", "162408.447500", "162409.937500", "162411.427500", "162412.917500", "162414.407500", "162415.897500", "162417.387500", "162418.877500", "162420.367500", "162421.857500", "162423.347500", "162424.837500", "162426.327500", "162427.817500", "162429.307500", "162430.797500", "162432.287500", "162433.777500", "162435.267500", "162436.757500", "162438.247500", "162439.737500", "162441.227500", "162442.717500", "162444.207500", "162445.697500", "162447.187500", "162448.677500", "162450.167500", "162451.657500", "162453.147500", "162454.637500", "162456.127500", "162457.617500", "162459.107500", "162500.597500", "162502.087500", "162503.577500", "162505.067500", "162506.557500", "162508.047500", "162509.537500", "162511.027500", "162512.517500", "162514.007500", "162515.497500", "162516.987500", "162518.477500", "162519.967500", "162521.457500", "162522.947500", "162524.437500", "162525.927500", "162527.417500", "162528.907500", "162530.397500", "162531.887500", "162533.377500", "162534.867500", "162536.357500", "162537.847500", "162539.337500", "162540.827500", "162542.317500", "162543.807500", "162545.297500", "162546.787500", "162548.277500", "162549.767500", "162551.257500", "162552.747500", "162554.237500", "162555.727500", "162557.217500", "162558.707500", "162600.197500", "162601.687500", "162603.177500", "162604.667500", "162606.157500", "162607.647500", "162609.137500", "162610.627500", "162612.117500", "162613.607500", "162615.097500", "162616.587500", "162618.077500", "162619.567500", "162621.057500", "162622.547500", "162624.037500", "162625.527500", "162627.017500", "162628.507500", "162629.997500", "162631.487500", "162632.977500", "162634.467500", "162635.957500", "162637.447500", "162638.937500", "162640.427500", "162641.917500", "162643.407500", "162644.897500", "162646.387500", "162647.877500", "162649.367500", "162650.857500", "162652.347500", "162653.837500", "162655.327500", "162656.817500", "162658.307500", "162659.797500", "162701.287500", "162702.777500", "162704.267500", "162705.757500", "162707.247500", "162708.737500", "162710.227500", "162711.717500", "162713.207500", "162714.697500", "162716.187500", "162717.677500", "162719.167500", "162720.657500", "162722.147500", "162723.637500", "162725.127500", "162726.617500", "162728.107500", "162729.597500", "162731.087500", "162732.577500", "162734.067500", "162735.557500", "162737.047500", "162738.537500", "162740.027500", "162741.517500", "162743.007500", "162744.497500", "162745.987500", "162747.477500", "162748.967500", "162750.457500", "162751.947500", "162753.437500", "162754.927500", "162756.417500", "162757.907500", "162759.397500", "162800.887500", "162802.377500", "162803.867500", "162805.357500", "162806.847500", "162808.337500", "162809.827500", "162811.317500", "162812.807500", "162814.297500", "162815.787500", "162817.277500", "162818.767500", "162820.257500", "162821.747500", "162823.237500", "162824.727500", "162826.217500", "162827.707500", "162829.197500", "162830.687500", "162832.177500", "162833.667500", "162835.157500", "162836.647500", "162838.137500", "162839.627500", "162841.117500", "162842.607500", "162844.097500", "162845.587500", "162847.077500", "162848.567500", "162850.057500", "162851.547500", "162853.037500", "162854.527500", "162856.017500", "162857.507500", "162858.997500", "162900.487500", "162901.977500", "162903.467500", "162904.957500", "162906.447500", "162907.937500", "162909.427500", "162910.917500", "162912.407500", "162913.897500", "162915.387500", "162916.877500", "162918.367500", "162919.857500", "162921.347500", "162922.837500", "162924.327500", "162925.817500", "162927.307500", "162928.797500", "162930.287500", "162931.777500", "162933.267500", "162934.757500", "162936.247500", "162937.737500", "162939.227500", "162940.717500", "162942.207500", "162943.697500", "162945.187500", "162946.677500", "162948.167500", "162949.657500", "162951.147500", "162952.637500", "162954.127500", "162955.617500", "162957.107500", "162958.597500", "163000.087500", "163001.577500", "163003.067500", "163004.557500", "163006.047500", "163007.537500", "163009.027500", "163010.517500", "163012.007500", "163013.497500", "163014.987500", "163016.477500", "163017.967500", "163019.457500", "163020.947500", "163022.437500", "163023.927500", "163025.417500", "163026.907500", "163028.397500", "163029.887500", "163031.377500", "163032.867500", "163034.357500", "163035.847500", "163037.337500", "163038.827500", "163040.317500", "163041.807500", "163043.297500", "163044.787500", "163046.277500", "163047.767500", "163049.257500", "163050.747500", "163052.237500", "163053.727500", "163055.217500", "163056.707500", "163058.197500", "163059.687500", "163101.177500", "163102.667500", "163104.157500", "163105.647500", "163107.137500", "163108.627500", "163110.117500", "163111.607500", "163113.097500", "163114.587500", "163116.077500", "163117.567500", "163119.057500", "163120.547500", "163122.037500", "163123.527500", "163125.017500", "163126.507500", "163127.997500", "163129.487500", "163130.977500", "163132.467500", "163133.957500", "163135.447500", "163136.937500", "163138.427500", "163139.917500", "163141.407500", "163142.897500", "163144.387500", "163145.877500", "163147.367500", "163148.857500", "163150.347500", "163151.837500", "163153.327500", "163154.817500", "163156.307500", "163157.797500", "163159.287500", "163200.777500", "163202.267500", "163203.757500", "163205.247500", "163206.737500", "163208.227500", "163209.717500", "163211.207500", "163212.697500", "163214.187500", "163215.677500", "163217.167500", "163218.657500", "163220.147500", "163221.637500", "163223.127500", "163224.617500", "163226.107500", "163227.597500", "163229.087500", "163230.577500", "163232.067500", "163233.557500", "163235.047500", "163236.537500", "163238.027500", "163239.517500", "163241.007500", "163242.497500", "163243.987500", "163245.477500", "163246.967500", "163248.457500", "163249.947500", "163251.437500", "163252.927500", "163254.417500", "163255.907500", "163257.397500", "163258.887500", "163300.377500", "163301.867500", "163303.357500", "163304.847500", "163306.337500", "163307.827500", "163309.317500", "163310.807500", "163312.297500", "163313.787500", "163315.277500", "163316.767500", "163318.257500", "163319.747500", "163321.237500", "163322.727500", "163324.217500", "163325.707500", "163327.197500", "163328.687500", "163330.177500", "163331.667500", "163333.157500", "163334.647500", "163336.137500", "163337.627500", "163339.117500", "163340.607500", "163342.097500", "163343.587500", "163345.077500", "163346.567500", "163348.057500", "163349.547500", "163351.037500", "163352.527500", "163354.017500", "163355.507500", "163356.997500", "163358.487500", "163359.977500", "163401.467500", "163402.957500", "163404.447500", "163405.937500", "163407.427500", "163408.917500", "163410.407500", "163411.897500", "163413.387500", "163414.877500", "163416.367500", "163417.857500", "163419.347500", "163420.837500", "163422.327500", "163423.817500", "163425.307500", "163426.797500", "163428.287500", "163429.777500", "163431.267500", "163432.757500", "163434.247500", "163435.737500", "163437.227500", "163438.717500", "163440.207500", "163441.697500", "163443.187500"],
      "ContentTime": ["162458.365000", "162458.368000", "162458.371000", "162458.374000", "162458.384000", "162458.390000", "162458.393000", "162458.396000", "162458.399000", "162458.402000", "162458.404000", "162458.407000", "162458.410000", "162458.416000", "162458.418000", "162458.421000", "162458.424000", "162458.427000", "162458.430000", "162458.432000", "162458.435000", "162458.438000", "162458.441000", "162458.444000", "162458.447000", "162458.450000", "162458.452000", "162458.455000", "162458.458000", "162458.461000", "162458.464000", "162518.338000", "162518.341000", "162518.352000", "162518.354000", "162518.357000", "162518.360000", "162518.363000", "162518.366000", "162518.368000", "162518.371000", "162518.374000", "162518.377000", "162518.380000", "162518.383000", "162518.385000", "162518.388000", "162518.391000", "162518.394000", "162518.397000", "162518.399000", "162538.338000", "162538.341000", "162538.344000", "162538.346000", "162538.349000", "162538.352000", "162538.355000", "162538.358000", "162538.360000", "162538.363000", "162538.366000", "162538.370000", "162538.373000", "162538.375000", "162538.378000", "162538.381000", "162538.384000", "162538.387000", "162538.390000", "162538.392000", "162538.395000", "162558.337000", "162558.340000", "162558.343000", "162558.345000", "162558.348000", "162558.351000", "162558.354000", "162558.357000", "162558.359000", "162558.362000", "162558.365000", "162558.368000", "162558.371000", "162558.373000", "162558.376000", "162558.379000", "162558.382000", "162558.385000", "162558.388000", "162558.390000", "162618.337000", "162618.340000", "162618.343000", "162618.346000", "162618.348000", "162618.351000", "162618.354000", "162618.357000", "162618.359000", "162618.362000", "162618.365000", "162618.368000", "162618.371000", "162618.373000", "162618.376000", "162618.379000", "162618.382000", "162658.338000", "162658.341000", "162658.344000", "162658.346000", "162658.349000", "162658.352000", "162658.355000", "162658.358000", "162658.360000", "162658.363000", "162658.366000", "162658.369000", "162658.372000", "162658.374000", "162658.377000", "162658.380000", "162658.390000", "162658.393000", "162658.395000", "162658.398000", "162658.401000", "162658.404000", "162658.407000", "162658.410000", "162658.412000", "162658.415000", "162658.418000", "162738.338000", "162738.341000", "162738.344000", "162738.346000", "162738.349000", "162738.352000", "162738.355000", "162738.358000", "162738.361000", "162738.363000", "162738.366000", "162738.369000", "162738.372000", "162738.375000", "162738.377000", "162738.380000", "162738.383000", "162738.386000", "162738.389000", "162738.392000", "162738.394000", "162738.397000", "162738.400000", "162738.403000", "162738.406000", "162738.408000", "162738.411000", "162818.337000", "162818.340000", "162818.343000", "162818.345000", "162818.348000", "162818.351000", "162818.367000", "162818.370000", "162818.373000", "162818.376000", "162818.379000", "162818.382000", "162818.384000", "162818.387000", "162818.390000", "162818.393000", "162818.396000", "162818.399000", "162818.401000", "162818.404000", "162818.407000", "162818.410000", "162818.413000", "162818.415000", "162818.418000", "162818.421000", "162858.337000", "162858.340000", "162858.343000", "162858.346000", "162858.348000", "162858.351000", "162858.354000", "162858.357000", "162858.360000", "162858.362000", "162858.365000", "162858.368000", "162858.371000", "162858.374000", "162858.377000", "162858.379000", "162858.382000", "162858.385000", "162858.388000", "162858.391000", "162858.393000", "162858.396000", "162858.399000", "162858.402000", "162858.405000", "162858.407000", "162858.410000", "162938.338000", "162938.341000", "162938.344000", "162938.346000", "162938.349000", "162938.352000", "162938.355000", "162938.358000", "162938.361000", "162938.364000", "162938.366000", "162938.369000", "162938.372000", "162938.375000", "162938.378000", "162938.380000", "162938.383000", "162938.386000", "162938.389000", "162938.392000", "162938.395000", "162938.398000", "162938.400000", "162938.403000", "162938.406000", "162938.409000", "162938.412000", "163018.337000", "163018.340000", "163018.343000", "163018.346000", "163018.348000", "163018.351000", "163018.354000", "163018.357000", "163018.360000", "163018.362000", "163018.365000", "163018.368000", "163018.371000", "163018.374000", "163018.376000", "163018.379000", "163018.382000", "163018.385000", "163018.388000", "163018.391000", "163018.394000", "163018.396000", "163018.399000", "163018.402000", "163018.405000", "163018.408000", "163018.410000", "163058.337000", "163058.340000", "163058.343000", "163058.345000", "163058.348000", "163058.351000", "163058.354000", "163058.357000", "163058.360000", "163058.363000", "163058.366000", "163058.368000", "163058.371000", "163058.374000", "163058.377000", "163058.380000", "163058.383000", "163058.386000", "163058.388000", "163058.391000", "163058.394000", "163058.397000", "163058.400000", "163058.402000", "163058.405000", "163058.408000", "163058.411000", "163138.338000", "163138.341000", "163138.344000", "163138.347000", "163138.350000", "163138.352000", "163138.355000", "163138.358000", "163138.361000", "163138.364000", "163138.367000", "163138.369000", "163138.372000", "163138.375000", "163138.378000", "163138.381000", "163138.383000", "163138.386000", "163138.389000", "163138.392000", "163138.395000", "163138.397000", "163138.400000", "163138.403000", "163138.406000", "163138.409000", "163138.411000", "163218.338000", "163218.341000", "163218.344000", "163218.347000", "163218.349000", "163218.352000", "163218.355000", "163218.358000", "163218.361000", "163218.364000", "163218.366000", "163218.369000", "163218.372000", "163218.375000", "163218.378000", "163218.381000", "163218.384000", "163218.386000", "163218.395000", "163218.398000", "163218.401000", "163218.403000", "163218.406000", "163218.409000", "163218.412000", "163218.415000", "163218.418000", "163258.337000", "163258.347000", "163258.350000", "163258.353000", "163258.356000", "163258.359000", "163258.362000", "163258.365000", "163258.367000", "163258.370000", "163258.373000", "163258.376000", "163258.379000", "163258.381000", "163258.384000", "163258.387000", "163258.390000", "163258.393000", "163258.396000", "163258.398000", "163258.401000", "163258.404000", "163258.407000", "163258.410000", "163258.413000", "163258.415000", "163338.337000", "163338.340000", "163338.343000", "163338.346000", "163338.349000", "163338.351000", "163338.354000", "163338.357000", "163338.360000", "163338.363000", "163338.366000", "163338.368000", "163338.371000", "163338.374000", "163338.377000", "163338.380000", "163338.383000", "163338.385000", "163338.388000", "163338.391000", "163338.394000", "163338.397000", "163338.399000", "163338.402000", "163338.405000", "163338.408000", "163338.411000", "163418.338000", "163418.341000", "163418.344000", "163418.347000", "163418.349000", "163418.352000", "163418.355000", "163418.358000", "163418.361000", "163418.364000", "163418.366000", "163418.369000", "163418.372000", "163418.375000", "163418.378000", "163418.381000", "163418.384000", "163418.387000", "163418.389000", "163418.392000", "163418.395000", "163418.398000", "163418.401000", "163418.403000", "163418.406000", "163418.409000", "163418.412000", "163445.820000", "163445.823000", "163445.826000", "163445.829000", "163445.832000", "163445.835000", "163445.838000", "163445.841000", "163445.844000", "163445.846000", "163445.849000", "163445.852000", "163445.855000", "163445.858000", "163445.861000", "163445.864000", "163445.867000", "163445.870000", "163445.873000"],
