{
  "AcquisitionMatrixPE": 104,
  "AcquisitionNumber": 1,
  "AcquisitionTime": "16:11:14.915000",
  "BandwidthPerPixelPhaseEncode": 17.17,
  "BaseResolution": 104,
  "BodyPartExamined": "BRAIN",
  "CoilString": "HC1-7;NC1_2",
  "ConsistencyInfo": "N4_VE11C_LATEST_20160120",
  "ConversionSoftware": "dcm2niix",
  "ConversionSoftwareVersion": "v1.0.20190902",
  "DerivedVendorReportedEchoSpacing": 0.000560011,
  "DeviceSerialNumber": "167006",
  "DwellTime": 2.1e-06,
  "EchoTime": 0.037,
  "EchoTrainLength": 104,
  "EffectiveEchoSpacing": 0.000560011,
  "FlipAngle": 52,
  "ImageComments": "Unaliased_MB4_PE3_LB",
  "ImageOrientationPatientDICOM": [0.999709, 0.0159869, 0.0180393, -0.0115163, 0.974247, -0.22519],
  "ImageType": [
    "ORIGINAL",
    "PRIMARY",
    "M",
    "MB",
    "ND",
    "MOSAIC"
],
  "ImagingFrequency": 123.259,
  "InPlanePhaseEncodingDirectionDICOM": "COL",
  "InstitutionAddress": "Chemin_Queen-Mary_4565_Montreal_District_CA_H3W_1W5",
  "InstitutionName": "IUGM",
  "InstitutionalDepartmentName": "Department",
  "MRAcquisitionType": "2D",
  "MagneticFieldStrength": 3,
  "Manufacturer": "Siemens",
  "ManufacturersModelName": "Prisma_fit",
  "Modality": "MR",
  "MultibandAccelerationFactor": 4,
  "PartialFourier": 1,
  "PatientPosition": "HFS",
  "PercentPhaseFOV": 100,
  "PhaseEncodingDirection": "j",
  "PhaseEncodingSteps": 104,
  "PhaseResolution": 1,
  "PixelBandwidth": 2290,
  "ProcedureStepDescription": "video_friends",
  "ProtocolName": "func_task-friends-s05e21b",
  "PulseSequenceDetails": "%CustomerSeq%_cmrr_mbep2d_bold",
  "ReceiveCoilActiveElements": "HC1-7;NC1,2",
  "ReceiveCoilName": "HeadNeck_64",
  "ReconMatrixPE": 104,
  "RepetitionTime": 1.49,
  "SAR": 0.031594,
  "ScanOptions": "FS",
  "ScanningSequence": "EP",
  "SequenceName": "epfid2d1_104",
  "SequenceVariant": "SK_SS",
  "SeriesDescription": "func_task-friends-s05e21b",
  "SeriesNumber": 11,
  "ShimSetting": [651, -7234, -8739, 714, 65, -28, 135, -8],
  "SliceThickness": 2,
  "SliceTiming": [0, 0.7825, 0.0975, 0.88, 0.195, 0.9775, 0.2925, 1.0775, 0.39, 1.175, 0.4875, 1.2725, 0.5875, 1.37, 0.685, 0, 0.7825, 0.0975, 0.88, 0.195, 0.9775, 0.2925, 1.0775, 0.39, 1.175, 0.4875, 1.2725, 0.5875, 1.37, 0.685, 0, 0.7825, 0.0975, 0.88, 0.195, 0.9775, 0.2925, 1.0775, 0.39, 1.175, 0.4875, 1.2725, 0.5875, 1.37, 0.685, 0, 0.7825, 0.0975, 0.88, 0.195, 0.9775, 0.2925, 1.0775, 0.39, 1.175, 0.4875, 1.2725, 0.5875, 1.37, 0.685],
  "SoftwareVersions": "syngo_MR_E11",
  "SpacingBetweenSlices": 2,
  "StationName": "MRC35049",
  "TaskName": "s05e21b",
  "TotalReadoutTime": 0.0576811,
  "TxRefAmp": 207.448,
  "WipMemBlock": "9e76b7e3-0459-486c-bebb-e0b12ee9d5f6||Sequence: R016 ve11c/master r/e634e98; Dec 19 2017 11:00:25 by eja",
  "dcmmeta_affine": [
    [-1.9994189739227295, -0.023032592609524727, 0.042349692434072495, 105.3096923828125],
    [-0.03197386860847473, 1.9484937191009521, -0.4498331844806671, -76.64045715332031],
    [0.036078643053770065, 0.45037955045700073, 1.9482958316802979, -41.520172119140625],
    [0.0, 0.0, 0.0, 1.0]
],
  "dcmmeta_reorient_transform": [
    [0.0, -1.0, 0.0, 103.0],
    [1.0, 0.0, 0.0, 0.0],
    [0.0, 0.0, 1.0, 0.0],
    [0.0, 0.0, 0.0, 1.0]
],
  "dcmmeta_shape": [104, 104, 60, 478],
  "dcmmeta_slice_dim": 2,
  "dcmmeta_version": 0.6,
  "global": {
    "const": {
      "AcquisitionMatrix": [104, 0, 0, 104],
      "AngioFlag": "N",
      "BitsAllocated": 16,
      "BitsStored": 16,
      "BodyPartExamined": "BRAIN",
      "Columns": 832,
      "EchoNumbers": 1,
      "EchoTime": 37.0,
      "EchoTrainLength": 104,
      "FlipAngle": 52.0,
      "HighBit": 15,
      "ImageOrientationPatient": [0.99970945819189, 0.01598693499679, 0.01803932124775, -0.0115162965181, 0.97424685851969, -0.2251897723677],
      "ImagePositionPatient": [-822.34196048609, -844.94459600918, 155.67444884562],
      "ImageType": [
        "ORIGINAL",
        "PRIMARY",
        "M",
        "MB",
        "ND",
        "MOSAIC"
],
      "ImagedNucleus": "1H",
      "ImagingFrequency": 123.258959,
      "InPlanePhaseEncodingDirection": "COL",
      "MRAcquisitionType": "2D",
      "MagneticFieldStrength": 3.0,
      "Manufacturer": "SIEMENS",
      "ManufacturerModelName": "Prisma_fit",
      "Modality": "MR",
      "NumberOfAverages": 1.0,
      "NumberOfPhaseEncodingSteps": 104,
      "PercentPhaseFieldOfView": 100.0,
      "PercentSampling": 100.0,
      "PerformedProcedureStepStartTime": "154509.859000",
      "PhotometricInterpretation": "MONOCHROME2",
      "PixelBandwidth": 2290.0,
      "PixelRepresentation": 0,
      "PixelSpacing": [2.0, 2.0],
      "ProtocolName": "func_task-friends-s05e21b",
      "RepetitionTime": 1490.0,
      "Rows": 832,
      "SAR": 0.03159395101341,
      "SamplesPerPixel": 1,
      "ScanOptions": "FS",
      "ScanningSequence": "EP",
      "SequenceName": "epfid2d1_104",
      "SequenceVariant": [
        "SK",
        "SS"
],
      "SeriesDescription": "func_task-friends-s05e21b",
      "SeriesNumber": 11,
      "SeriesTime": "161236.313000",
      "SliceLocation": -20.97916149614,
      "SliceThickness": 2.0,
      "SmallestImagePixelValue": 0,
      "SoftwareVersions": "syngo MR E11",
      "SpacingBetweenSlices": 2.0000000027986,
      "SpecificCharacterSet": "ISO_IR 100",
      "StudyID": "1",
      "StudyTime": "154509.795000",
      "TransmitCoilName": "Body",
      "VariableFlipAngleFlag": "N",
      "WindowCenterWidthExplanation": "Algo1",
      "dBdt": 0.0},
    "slices": {}
  },
  "time": {
    "samples": {
      "AcquisitionNumber": [1, 2, 3, 4, 5, 6, 7, 8, 9, 10, 11, 12, 13, 14, 15, 16, 17, 18, 19, 20, 21, 22, 23, 24, 25, 26, 27, 28, 29, 30, 31, 32, 33, 34, 35, 36, 37, 38, 39, 40, 41, 42, 43, 44, 45, 46, 47, 48, 49, 50, 51, 52, 53, 54, 55, 56, 57, 58, 59, 60, 61, 62, 63, 64, 65, 66, 67, 68, 69, 70, 71, 72, 73, 74, 75, 76, 77, 78, 79, 80, 81, 82, 83, 84, 85, 86, 87, 88, 89, 90, 91, 92, 93, 94, 95, 96, 97, 98, 99, 100, 101, 102, 103, 104, 105, 106, 107, 108, 109, 110, 111, 112, 113, 114, 115, 116, 117, 118, 119, 120, 121, 122, 123, 124, 125, 126, 127, 128, 129, 130, 131, 132, 133, 134, 135, 136, 137, 138, 139, 140, 141, 142, 143, 144, 145, 146, 147, 148, 149, 150, 151, 152, 153, 154, 155, 156, 157, 158, 159, 160, 161, 162, 163, 164, 165, 166, 167, 168, 169, 170, 171, 172, 173, 174, 175, 176, 177, 178, 179, 180, 181, 182, 183, 184, 185, 186, 187, 188, 189, 190, 191, 192, 193, 194, 195, 196, 197, 198, 199, 200, 201, 202, 203, 204, 205, 206, 207, 208, 209, 210, 211, 212, 213, 214, 215, 216, 217, 218, 219, 220, 221, 222, 223, 224, 225, 226, 227, 228, 229, 230, 231, 232, 233, 234, 235, 236, 237, 238, 239, 240, 241, 242, 243, 244, 245, 246, 247, 248, 249, 250, 251, 252, 253, 254, 255, 256, 257, 258, 259, 260, 261, 262, 263, 264, 265, 266, 267, 268, 269, 270, 271, 272, 273, 274, 275, 276, 277, 278, 279, 280, 281, 282, 283, 284, 285, 286, 287, 288, 289, 290, 291, 292, 293, 294, 295, 296, 297, 298, 299, 300, 301, 302, 303, 304, 305, 306, 307, 308, 309, 310, 311, 312, 313, 314, 315, 316, 317, 318, 319, 320, 321, 322, 323, 324, 325, 326, 327, 328, 329, 330, 331, 332, 333, 334, 335, 336, 337, 338, 339, 340, 341, 342, 343, 344, 345, 346, 347, 348, 349, 350, 351, 352, 353, 354, 355, 356, 357, 358, 359, 360, 361, 362, 363, 364, 365, 366, 367, 368, 369, 370, 371, 372, 373, 374, 375, 376, 377, 378, 379, 380, 381, 382, 383, 384, 385, 386, 387, 388, 389, 390, 391, 392, 393, 394, 395, 396, 397, 398, 399, 400, 401, 402, 403, 404, 405, 406, 407, 408, 409, 410, 411, 412, 413, 414, 415, 416, 417, 418, 419, 420, 421, 422, 423, 424, 425, 426, 427, 428, 429, 430, 431, 432, 433, 434, 435, 436, 437, 438, 439, 440, 441, 442, 443, 444, 445, 446, 447, 448, 449, 450, 451, 452, 453, 454, 455, 456, 457, 458, 459, 460, 461, 462, 463, 464, 465, 466, 467, 468, 469, 470, 471, 472, 473, 474, 475, 476, 477, 478],
      "AcquisitionTime": ["161114.915000", "161116.405000", "161117.895000", "161119.385000", "161120.875000", "161122.365000", "161123.855000", "161125.345000", "161126.835000", "161128.325000", "161129.815000", "161131.305000", "161132.795000", "161134.285000", "161135.775000", "161137.265000", "161138.755000", "161140.245000", "161141.735000", "161143.225000", "161144.715000", "161146.205000", "161147.695000", "161149.185000", "161150.675000", "161152.165000", "161153.655000", "161155.145000", "161156.635000", "161158.125000", "161159.615000", "161201.105000", "161202.595000", "161204.085000", "161205.575000", "161207.065000", "161208.555000", "161210.045000", "161211.535000", "161213.025000", "161214.515000", "161216.005000", "161217.495000", "161218.985000", "161220.475000", "161221.965000", "161223.455000", "161224.945000", "161226.435000", "161227.925000", "161229.415000", "161230.905000", "161232.395000", "161233.885000", "161235.375000", "161236.865000", "161238.355000", "161239.845000", "161241.335000", "161242.825000", "161244.315000", "161245.805000", "161247.295000", "161248.785000", "161250.275000", "161251.765000", "161253.255000", "161254.745000", "161256.235000", "161257.725000", "161259.215000", "161300.705000", "161302.195000", "161303.685000", "161305.175000", "161306.665000", "161308.155000", "161309.645000", "161311.135000", "161312.625000", "161314.115000", "161315.605000", "161317.095000", "161318.585000", "161320.075000", "161321.565000", "161323.055000", "161324.545000", "161326.035000", "161327.525000", "161329.015000", "161330.505000", "161331.995000", "161333.485000", "161334.975000", "161336.465000", "161337.955000", "161339.445000", "161340.935000", "161342.425000", "161343.915000", "161345.405000", "161346.895000", "161348.385000", "161349.875000", "161351.365000", "161352.855000", "161354.345000", "161355.835000", "161357.325000", "161358.815000", "161400.305000", "161401.795000", "161403.285000", "161404.775000", "161406.265000", "161407.755000", "161409.245000", "161410.735000", "161412.225000", "161413.715000", "161415.205000", "161416.695000", "161418.185000", "161419.675000", "161421.165000", "161422.655000", "161424.145000", "161425.635000", "161427.125000", "161428.615000", "161430.105000", "161431.595000", "161433.085000", "161434.575000", "161436.065000", "161437.555000", "161439.045000", "161440.535000", "161442.025000", "161443.515000", "161445.005000", "161446.495000", "161447.985000", "161449.475000", "161450.965000", "161452.455000", "161453.945000", "161455.435000", "161456.925000", "161458.415000", "161459.905000", "161501.395000", "161502.885000", "161504.375000", "161505.865000", "161507.355000", "161508.845000", "161510.335000", "161511.825000", "161513.315000", "161514.805000", "161516.295000", "161517.785000", "161519.275000", "161520.765000", "161522.255000", "161523.745000", "161525.235000", "161526.725000", "161528.215000", "161529.705000", "161531.195000", "161532.685000", "161534.175000", "161535.665000", "161537.155000", "161538.645000", "161540.135000", "161541.625000", "161543.115000", "161544.605000", "161546.095000", "161547.585000", "161549.075000", "161550.565000", "161552.055000", "161553.545000", "161555.035000", "161556.525000", "161558.015000", "161559.505000", "161600.995000", "161602.485000", "161603.975000", "161605.465000", "161606.955000", "161608.445000", "161609.935000", "161611.425000", "161612.915000", "161614.405000", "161615.895000", "161617.385000", "161618.875000", "161620.365000", "161621.855000", "161623.345000", "161624.835000", "161626.325000", "161627.815000", "161629.305000", "161630.795000", "161632.285000", "161633.775000", "161635.265000", "161636.755000", "161638.245000", "161639.735000", "161641.225000", "161642.715000", "161644.205000", "161645.695000", "161647.185000", "161648.675000", "161650.165000", "161651.655000", "161653.145000", "161654.635000", "161656.125000", "161657.615000", "161659.105000", "161700.595000", "161702.085000", "161703.575000", "161705.065000", "161706.555000", "161708.045000", "161709.535000", "161711.025000", "161712.515000", "161714.005000", "161715.495000", "161716.985000", "161718.475000", "161719.965000", "161721.455000", "161722.945000", "161724.435000", "161725.925000", "161727.415000", "161728.905000", "161730.395000", "161731.885000", "161733.375000", "161734.865000", "161736.355000", "161737.845000", "161739.335000", "161740.825000", "161742.315000", "161743.805000", "161745.295000", "161746.785000", "161748.275000", "161749.765000", "161751.255000", "161752.745000", "161754.235000", "161755.725000", "161757.215000", "161758.705000", "161800.195000", "161801.685000", "161803.175000", "161804.665000", "161806.155000", "161807.645000", "161809.135000", "161810.625000", "161812.115000", "161813.605000", "161815.095000", "161816.585000", "161818.075000", "161819.565000", "161821.055000", "161822.545000", "161824.035000", "161825.525000", "161827.015000", "161828.505000", "161829.995000", "161831.485000", "161832.975000", "161834.465000", "161835.955000", "161837.445000", "161838.935000", "161840.425000", "161841.915000", "161843.405000", "161844.895000", "161846.385000", "161847.875000", "161849.365000", "161850.855000", "161852.345000", "161853.835000", "161855.325000", "161856.815000", "161858.305000", "161859.795000", "161901.285000", "161902.775000", "161904.265000", "161905.755000", "161907.245000", "161908.735000", "161910.225000", "161911.715000", "161913.205000", "161914.695000", "161916.185000", "161917.675000", "161919.165000", "161920.655000", "161922.145000", "161923.635000", "161925.125000", "161926.615000", "161928.105000", "161929.595000", "161931.085000", "161932.575000", "161934.065000", "161935.555000", "161937.045000", "161938.535000", "161940.025000", "161941.515000", "161943.005000", "161944.495000", "161945.985000", "161947.475000", "161948.965000", "161950.455000", "161951.945000", "161953.435000", "161954.925000", "161956.415000", "161957.905000", "161959.395000", "162000.885000", "162002.375000", "162003.865000", "162005.355000", "162006.845000", "162008.335000", "162009.825000", "162011.315000", "162012.805000", "162014.295000", "162015.785000", "162017.275000", "162018.765000", "162020.255000", "162021.745000", "162023.235000", "162024.725000", "162026.215000", "162027.705000", "162029.195000", "162030.685000", "162032.175000", "162033.665000", "162035.155000", "162036.645000", "162038.135000", "162039.625000", "162041.115000", "162042.605000", "162044.095000", "162045.585000", "162047.075000", "162048.565000", "162050.055000", "162051.545000", "162053.035000", "162054.525000", "162056.015000", "162057.505000", "162058.995000", "162100.485000", "162101.975000", "162103.465000", "162104.955000", "162106.445000", "162107.935000", "162109.425000", "162110.915000", "162112.405000", "162113.895000", "162115.385000", "162116.875000", "162118.365000", "162119.855000", "162121.345000", "162122.835000", "162124.325000", "162125.815000", "162127.305000", "162128.795000", "162130.285000", "162131.775000", "162133.265000", "162134.755000", "162136.245000", "162137.735000", "162139.225000", "162140.715000", "162142.205000", "162143.695000", "162145.185000", "162146.675000", "162148.165000", "162149.655000", "162151.145000", "162152.635000", "162154.125000", "162155.615000", "162157.105000", "162158.595000", "162200.085000", "162201.575000", "162203.065000", "162204.555000", "162206.045000", "162207.535000", "162209.025000", "162210.515000", "162212.005000", "162213.495000", "162214.985000", "162216.475000", "162217.965000", "162219.455000", "162220.945000", "162222.435000", "162223.925000", "162225.415000", "162226.905000", "162228.395000", "162229.885000", "162231.375000", "162232.865000", "162234.355000", "162235.845000", "162237.335000", "162238.825000", "162240.315000", "162241.805000", "162243.295000", "162244.785000", "162246.275000", "162247.765000", "162249.255000", "162250.745000", "162252.235000", "162253.725000", "162255.215000", "162256.705000", "162258.195000", "162259.685000", "162301.175000", "162302.665000", "162304.155000", "162305.645000"],
      "ContentTime": ["161236.315000", "161236.319000", "161236.321000", "161236.324000", "161236.334000", "161236.336000", "161236.339000", "161236.342000", "161236.349000", "161236.352000", "161236.355000", "161236.357000", "161236.360000", "161236.363000", "161236.366000", "161236.369000", "161236.371000", "161236.374000", "161236.377000", "161236.380000", "161236.383000", "161236.385000", "161236.388000", "161236.391000", "161236.394000", "161236.397000", "161236.400000", "161256.281000", "161256.284000", "161256.287000", "161256.289000", "161256.299000", "161256.302000", "161256.304000", "161256.307000", "161256.310000", "161256.313000", "161256.316000", "161256.319000", "161256.321000", "161256.324000", "161256.327000", "161256.330000", "161256.333000", "161256.335000", "161256.338000", "161256.341000", "161316.281000", "161316.284000", "161316.287000", "161316.290000", "161316.293000", "161316.296000", "161316.299000", "161316.302000", "161316.305000", "161316.308000", "161316.311000", "161316.314000", "161316.317000", "161316.320000", "161316.323000", "161316.325000", "161316.328000", "161316.331000", "161316.334000", "161316.337000", "161336.281000", "161336.284000", "161336.286000", "161336.289000", "161336.292000", "161336.295000", "161336.298000", "161336.300000", "161336.303000", "161336.306000", "161336.309000", "161336.312000", "161336.315000", "161336.317000", "161336.320000", "161336.323000", "161336.326000", "161336.328000", "161336.332000", "161336.334000", "161336.337000", "161416.281000", "161416.284000", "161416.291000", "161416.294000", "161416.297000", "161416.300000", "161416.303000", "161416.313000", "161416.316000", "161416.319000", "161416.321000", "161416.324000", "161416.327000", "161416.330000", "161416.333000", "161416.336000", "161416.339000", "161416.341000", "161416.344000", "161416.347000", "161416.350000", "161416.353000", "161416.356000", "161416.358000", "161416.361000", "161416.364000", "161416.367000", "161416.370000", "161416.376000", "161416.379000", "161416.382000", "161416.384000", "161416.387000", "161456.281000", "161456.284000", "161456.287000", "161456.289000", "161456.292000", "161456.295000", "161456.298000", "161456.301000", "161456.304000", "161456.306000", "161456.309000", "161456.312000", "161456.315000", "161456.318000", "161456.320000", "161456.323000", "161456.326000", "161456.329000", "161456.332000", "161456.335000", "161456.338000", "161456.340000", "161456.343000", "161456.346000", "161456.349000", "161456.352000", "161456.354000", "161536.281000", "161536.284000", "161536.287000", "161536.289000", "161536.292000", "161536.295000", "161536.298000", "161536.301000", "161536.304000", "161536.306000", "161536.309000", "161536.313000", "161536.316000", "161536.319000", "161536.322000", "161536.325000", "161536.327000", "161536.330000", "161536.333000", "161536.336000", "161536.339000", "161536.342000", "161536.344000", "161536.347000", "161536.350000", "161536.353000", "161616.281000", "161616.284000", "161616.287000", "161616.289000", "161616.292000", "161616.295000", "161616.298000", "161616.301000", "161616.309000", "161616.311000", "161616.314000", "161616.317000", "161616.320000", "161616.323000", "161616.326000", "161616.328000", "161616.331000", "161616.334000", "161616.337000", "161616.340000", "161616.342000", "161616.345000", "161616.348000", "161616.351000", "161616.354000", "161616.357000", "161616.359000", "161656.281000", "161656.284000", "161656.287000", "161656.289000", "161656.292000", "161656.295000", "161656.298000", "161656.301000", "161656.304000", "161656.306000", "161656.309000", "161656.312000", "161656.315000", "161656.318000", "161656.321000", "161656.323000", "161656.326000", "161656.329000", "161656.332000", "161656.335000", "161656.338000", "161656.341000", "161656.344000", "161656.346000", "161656.349000", "161656.352000", "161656.355000", "161736.281000", "161736.284000", "161736.287000", "161736.289000", "161736.292000", "161736.295000", "161736.298000", "161736.301000", "161736.304000", "161736.306000", "161736.309000", "161736.312000", "161736.315000", "161736.318000", "161736.321000", "161736.323000", "161736.326000", "161736.329000", "161736.332000", "161736.335000", "161736.338000", "161736.340000", "161736.343000", "161736.346000", "161736.349000", "161736.352000", "161736.355000", "161816.281000", "161816.284000", "161816.287000", "161816.290000", "161816.292000", "161816.295000", "161816.298000", "161816.301000", "161816.304000", "161816.307000", "161816.309000", "161816.312000", "161816.315000", "161816.318000", "161816.321000", "161816.324000", "161816.326000", "161816.329000", "161816.332000", "161816.351000", "161816.353000", "161816.356000", "161816.359000", "161816.362000", "161816.365000", "161816.368000", "161816.371000", "161856.281000", "161856.284000", "161856.287000", "161856.290000", "161856.292000", "161856.295000", "161856.298000", "161856.301000", "161856.304000", "161856.307000", "161856.309000", "161856.312000", "161856.315000", "161856.318000", "161856.321000", "161856.324000", "161856.326000", "161856.329000", "161856.332000", "161856.335000", "161856.338000", "161856.341000", "161856.343000", "161856.346000", "161856.349000", "161856.352000", "161856.355000", "161936.281000", "161936.284000", "161936.287000", "161936.290000", "161936.292000", "161936.295000", "161936.298000", "161936.301000", "161936.304000", "161936.307000", "161936.309000", "161936.312000", "161936.315000", "161936.318000", "161936.321000", "161936.324000", "161936.327000", "161936.330000", "161936.344000", "161936.346000", "161936.349000", "161936.352000", "161936.365000", "161936.367000", "161936.370000", "161936.373000", "162016.281000", "162016.284000", "162016.287000", "162016.290000", "162016.293000", "162016.295000", "162016.298000", "162016.301000", "162016.304000", "162016.307000", "162016.310000", "162016.313000", "162016.316000", "162016.318000", "162016.321000", "162016.324000", "162016.327000", "162016.330000", "162016.333000", "162016.336000", "162016.338000", "162016.341000", "162016.344000", "162016.347000", "162016.350000", "162016.353000", "162016.356000", "162056.281000", "162056.284000", "162056.287000", "162056.290000", "162056.292000", "162056.295000", "162056.298000", "162056.301000", "162056.304000", "162056.307000", "162056.310000", "162056.312000", "162056.315000", "162056.318000", "162056.321000", "162056.324000", "162056.327000", "162056.329000", "162056.333000", "162056.335000", "162056.338000", "162056.341000", "162056.344000", "162056.347000", "162056.350000", "162056.352000", "162056.356000", "162136.281000", "162136.284000", "162136.287000", "162136.290000", "162136.293000", "162136.296000", "162136.299000", "162136.302000", "162136.304000", "162136.307000", "162136.310000", "162136.313000", "162136.316000", "162136.319000", "162136.322000", "162136.324000", "162136.327000", "162136.330000", "162136.333000", "162136.336000", "162136.339000", "162136.342000", "162136.345000", "162136.347000", "162136.350000", "162136.353000", "162136.356000", "162216.281000", "162216.284000", "162216.287000", "162216.289000", "162216.292000", "162216.295000", "162216.298000", "162216.301000", "162216.304000", "162216.307000", "162216.310000", "162216.312000", "162216.315000", "162216.318000", "162216.321000", "162216.324000", "162216.327000", "162216.330000", "162216.332000", "162216.335000", "162216.338000", "162216.341000", "162216.344000", "162216.346000", "162216.349000", "162216.352000", "162216.355000", "162256.281000", "162256.284000", "162256.287000", "162256.290000", "162256.293000", "162256.295000", "162256.298000", "162256.301000", "162256.304000", "162256.307000", "162256.309000", "162256.312000", "162256.315000", "162256.318000", "162256.338000", "162256.341000", "162256.344000", "162256.346000", "162256.349000", "162256.352000", "162256.355000", "162256.358000", "162256.361000", "162256.364000", "162256.367000", "162256.369000", "162256.373000", "162307.983000", "162307.986000", "162307.989000", "162308.001000", "162308.004000", "162308.007000", "162308.010000", "162308.013000"],
