{
  "AcquisitionMatrixPE": 104,
  "AcquisitionNumber": 1,
  "AcquisitionTime": "15:59:47.350000",
  "BandwidthPerPixelPhaseEncode": 17.17,
  "BaseResolution": 104,
  "BodyPartExamined": "BRAIN",
  "CoilString": "HC1-7;NC1_2",
  "ConsistencyInfo": "N4_VE11C_LATEST_20160120",
  "ConversionSoftware": "dcm2niix",
  "ConversionSoftwareVersion": "v1.0.20190902",
  "DerivedVendorReportedEchoSpacing": 0.000560011,
  "DeviceSerialNumber": "167006",
  "DwellTime": 2.1e-06,
  "EchoTime": 0.037,
  "EchoTrainLength": 104,
  "EffectiveEchoSpacing": 0.000560011,
  "FlipAngle": 52,
  "ImageComments": "Unaliased_MB4_PE3_LB",
  "ImageOrientationPatientDICOM": [0.999709, 0.0159869, 0.0180393, -0.0115163, 0.974247, -0.22519],
  "ImageType": [
    "ORIGINAL",
    "PRIMARY",
    "M",
    "MB",
    "ND",
    "MOSAIC"
],
  "ImagingFrequency": 123.259,
  "InPlanePhaseEncodingDirectionDICOM": "COL",
  "InstitutionAddress": "Chemin_Queen-Mary_4565_Montreal_District_CA_H3W_1W5",
  "InstitutionName": "IUGM",
  "InstitutionalDepartmentName": "Department",
  "MRAcquisitionType": "2D",
  "MagneticFieldStrength": 3,
  "Manufacturer": "Siemens",
  "ManufacturersModelName": "Prisma_fit",
  "Modality": "MR",
  "MultibandAccelerationFactor": 4,
  "PartialFourier": 1,
  "PatientPosition": "HFS",
  "PercentPhaseFOV": 100,
  "PhaseEncodingDirection": "j",
  "PhaseEncodingSteps": 104,
  "PhaseResolution": 1,
  "PixelBandwidth": 2290,
  "ProcedureStepDescription": "video_friends",
  "ProtocolName": "func_task-friends-s05e21a",
  "PulseSequenceDetails": "%CustomerSeq%_cmrr_mbep2d_bold",
  "ReceiveCoilActiveElements": "HC1-7;NC1,2",
  "ReceiveCoilName": "HeadNeck_64",
  "ReconMatrixPE": 104,
  "RepetitionTime": 1.49,
  "SAR": 0.031584,
  "ScanOptions": "FS",
  "ScanningSequence": "EP",
  "SequenceName": "epfid2d1_104",
  "SequenceVariant": "SK_SS",
  "SeriesDescription": "func_task-friends-s05e21a",
  "SeriesNumber": 9,
  "ShimSetting": [651, -7234, -8739, 714, 65, -28, 135, -8],
  "SliceThickness": 2,
  "SliceTiming": [0, 0.7825, 0.0975, 0.88, 0.195, 0.98, 0.2925, 1.0775, 0.39, 1.175, 0.49, 1.2725, 0.5875, 1.37, 0.685, 0, 0.7825, 0.0975, 0.88, 0.195, 0.98, 0.2925, 1.0775, 0.39, 1.175, 0.49, 1.2725, 0.5875, 1.37, 0.685, 0, 0.7825, 0.0975, 0.88, 0.195, 0.98, 0.2925, 1.0775, 0.39, 1.175, 0.49, 1.2725, 0.5875, 1.37, 0.685, 0, 0.7825, 0.0975, 0.88, 0.195, 0.98, 0.2925, 1.0775, 0.39, 1.175, 0.49, 1.2725, 0.5875, 1.37, 0.685],
  "SoftwareVersions": "syngo_MR_E11",
  "SpacingBetweenSlices": 2,
  "StationName": "MRC35049",
  "TaskName": "s05e21a",
  "TotalReadoutTime": 0.0576811,
  "TxRefAmp": 207.448,
  "WipMemBlock": "f6fce031-e76d-45ca-a5cc-8642822a0581||Sequence: R016 ve11c/master r/e634e98; Dec 19 2017 11:00:25 by eja",
  "dcmmeta_affine": [
    [-1.9994189739227295, -0.023032592609524727, 0.042349692434072495, 105.3096923828125],
    [-0.03197386860847473, 1.9484937191009521, -0.4498331844806671, -76.64045715332031],
    [0.036078643053770065, 0.45037955045700073, 1.9482958316802979, -41.520172119140625],
    [0.0, 0.0, 0.0, 1.0]
],
  "dcmmeta_reorient_transform": [
    [0.0, -1.0, 0.0, 103.0],
    [1.0, 0.0, 0.0, 0.0],
    [0.0, 0.0, 1.0, 0.0],
    [0.0, 0.0, 0.0, 1.0]
],
  "dcmmeta_shape": [104, 104, 60, 444],
  "dcmmeta_slice_dim": 2,
  "dcmmeta_version": 0.6,
  "global": {
    "const": {
      "AcquisitionMatrix": [104, 0, 0, 104],
      "AngioFlag": "N",
      "BitsAllocated": 16,
      "BitsStored": 16,
      "BodyPartExamined": "BRAIN",
      "Columns": 832,
      "EchoNumbers": 1,
      "EchoTime": 37.0,
      "EchoTrainLength": 104,
      "FlipAngle": 52.0,
      "HighBit": 15,
      "ImageOrientationPatient": [0.99970945819189, 0.01598693499679, 0.01803932124775, -0.0115162965181, 0.97424685851969, -0.2251897723677],
      "ImagePositionPatient": [-822.34196048609, -844.94459600918, 155.67444884562],
      "ImageType": [
        "ORIGINAL",
        "PRIMARY",
        "M",
        "MB",
        "ND",
        "MOSAIC"
],
      "ImagedNucleus": "1H",
      "ImagingFrequency": 123.258948,
      "InPlanePhaseEncodingDirection": "COL",
      "MRAcquisitionType": "2D",
      "MagneticFieldStrength": 3.0,
      "Manufacturer": "SIEMENS",
      "ManufacturerModelName": "Prisma_fit",
      "Modality": "MR",
      "NumberOfAverages": 1.0,
      "NumberOfPhaseEncodingSteps": 104,
      "PercentPhaseFieldOfView": 100.0,
      "PercentSampling": 100.0,
      "PerformedProcedureStepStartTime": "154509.859000",
      "PhotometricInterpretation": "MONOCHROME2",
      "PixelBandwidth": 2290.0,
      "PixelRepresentation": 0,
      "PixelSpacing": [2.0, 2.0],
      "ProtocolName": "func_task-friends-s05e21a",
      "RepetitionTime": 1490.0,
      "Rows": 832,
      "SAR": 0.03158395858142,
      "SamplesPerPixel": 1,
      "ScanOptions": "FS",
      "ScanningSequence": "EP",
      "SequenceName": "epfid2d1_104",
      "SequenceVariant": [
        "SK",
        "SS"
],
      "SeriesDescription": "func_task-friends-s05e21a",
      "SeriesNumber": 9,
      "SeriesTime": "160107.545000",
      "SliceLocation": -20.97916149614,
      "SliceThickness": 2.0,
      "SmallestImagePixelValue": 0,
      "SoftwareVersions": "syngo MR E11",
      "SpacingBetweenSlices": 2.0000000027986,
      "SpecificCharacterSet": "ISO_IR 100",
      "StudyID": "1",
      "StudyTime": "154509.795000",
      "TransmitCoilName": "Body",
      "VariableFlipAngleFlag": "N",
      "WindowCenterWidthExplanation": "Algo1",
      "dBdt": 0.0},
    "slices": {}
  },
  "time": {
    "samples": {
      "AcquisitionNumber": [1, 2, 3, 4, 5, 6, 7, 8, 9, 10, 11, 12, 13, 14, 15, 16, 17, 18, 19, 20, 21, 22, 23, 24, 25, 26, 27, 28, 29, 30, 31, 32, 33, 34, 35, 36, 37, 38, 39, 40, 41, 42, 43, 44, 45, 46, 47, 48, 49, 50, 51, 52, 53, 54, 55, 56, 57, 58, 59, 60, 61, 62, 63, 64, 65, 66, 67, 68, 69, 70, 71, 72, 73, 74, 75, 76, 77, 78, 79, 80, 81, 82, 83, 84, 85, 86, 87, 88, 89, 90, 91, 92, 93, 94, 95, 96, 97, 98, 99, 100, 101, 102, 103, 104, 105, 106, 107, 108, 109, 110, 111, 112, 113, 114, 115, 116, 117, 118, 119, 120, 121, 122, 123, 124, 125, 126, 127, 128, 129, 130, 131, 132, 133, 134, 135, 136, 137, 138, 139, 140, 141, 142, 143, 144, 145, 146, 147, 148, 149, 150, 151, 152, 153, 154, 155, 156, 157, 158, 159, 160, 161, 162, 163, 164, 165, 166, 167, 168, 169, 170, 171, 172, 173, 174, 175, 176, 177, 178, 179, 180, 181, 182, 183, 184, 185, 186, 187, 188, 189, 190, 191, 192, 193, 194, 195, 196, 197, 198, 199, 200, 201, 202, 203, 204, 205, 206, 207, 208, 209, 210, 211, 212, 213, 214, 215, 216, 217, 218, 219, 220, 221, 222, 223, 224, 225, 226, 227, 228, 229, 230, 231, 232, 233, 234, 235, 236, 237, 238, 239, 240, 241, 242, 243, 244, 245, 246, 247, 248, 249, 250, 251, 252, 253, 254, 255, 256, 257, 258, 259, 260, 261, 262, 263, 264, 265, 266, 267, 268, 269, 270, 271, 272, 273, 274, 275, 276, 277, 278, 279, 280, 281, 282, 283, 284, 285, 286, 287, 288, 289, 290, 291, 292, 293, 294, 295, 296, 297, 298, 299, 300, 301, 302, 303, 304, 305, 306, 307, 308, 309, 310, 311, 312, 313, 314, 315, 316, 317, 318, 319, 320, 321, 322, 323, 324, 325, 326, 327, 328, 329, 330, 331, 332, 333, 334, 335, 336, 337, 338, 339, 340, 341, 342, 343, 344, 345, 346, 347, 348, 349, 350, 351, 352, 353, 354, 355, 356, 357, 358, 359, 360, 361, 362, 363, 364, 365, 366, 367, 368, 369, 370, 371, 372, 373, 374, 375, 376, 377, 378, 379, 380, 381, 382, 383, 384, 385, 386, 387, 388, 389, 390, 391, 392, 393, 394, 395, 396, 397, 398, 399, 400, 401, 402, 403, 404, 405, 406, 407, 408, 409, 410, 411, 412, 413, 414, 415, 416, 417, 418, 419, 420, 421, 422, 423, 424, 425, 426, 427, 428, 429, 430, 431, 432, 433, 434, 435, 436, 437, 438, 439, 440, 441, 442, 443, 444],
      "AcquisitionTime": ["155947.350000", "155948.840000", "155950.330000", "155951.820000", "155953.310000", "155954.800000", "155956.290000", "155957.780000", "155959.270000", "160000.760000", "160002.250000", "160003.740000", "160005.230000", "160006.720000", "160008.210000", "160009.700000", "160011.190000", "160012.680000", "160014.170000", "160015.660000", "160017.150000", "160018.640000", "160020.130000", "160021.620000", "160023.110000", "160024.600000", "160026.090000", "160027.580000", "160029.070000", "160030.560000", "160032.050000", "160033.540000", "160035.030000", "160036.520000", "160038.010000", "160039.500000", "160040.990000", "160042.480000", "160043.970000", "160045.460000", "160046.950000", "160048.440000", "160049.930000", "160051.420000", "160052.910000", "160054.400000", "160055.890000", "160057.380000", "160058.870000", "160100.360000", "160101.850000", "160103.340000", "160104.830000", "160106.320000", "160107.810000", "160109.300000", "160110.790000", "160112.280000", "160113.770000", "160115.260000", "160116.750000", "160118.240000", "160119.730000", "160121.220000", "160122.710000", "160124.200000", "160125.690000", "160127.180000", "160128.670000", "160130.160000", "160131.650000", "160133.140000", "160134.630000", "160136.120000", "160137.610000", "160139.100000", "160140.590000", "160142.080000", "160143.570000", "160145.060000", "160146.550000", "160148.040000", "160149.530000", "160151.020000", "160152.510000", "160154.000000", "160155.490000", "160156.980000", "160158.470000", "160159.960000", "160201.450000", "160202.940000", "160204.430000", "160205.920000", "160207.410000", "160208.900000", "160210.390000", "160211.880000", "160213.370000", "160214.860000", "160216.350000", "160217.840000", "160219.330000", "160220.820000", "160222.310000", "160223.800000", "160225.290000", "160226.780000", "160228.270000", "160229.760000", "160231.250000", "160232.740000", "160234.230000", "160235.720000", "160237.210000", "160238.700000", "160240.190000", "160241.680000", "160243.170000", "160244.660000", "160246.150000", "160247.640000", "160249.130000", "160250.620000", "160252.110000", "160253.600000", "160255.090000", "160256.580000", "160258.070000", "160259.560000", "160301.050000", "160302.540000", "160304.030000", "160305.520000", "160307.010000", "160308.500000", "160309.990000", "160311.480000", "160312.970000", "160314.460000", "160315.950000", "160317.440000", "160318.930000", "160320.420000", "160321.910000", "160323.400000", "160324.890000", "160326.380000", "160327.870000", "160329.360000", "160330.850000", "160332.340000", "160333.830000", "160335.320000", "160336.810000", "160338.300000", "160339.790000", "160341.280000", "160342.770000", "160344.260000", "160345.750000", "160347.240000", "160348.730000", "160350.220000", "160351.710000", "160353.200000", "160354.690000", "160356.180000", "160357.670000", "160359.160000", "160400.650000", "160402.140000", "160403.630000", "160405.120000", "160406.610000", "160408.100000", "160409.590000", "160411.080000", "160412.570000", "160414.060000", "160415.550000", "160417.040000", "160418.530000", "160420.020000", "160421.510000", "160423.000000", "160424.490000", "160425.980000", "160427.470000", "160428.960000", "160430.450000", "160431.940000", "160433.430000", "160434.920000", "160436.410000", "160437.900000", "160439.390000", "160440.880000", "160442.370000", "160443.860000", "160445.350000", "160446.840000", "160448.330000", "160449.820000", "160451.310000", "160452.800000", "160454.290000", "160455.780000", "160457.270000", "160458.760000", "160500.250000", "160501.740000", "160503.230000", "160504.720000", "160506.210000", "160507.700000", "160509.190000", "160510.680000", "160512.170000", "160513.660000", "160515.150000", "160516.640000", "160518.130000", "160519.620000", "160521.110000", "160522.600000", "160524.090000", "160525.580000", "160527.070000", "160528.560000", "160530.050000", "160531.540000", "160533.030000", "160534.520000", "160536.010000", "160537.500000", "160538.990000", "160540.480000", "160541.970000", "160543.460000", "160544.950000", "160546.440000", "160547.930000", "160549.420000", "160550.910000", "160552.400000", "160553.890000", "160555.380000", "160556.870000", "160558.360000", "160559.850000", "160601.340000", "160602.830000", "160604.320000", "160605.810000", "160607.300000", "160608.790000", "160610.280000", "160611.770000", "160613.260000", "160614.750000", "160616.240000", "160617.730000", "160619.220000", "160620.710000", "160622.200000", "160623.690000", "160625.180000", "160626.670000", "160628.160000", "160629.650000", "160631.140000", "160632.630000", "160634.120000", "160635.610000", "160637.100000", "160638.590000", "160640.080000", "160641.570000", "160643.060000", "160644.550000", "160646.040000", "160647.530000", "160649.020000", "160650.510000", "160652.000000", "160653.490000", "160654.980000", "160656.470000", "160657.960000", "160659.450000", "160700.940000", "160702.430000", "160703.920000", "160705.410000", "160706.900000", "160708.390000", "160709.880000", "160711.370000", "160712.860000", "160714.350000", "160715.840000", "160717.330000", "160718.820000", "160720.310000", "160721.800000", "160723.290000", "160724.780000", "160726.270000", "160727.760000", "160729.250000", "160730.740000", "160732.230000", "160733.720000", "160735.210000", "160736.700000", "160738.190000", "160739.680000", "160741.170000", "160742.660000", "160744.150000", "160745.640000", "160747.130000", "160748.620000", "160750.110000", "160751.600000", "160753.090000", "160754.580000", "160756.070000", "160757.560000", "160759.050000", "160800.540000", "160802.030000", "160803.520000", "160805.010000", "160806.500000", "160807.990000", "160809.480000", "160810.970000", "160812.460000", "160813.950000", "160815.440000", "160816.930000", "160818.420000", "160819.910000", "160821.400000", "160822.890000", "160824.380000", "160825.870000", "160827.360000", "160828.850000", "160830.340000", "160831.830000", "160833.320000", "160834.810000", "160836.300000", "160837.790000", "160839.280000", "160840.770000", "160842.260000", "160843.750000", "160845.240000", "160846.730000", "160848.220000", "160849.710000", "160851.200000", "160852.690000", "160854.180000", "160855.670000", "160857.160000", "160858.650000", "160900.140000", "160901.630000", "160903.120000", "160904.610000", "160906.100000", "160907.590000", "160909.080000", "160910.570000", "160912.060000", "160913.550000", "160915.040000", "160916.530000", "160918.020000", "160919.510000", "160921.000000", "160922.490000", "160923.980000", "160925.470000", "160926.960000", "160928.450000", "160929.940000", "160931.430000", "160932.920000", "160934.410000", "160935.900000", "160937.390000", "160938.880000", "160940.370000", "160941.860000", "160943.350000", "160944.840000", "160946.330000", "160947.820000", "160949.310000", "160950.800000", "160952.290000", "160953.780000", "160955.270000", "160956.760000", "160958.250000", "160959.740000", "161001.230000", "161002.720000", "161004.210000", "161005.700000", "161007.190000", "161008.680000", "161010.170000", "161011.660000", "161013.150000", "161014.640000", "161016.130000", "161017.620000", "161019.110000", "161020.600000", "161022.090000", "161023.580000", "161025.070000", "161026.560000", "161028.050000", "161029.540000", "161031.030000", "161032.520000", "161034.010000", "161035.500000", "161036.990000", "161038.480000", "161039.970000", "161041.460000", "161042.950000", "161044.440000", "161045.930000", "161047.420000"],
      "ContentTime": ["160107.547000", "160107.551000", "160107.554000", "160107.557000", "160107.561000", "160107.567000", "160107.570000", "160107.577000", "160107.580000", "160107.589000", "160107.592000", "160107.596000", "160107.606000", "160107.609000", "160107.612000", "160107.615000", "160107.618000", "160107.621000", "160107.624000", "160107.627000", "160107.629000", "160107.632000", "160107.635000", "160107.638000", "160107.641000", "160127.503000", "160127.506000", "160127.509000", "160127.511000", "160127.514000", "160127.517000", "160127.520000", "160127.533000", "160127.536000", "160127.539000", "160127.542000", "160127.546000", "160127.549000", "160127.552000", "160127.555000", "160127.558000", "160127.561000", "160127.564000", "160127.567000", "160127.571000", "160147.503000", "160147.511000", "160147.514000", "160147.517000", "160147.520000", "160147.523000", "160147.525000", "160147.528000", "160147.531000", "160147.534000", "160147.537000", "160147.540000", "160147.542000", "160147.545000", "160147.548000", "160147.551000", "160147.554000", "160147.556000", "160147.559000", "160147.566000", "160207.503000", "160207.506000", "160207.508000", "160207.511000", "160207.514000", "160207.517000", "160207.520000", "160207.523000", "160207.525000", "160207.528000", "160207.531000", "160207.534000", "160207.537000", "160207.548000", "160207.550000", "160207.553000", "160207.556000", "160207.559000", "160207.562000", "160207.565000", "160227.503000", "160227.506000", "160227.508000", "160227.511000", "160227.514000", "160227.517000", "160227.521000", "160227.524000", "160227.526000", "160227.529000", "160227.532000", "160227.535000", "160227.537000", "160227.540000", "160227.549000", "160227.552000", "160227.555000", "160227.558000", "160227.562000", "160227.564000", "160307.504000", "160307.507000", "160307.510000", "160307.513000", "160307.515000", "160307.524000", "160307.527000", "160307.530000", "160307.533000", "160307.536000", "160307.538000", "160307.542000", "160307.544000", "160307.547000", "160307.550000", "160307.553000", "160307.555000", "160307.558000", "160307.561000", "160307.564000", "160307.567000", "160307.570000", "160307.573000", "160307.576000", "160307.579000", "160307.585000", "160307.588000", "160307.591000", "160347.503000", "160347.506000", "160347.509000", "160347.512000", "160347.514000", "160347.517000", "160347.520000", "160347.523000", "160347.526000", "160347.529000", "160347.532000", "160347.535000", "160347.537000", "160347.540000", "160347.543000", "160347.547000", "160347.549000", "160347.552000", "160347.555000", "160347.558000", "160347.561000", "160347.563000", "160347.566000", "160347.569000", "160347.572000", "160347.575000", "160347.578000", "160427.503000", "160427.506000", "160427.509000", "160427.511000", "160427.514000", "160427.517000", "160427.520000", "160427.523000", "160427.526000", "160427.543000", "160427.546000", "160427.549000", "160427.552000", "160427.555000", "160427.557000", "160427.560000", "160427.563000", "160427.566000", "160427.569000", "160427.571000", "160427.574000", "160427.577000", "160427.580000", "160427.583000", "160427.586000", "160427.589000", "160427.598000", "160507.504000", "160507.507000", "160507.510000", "160507.512000", "160507.515000", "160507.518000", "160507.521000", "160507.524000", "160507.527000", "160507.529000", "160507.532000", "160507.535000", "160507.538000", "160507.541000", "160507.543000", "160507.546000", "160507.549000", "160507.552000", "160507.555000", "160507.557000", "160507.560000", "160507.566000", "160507.569000", "160507.572000", "160507.578000", "160507.581000", "160507.584000", "160547.504000", "160547.507000", "160547.510000", "160547.512000", "160547.515000", "160547.518000", "160547.521000", "160547.524000", "160547.527000", "160547.529000", "160547.532000", "160547.535000", "160547.538000", "160547.541000", "160547.544000", "160547.546000", "160547.549000", "160547.552000", "160547.555000", "160547.558000", "160547.561000", "160547.563000", "160547.566000", "160547.569000", "160547.572000", "160547.575000", "160547.577000", "160607.503000", "160607.506000", "160607.509000", "160607.512000", "160607.515000", "160607.518000", "160607.521000", "160607.524000", "160607.526000", "160607.529000", "160607.532000", "160607.535000", "160607.538000", "160647.503000", "160647.506000", "160647.509000", "160647.511000", "160647.514000", "160647.517000", "160647.520000", "160647.530000", "160647.533000", "160647.535000", "160647.538000", "160647.541000", "160647.544000", "160647.547000", "160647.550000", "160647.552000", "160647.555000", "160647.558000", "160647.561000", "160647.564000", "160647.567000", "160647.570000", "160647.572000", "160647.575000", "160647.578000", "160647.581000", "160647.584000", "160727.504000", "160727.507000", "160727.517000", "160727.519000", "160727.522000", "160727.525000", "160727.528000", "160727.531000", "160727.534000", "160727.536000", "160727.539000", "160727.542000", "160727.545000", "160727.548000", "160727.550000", "160727.553000", "160727.556000", "160727.559000", "160727.562000", "160727.565000", "160727.568000", "160727.571000", "160727.574000", "160727.580000", "160727.583000", "160727.585000", "160727.588000", "160807.504000", "160807.507000", "160807.510000", "160807.512000", "160807.515000", "160807.518000", "160807.521000", "160807.524000", "160807.527000", "160807.529000", "160807.533000", "160807.535000", "160807.538000", "160807.541000", "160807.544000", "160807.547000", "160807.550000", "160807.553000", "160807.555000", "160807.558000", "160807.561000", "160807.564000", "160807.567000", "160807.570000", "160807.576000", "160807.579000", "160807.582000", "160847.503000", "160847.506000", "160847.509000", "160847.512000", "160847.514000", "160847.517000", "160847.520000", "160847.523000", "160847.526000", "160847.529000", "160847.532000", "160847.535000", "160847.538000", "160847.540000", "160847.550000", "160847.553000", "160847.556000", "160847.568000", "160847.570000", "160847.573000", "160847.576000", "160847.579000", "160847.582000", "160847.585000", "160847.588000", "160847.591000", "160927.503000", "160927.506000", "160927.509000", "160927.511000", "160927.514000", "160927.517000", "160927.520000", "160927.523000", "160927.525000", "160927.535000", "160927.538000", "160927.541000", "160927.544000", "160927.547000", "160927.549000", "160927.552000", "160927.555000", "160927.558000", "160927.561000", "160927.564000", "160927.566000", "160927.569000", "160927.572000", "160927.575000", "160927.578000", "160927.580000", "160927.583000", "161007.504000", "161007.507000", "161007.510000", "161007.513000", "161007.515000", "161007.518000", "161007.527000", "161007.530000", "161007.533000", "161007.536000", "161007.538000", "161007.541000", "161007.544000", "161007.547000", "161007.550000", "161007.553000", "161007.556000", "161007.558000", "161007.561000", "161007.564000", "161007.567000", "161007.570000", "161007.573000", "161007.575000", "161007.578000", "161007.581000", "161007.584000", "161047.503000", "161047.506000", "161047.509000", "161047.511000", "161047.514000", "161047.517000", "161047.520000", "161047.523000", "161047.526000", "161047.528000", "161047.539000", "161047.542000", "161047.545000", "161047.547000", "161047.550000", "161047.553000", "161047.556000", "161047.559000", "161047.562000", "161047.565000", "161047.567000", "161047.570000", "161047.573000", "161047.576000", "161047.579000", "161047.582000", "161047.584000", "161049.825000", "161049.828000"],
