{
  "AcquisitionMatrixPE": 104,
  "AcquisitionNumber": 1,
  "AcquisitionTime": "11:02:2.590000",
  "BandwidthPerPixelPhaseEncode": 17.17,
  "BaseResolution": 104,
  "BodyPartExamined": "BRAIN",
  "CoilString": "HC1-7;NC1_2",
  "ConsistencyInfo": "N4_VE11C_LATEST_20160120",
  "ConversionSoftware": "dcm2niix",
  "ConversionSoftwareVersion": "v1.0.20190720  (JP2:OpenJPEG) GCC7.3.0",
  "DerivedVendorReportedEchoSpacing": 0.000560011,
  "DeviceSerialNumber": "167006",
  "DwellTime": 2.1e-06,
  "EchoTime": 0.037,
  "EchoTrainLength": 104,
  "EffectiveEchoSpacing": 0.000560011,
  "FlipAngle": 52,
  "ImageComments": "Unaliased_MB4_PE3_LB",
  "ImageOrientationPatientDICOM": [0.99983, -0.017751, -0.00494361, 0.015183, 0.94565, -0.324831],
  "ImageType": [
    "ORIGINAL",
    "PRIMARY",
    "M",
    "MB",
    "ND",
    "MOSAIC"
],
  "ImagingFrequency": 123.259,
  "InPlanePhaseEncodingDirectionDICOM": "COL",
  "InstitutionAddress": "Chemin_Queen-Mary_4565_Montreal_District_CA_H3W_1W5",
  "InstitutionName": "IUGM",
  "InstitutionalDepartmentName": "Department",
  "MRAcquisitionType": "2D",
  "MagneticFieldStrength": 3,
  "Manufacturer": "Siemens",
  "ManufacturersModelName": "Prisma_fit",
  "Modality": "MR",
  "MultibandAccelerationFactor": 4,
  "PartialFourier": 1,
  "PatientPosition": "HFS",
  "PercentPhaseFOV": 100,
  "PhaseEncodingDirection": "j",
  "PhaseEncodingSteps": 104,
  "PhaseResolution": 1,
  "PixelBandwidth": 2290,
  "ProcedureStepDescription": "video_friends",
  "ProtocolName": "func_task-s01e05b",
  "PulseSequenceDetails": "%CustomerSeq%_cmrr_mbep2d_bold",
  "ReceiveCoilActiveElements": "HC1-7;NC1,2",
  "ReceiveCoilName": "HeadNeck_64",
  "ReconMatrixPE": 104,
  "RepetitionTime": 1.49,
  "SAR": 0.0300504,
  "ScanOptions": "FS",
  "ScanningSequence": "EP",
  "SequenceName": "epfid2d1_104",
  "SequenceVariant": "SK_SS",
  "SeriesDescription": "func_task-s01e05b",
  "SeriesNumber": 10,
  "ShimSetting": [618, -7214, -8813, 694, 15, -24, 1, 14],
  "SliceThickness": 2,
  "SliceTiming": [0, 0.785, 0.1, 0.8825, 0.1975, 0.98, 0.295, 1.08, 0.3925, 1.1775, 0.49, 1.275, 0.59, 1.3725, 0.6875, 0, 0.785, 0.1, 0.8825, 0.1975, 0.98, 0.295, 1.08, 0.3925, 1.1775, 0.49, 1.275, 0.59, 1.3725, 0.6875, 0, 0.785, 0.1, 0.8825, 0.1975, 0.98, 0.295, 1.08, 0.3925, 1.1775, 0.49, 1.275, 0.59, 1.3725, 0.6875, 0, 0.785, 0.1, 0.8825, 0.1975, 0.98, 0.295, 1.08, 0.3925, 1.1775, 0.49, 1.275, 0.59, 1.3725, 0.6875],
  "SoftwareVersions": "syngo_MR_E11",
  "SpacingBetweenSlices": 2,
  "StationName": "MRC35049",
  "TaskName": "friends",
  "TotalReadoutTime": 0.0576811,
  "TxRefAmp": 208.977,
  "WipMemBlock": "f310469a-20de-4067-a015-a91301f01d5e||Sequence: R016 ve11c/master r/e634e98; Dec 19 2017 11:00:25 by eja",
  "dcmmeta_affine": [
    [-1.9996604919433594, 0.030365990474820137, -0.020882003009319305, 104.06786346435547],
    [0.035502031445503235, 1.8913005590438843, -0.6494011878967285, -80.19049072265625],
    [-0.009887215681374073, 0.6496616005897522, 1.891518473625183, -69.44669342041016],
    [0.0, 0.0, 0.0, 1.0]
],
  "dcmmeta_reorient_transform": [
    [0.0, -1.0, 0.0, 103.0],
    [1.0, 0.0, 0.0, 0.0],
    [0.0, 0.0, 1.0, 0.0],
    [0.0, 0.0, 0.0, 1.0]
],
  "dcmmeta_shape": [104, 104, 60, 488],
  "dcmmeta_slice_dim": 2,
  "dcmmeta_version": 0.6,
  "global": {
    "const": {
      "AcquisitionMatrix": [104, 0, 0, 104],
      "AngioFlag": "N",
      "BitsAllocated": 16,
      "BitsStored": 16,
      "BodyPartExamined": "BRAIN",
      "Columns": 832,
      "EchoNumbers": 1,
      "EchoTime": 37.0,
      "EchoTrainLength": 104,
      "FlipAngle": 52.0,
      "HighBit": 15,
      "ImageOrientationPatient": [0.99983021666348, -0.0177510165942, -0.0049436076424, 0.01518299529034, 0.94565026446168, -0.3248308082334],
      "ImagePositionPatient": [-846.12517885185, -790.12411460963, 237.54423097031],
      "ImageType": [
        "ORIGINAL",
        "PRIMARY",
        "M",
        "MB",
        "ND",
        "MOSAIC"
],
      "ImagedNucleus": "1H",
      "ImagingFrequency": 123.259394,
      "InPlanePhaseEncodingDirection": "COL",
      "MRAcquisitionType": "2D",
      "MagneticFieldStrength": 3.0,
      "Manufacturer": "SIEMENS",
      "ManufacturerModelName": "Prisma_fit",
      "Modality": "MR",
      "NumberOfAverages": 1.0,
      "NumberOfPhaseEncodingSteps": 104,
      "PercentPhaseFieldOfView": 100.0,
      "PercentSampling": 100.0,
      "PerformedProcedureStepStartTime": "103404.628000",
      "PhotometricInterpretation": "MONOCHROME2",
      "PixelBandwidth": 2290.0,
      "PixelRepresentation": 0,
      "PixelSpacing": [2.0, 2.0],
      "ProtocolName": "func_task-s01e05b",
      "RepetitionTime": 1490.0,
      "Rows": 832,
      "SAR": 0.03005037709172,
      "SamplesPerPixel": 1,
      "ScanOptions": "FS",
      "ScanningSequence": "EP",
      "SequenceName": "epfid2d1_104",
      "SequenceVariant": [
        "SK",
        "SS"
],
      "SeriesDescription": "func_task-s01e05b",
      "SeriesNumber": 10,
      "SeriesTime": "110316.346000",
      "SliceLocation": -40.728519604409,
      "SliceThickness": 2.0,
      "SmallestImagePixelValue": 0,
      "SoftwareVersions": "syngo MR E11",
      "SpacingBetweenSlices": 2.0000000219186,
      "SpecificCharacterSet": "ISO_IR 100",
      "StudyID": "1",
      "StudyTime": "103404.557000",
      "TransmitCoilName": "Body",
      "VariableFlipAngleFlag": "N",
      "WindowCenterWidthExplanation": "Algo1",
      "dBdt": 0.0},
    "slices": {}
  },
  "time": {
    "samples": {
      "AcquisitionNumber": [1, 2, 3, 4, 5, 6, 7, 8, 9, 10, 11, 12, 13, 14, 15, 16, 17, 18, 19, 20, 21, 22, 23, 24, 25, 26, 27, 28, 29, 30, 31, 32, 33, 34, 35, 36, 37, 38, 39, 40, 41, 42, 43, 44, 45, 46, 47, 48, 49, 50, 51, 52, 53, 54, 55, 56, 57, 58, 59, 60, 61, 62, 63, 64, 65, 66, 67, 68, 69, 70, 71, 72, 73, 74, 75, 76, 77, 78, 79, 80, 81, 82, 83, 84, 85, 86, 87, 88, 89, 90, 91, 92, 93, 94, 95, 96, 97, 98, 99, 100, 101, 102, 103, 104, 105, 106, 107, 108, 109, 110, 111, 112, 113, 114, 115, 116, 117, 118, 119, 120, 121, 122, 123, 124, 125, 126, 127, 128, 129, 130, 131, 132, 133, 134, 135, 136, 137, 138, 139, 140, 141, 142, 143, 144, 145, 146, 147, 148, 149, 150, 151, 152, 153, 154, 155, 156, 157, 158, 159, 160, 161, 162, 163, 164, 165, 166, 167, 168, 169, 170, 171, 172, 173, 174, 175, 176, 177, 178, 179, 180, 181, 182, 183, 184, 185, 186, 187, 188, 189, 190, 191, 192, 193, 194, 195, 196, 197, 198, 199, 200, 201, 202, 203, 204, 205, 206, 207, 208, 209, 210, 211, 212, 213, 214, 215, 216, 217, 218, 219, 220, 221, 222, 223, 224, 225, 226, 227, 228, 229, 230, 231, 232, 233, 234, 235, 236, 237, 238, 239, 240, 241, 242, 243, 244, 245, 246, 247, 248, 249, 250, 251, 252, 253, 254, 255, 256, 257, 258, 259, 260, 261, 262, 263, 264, 265, 266, 267, 268, 269, 270, 271, 272, 273, 274, 275, 276, 277, 278, 279, 280, 281, 282, 283, 284, 285, 286, 287, 288, 289, 290, 291, 292, 293, 294, 295, 296, 297, 298, 299, 300, 301, 302, 303, 304, 305, 306, 307, 308, 309, 310, 311, 312, 313, 314, 315, 316, 317, 318, 319, 320, 321, 322, 323, 324, 325, 326, 327, 328, 329, 330, 331, 332, 333, 334, 335, 336, 337, 338, 339, 340, 341, 342, 343, 344, 345, 346, 347, 348, 349, 350, 351, 352, 353, 354, 355, 356, 357, 358, 359, 360, 361, 362, 363, 364, 365, 366, 367, 368, 369, 370, 371, 372, 373, 374, 375, 376, 377, 378, 379, 380, 381, 382, 383, 384, 385, 386, 387, 388, 389, 390, 391, 392, 393, 394, 395, 396, 397, 398, 399, 400, 401, 402, 403, 404, 405, 406, 407, 408, 409, 410, 411, 412, 413, 414, 415, 416, 417, 418, 419, 420, 421, 422, 423, 424, 425, 426, 427, 428, 429, 430, 431, 432, 433, 434, 435, 436, 437, 438, 439, 440, 441, 442, 443, 444, 445, 446, 447, 448, 449, 450, 451, 452, 453, 454, 455, 456, 457, 458, 459, 460, 461, 462, 463, 464, 465, 466, 467, 468, 469, 470, 471, 472, 473, 474, 475, 476, 477, 478, 479, 480, 481, 482, 483, 484, 485, 486, 487, 488],
      "AcquisitionTime": ["110202.590000", "110204.080000", "110205.570000", "110207.060000", "110208.550000", "110210.040000", "110211.530000", "110213.020000", "110214.510000", "110216.000000", "110217.490000", "110218.980000", "110220.470000", "110221.960000", "110223.450000", "110224.940000", "110226.430000", "110227.920000", "110229.410000", "110230.900000", "110232.390000", "110233.880000", "110235.370000", "110236.860000", "110238.350000", "110239.840000", "110241.330000", "110242.820000", "110244.310000", "110245.800000", "110247.290000", "110248.780000", "110250.270000", "110251.760000", "110253.250000", "110254.740000", "110256.230000", "110257.720000", "110259.210000", "110300.700000", "110302.190000", "110303.680000", "110305.170000", "110306.660000", "110308.150000", "110309.640000", "110311.130000", "110312.620000", "110314.110000", "110315.600000", "110317.090000", "110318.580000", "110320.070000", "110321.560000", "110323.050000", "110324.540000", "110326.030000", "110327.520000", "110329.010000", "110330.500000", "110331.990000", "110333.480000", "110334.970000", "110336.460000", "110337.950000", "110339.440000", "110340.930000", "110342.420000", "110343.910000", "110345.400000", "110346.890000", "110348.380000", "110349.870000", "110351.360000", "110352.850000", "110354.340000", "110355.830000", "110357.320000", "110358.810000", "110400.300000", "110401.790000", "110403.280000", "110404.770000", "110406.260000", "110407.750000", "110409.240000", "110410.730000", "110412.220000", "110413.710000", "110415.200000", "110416.690000", "110418.180000", "110419.670000", "110421.160000", "110422.650000", "110424.140000", "110425.630000", "110427.120000", "110428.610000", "110430.100000", "110431.590000", "110433.080000", "110434.570000", "110436.060000", "110437.550000", "110439.040000", "110440.530000", "110442.020000", "110443.510000", "110445.000000", "110446.490000", "110447.980000", "110449.470000", "110450.960000", "110452.450000", "110453.940000", "110455.430000", "110456.920000", "110458.410000", "110459.900000", "110501.390000", "110502.880000", "110504.370000", "110505.860000", "110507.350000", "110508.840000", "110510.330000", "110511.820000", "110513.310000", "110514.800000", "110516.290000", "110517.780000", "110519.270000", "110520.760000", "110522.250000", "110523.740000", "110525.230000", "110526.720000", "110528.210000", "110529.700000", "110531.190000", "110532.680000", "110534.170000", "110535.660000", "110537.150000", "110538.640000", "110540.130000", "110541.620000", "110543.110000", "110544.600000", "110546.090000", "110547.580000", "110549.070000", "110550.560000", "110552.050000", "110553.540000", "110555.030000", "110556.520000", "110558.010000", "110559.500000", "110600.990000", "110602.480000", "110603.970000", "110605.460000", "110606.950000", "110608.440000", "110609.930000", "110611.420000", "110612.910000", "110614.400000", "110615.890000", "110617.380000", "110618.870000", "110620.360000", "110621.850000", "110623.340000", "110624.830000", "110626.320000", "110627.810000", "110629.300000", "110630.790000", "110632.280000", "110633.770000", "110635.260000", "110636.750000", "110638.240000", "110639.730000", "110641.220000", "110642.710000", "110644.200000", "110645.690000", "110647.180000", "110648.670000", "110650.160000", "110651.650000", "110653.140000", "110654.630000", "110656.120000", "110657.610000", "110659.100000", "110700.590000", "110702.080000", "110703.570000", "110705.060000", "110706.550000", "110708.040000", "110709.530000", "110711.020000", "110712.510000", "110714.000000", "110715.490000", "110716.980000", "110718.470000", "110719.960000", "110721.450000", "110722.940000", "110724.430000", "110725.920000", "110727.410000", "110728.900000", "110730.390000", "110731.880000", "110733.370000", "110734.860000", "110736.350000", "110737.840000", "110739.330000", "110740.820000", "110742.310000", "110743.800000", "110745.290000", "110746.780000", "110748.270000", "110749.760000", "110751.250000", "110752.740000", "110754.230000", "110755.720000", "110757.210000", "110758.700000", "110800.190000", "110801.680000", "110803.170000", "110804.660000", "110806.150000", "110807.640000", "110809.130000", "110810.620000", "110812.110000", "110813.600000", "110815.090000", "110816.580000", "110818.070000", "110819.560000", "110821.050000", "110822.540000", "110824.030000", "110825.520000", "110827.010000", "110828.500000", "110829.990000", "110831.480000", "110832.970000", "110834.460000", "110835.950000", "110837.440000", "110838.930000", "110840.420000", "110841.910000", "110843.400000", "110844.890000", "110846.380000", "110847.870000", "110849.360000", "110850.850000", "110852.340000", "110853.830000", "110855.320000", "110856.810000", "110858.300000", "110859.790000", "110901.280000", "110902.770000", "110904.260000", "110905.750000", "110907.240000", "110908.730000", "110910.220000", "110911.710000", "110913.200000", "110914.690000", "110916.180000", "110917.670000", "110919.160000", "110920.650000", "110922.140000", "110923.630000", "110925.120000", "110926.610000", "110928.100000", "110929.590000", "110931.080000", "110932.570000", "110934.060000", "110935.550000", "110937.040000", "110938.530000", "110940.020000", "110941.510000", "110943.000000", "110944.490000", "110945.980000", "110947.470000", "110948.960000", "110950.450000", "110951.940000", "110953.430000", "110954.920000", "110956.410000", "110957.900000", "110959.390000", "111000.880000", "111002.370000", "111003.860000", "111005.350000", "111006.840000", "111008.330000", "111009.820000", "111011.310000", "111012.800000", "111014.290000", "111015.780000", "111017.270000", "111018.760000", "111020.250000", "111021.740000", "111023.230000", "111024.720000", "111026.210000", "111027.700000", "111029.190000", "111030.680000", "111032.170000", "111033.660000", "111035.150000", "111036.640000", "111038.130000", "111039.620000", "111041.110000", "111042.600000", "111044.090000", "111045.580000", "111047.070000", "111048.560000", "111050.050000", "111051.540000", "111053.030000", "111054.520000", "111056.010000", "111057.500000", "111058.990000", "111100.480000", "111101.970000", "111103.460000", "111104.950000", "111106.440000", "111107.930000", "111109.420000", "111110.910000", "111112.400000", "111113.890000", "111115.380000", "111116.870000", "111118.360000", "111119.850000", "111121.340000", "111122.830000", "111124.320000", "111125.810000", "111127.300000", "111128.790000", "111130.280000", "111131.770000", "111133.260000", "111134.750000", "111136.240000", "111137.730000", "111139.220000", "111140.710000", "111142.200000", "111143.690000", "111145.180000", "111146.670000", "111148.160000", "111149.650000", "111151.140000", "111152.630000", "111154.120000", "111155.610000", "111157.100000", "111158.590000", "111200.080000", "111201.570000", "111203.060000", "111204.550000", "111206.040000", "111207.530000", "111209.020000", "111210.510000", "111212.000000", "111213.490000", "111214.980000", "111216.470000", "111217.960000", "111219.450000", "111220.940000", "111222.430000", "111223.920000", "111225.410000", "111226.900000", "111228.390000", "111229.880000", "111231.370000", "111232.860000", "111234.350000", "111235.840000", "111237.330000", "111238.820000", "111240.310000", "111241.800000", "111243.290000", "111244.780000", "111246.270000", "111247.760000", "111249.250000", "111250.740000", "111252.230000", "111253.720000", "111255.210000", "111256.700000", "111258.190000", "111259.680000", "111301.170000", "111302.660000", "111304.150000", "111305.640000", "111307.130000", "111308.620000", "111310.110000", "111311.600000", "111313.090000", "111314.580000", "111316.070000", "111317.560000", "111319.050000", "111320.540000", "111322.030000", "111323.520000", "111325.010000", "111326.500000", "111327.990000", "111329.480000", "111330.970000", "111332.460000", "111333.950000", "111335.440000", "111336.930000", "111338.420000", "111339.910000", "111341.400000", "111342.890000", "111344.380000", "111345.870000", "111347.360000", "111348.850000", "111350.340000", "111351.830000", "111353.320000", "111354.810000", "111356.300000", "111357.790000", "111359.280000", "111400.770000", "111402.260000", "111403.750000", "111405.240000", "111406.730000", "111408.220000"],
      "ContentTime": ["110316.349000", "110316.352000", "110316.355000", "110316.358000", "110316.361000", "110316.363000", "110316.366000", "110316.369000", "110316.372000", "110316.375000", "110316.378000", "110316.381000", "110316.387000", "110316.390000", "110316.393000", "110316.396000", "110316.399000", "110316.402000", "110316.405000", "110316.407000", "110316.416000", "110336.307000", "110336.310000", "110336.313000", "110336.316000", "110336.319000", "110336.322000", "110336.330000", "110336.333000", "110336.336000", "110336.339000", "110336.342000", "110336.345000", "110336.347000", "110336.350000", "110336.353000", "110336.356000", "110336.359000", "110336.362000", "110336.365000", "110336.368000", "110356.307000", "110356.310000", "110356.313000", "110356.316000", "110356.319000", "110356.322000", "110356.325000", "110356.328000", "110356.331000", "110356.334000", "110356.337000", "110356.340000", "110356.342000", "110356.345000", "110356.348000", "110356.351000", "110356.354000", "110356.357000", "110356.360000", "110356.363000", "110416.307000", "110416.310000", "110416.313000", "110416.316000", "110416.319000", "110416.322000", "110416.325000", "110416.328000", "110416.331000", "110416.334000", "110416.337000", "110416.339000", "110416.342000", "110416.345000", "110416.348000", "110416.352000", "110416.356000", "110416.359000", "110416.362000", "110416.365000", "110436.307000", "110436.310000", "110436.313000", "110436.316000", "110436.319000", "110436.322000", "110436.325000", "110436.328000", "110436.331000", "110436.333000", "110436.336000", "110436.339000", "110436.342000", "110436.345000", "110436.348000", "110436.351000", "110436.354000", "110436.357000", "110436.360000", "110436.362000", "110436.365000", "110516.308000", "110516.311000", "110516.314000", "110516.317000", "110516.320000", "110516.323000", "110516.326000", "110516.329000", "110516.332000", "110516.335000", "110516.338000", "110516.341000", "110516.343000", "110516.347000", "110516.349000", "110516.352000", "110516.355000", "110516.358000", "110516.361000", "110516.364000", "110516.372000", "110516.375000", "110516.378000", "110516.381000", "110516.384000", "110516.387000", "110516.389000", "110556.315000", "110556.318000", "110556.321000", "110556.324000", "110556.327000", "110556.330000", "110556.333000", "110556.336000", "110556.339000", "110556.342000", "110556.345000", "110556.348000", "110556.351000", "110556.354000", "110556.357000", "110556.360000", "110556.363000", "110556.366000", "110556.368000", "110556.371000", "110556.374000", "110556.377000", "110556.380000", "110556.383000", "110556.386000", "110556.389000", "110556.392000", "110636.307000", "110636.310000", "110636.313000", "110636.326000", "110636.329000", "110636.332000", "110636.335000", "110636.337000", "110636.340000", "110636.343000", "110636.346000", "110636.349000", "110636.352000", "110636.355000", "110636.358000", "110636.361000", "110636.364000", "110636.367000", "110636.370000", "110636.372000", "110636.375000", "110636.378000", "110636.381000", "110636.384000", "110636.387000", "110636.390000", "110636.393000", "110716.308000", "110716.311000", "110716.314000", "110716.317000", "110716.320000", "110716.323000", "110716.326000", "110716.329000", "110716.332000", "110716.335000", "110716.338000", "110716.341000", "110716.344000", "110716.347000", "110716.349000", "110716.352000", "110716.355000", "110716.358000", "110716.361000", "110716.364000", "110716.367000", "110716.370000", "110716.373000", "110716.376000", "110716.379000", "110716.382000", "110716.385000", "110756.308000", "110756.311000", "110756.314000", "110756.317000", "110756.320000", "110756.323000", "110756.326000", "110756.329000", "110756.332000", "110756.335000", "110756.338000", "110756.341000", "110756.344000", "110756.347000", "110756.350000", "110756.353000", "110756.356000", "110756.359000", "110756.362000", "110756.365000", "110756.368000", "110756.371000", "110756.374000", "110756.377000", "110756.380000", "110756.383000", "110756.386000", "110836.307000", "110836.310000", "110836.322000", "110836.324000", "110836.333000", "110836.336000", "110836.339000", "110836.342000", "110836.344000", "110836.347000", "110836.351000", "110836.353000", "110836.356000", "110836.359000", "110836.362000", "110836.365000", "110836.368000", "110836.371000", "110836.374000", "110836.377000", "110836.380000", "110836.383000", "110836.386000", "110836.389000", "110836.392000", "110836.395000", "110836.398000", "110916.307000", "110916.310000", "110916.313000", "110916.316000", "110916.319000", "110916.322000", "110916.325000", "110916.328000", "110916.331000", "110916.334000", "110916.337000", "110916.340000", "110916.343000", "110916.346000", "110916.350000", "110916.353000", "110916.356000", "110916.359000", "110916.362000", "110916.365000", "110916.368000", "110916.371000", "110916.374000", "110916.377000", "110916.380000", "110916.383000", "110956.308000", "110956.311000", "110956.314000", "110956.317000", "110956.320000", "110956.323000", "110956.326000", "110956.329000", "110956.332000", "110956.335000", "110956.338000", "110956.341000", "110956.344000", "110956.347000", "110956.350000", "110956.353000", "110956.356000", "110956.359000", "110956.361000", "110956.365000", "110956.367000", "110956.370000", "110956.373000", "110956.376000", "110956.379000", "110956.382000", "110956.385000", "111036.307000", "111036.310000", "111036.313000", "111036.316000", "111036.319000", "111036.322000", "111036.325000", "111036.328000", "111036.331000", "111036.334000", "111036.337000", "111036.340000", "111036.343000", "111036.346000", "111036.349000", "111036.352000", "111036.355000", "111036.358000", "111036.361000", "111036.364000", "111036.367000", "111036.370000", "111036.373000", "111036.376000", "111036.379000", "111036.382000", "111036.385000", "111116.307000", "111116.310000", "111116.313000", "111116.316000", "111116.319000", "111116.322000", "111116.325000", "111116.328000", "111116.331000", "111116.334000", "111116.337000", "111116.340000", "111116.343000", "111116.346000", "111116.349000", "111116.352000", "111116.355000", "111116.358000", "111116.361000", "111116.364000", "111116.366000", "111116.369000", "111116.372000", "111116.375000", "111116.378000", "111116.381000", "111116.384000", "111156.308000", "111156.311000", "111156.314000", "111156.317000", "111156.320000", "111156.323000", "111156.326000", "111156.329000", "111156.332000", "111156.335000", "111156.338000", "111156.341000", "111156.344000", "111156.347000", "111156.350000", "111156.353000", "111156.356000", "111156.359000", "111156.362000", "111156.365000", "111156.368000", "111156.371000", "111156.374000", "111156.376000", "111156.379000", "111156.382000", "111156.385000", "111236.308000", "111236.311000", "111236.314000", "111236.317000", "111236.320000", "111236.323000", "111236.326000", "111236.329000", "111236.332000", "111236.335000", "111236.338000", "111236.341000", "111236.344000", "111236.347000", "111236.350000", "111236.353000", "111236.356000", "111236.359000", "111236.362000", "111236.364000", "111236.367000", "111236.371000", "111236.374000", "111236.376000", "111236.379000", "111236.382000", "111236.385000", "111316.307000", "111316.310000", "111316.313000", "111316.316000", "111316.319000", "111316.322000", "111316.325000", "111316.328000", "111316.331000", "111316.334000", "111316.337000", "111316.340000", "111316.343000", "111316.346000", "111316.349000", "111316.352000", "111316.355000", "111316.358000", "111316.361000", "111316.365000", "111316.368000", "111316.371000", "111316.374000", "111316.377000", "111316.380000", "111316.383000", "111356.307000", "111356.310000", "111356.313000", "111356.316000", "111356.319000", "111356.322000", "111356.325000", "111356.328000", "111356.331000", "111356.334000", "111356.337000", "111356.340000", "111356.343000", "111356.346000", "111356.349000", "111356.352000", "111356.355000", "111356.358000", "111356.361000", "111356.364000", "111356.367000", "111356.370000", "111356.373000", "111356.376000", "111356.378000", "111356.381000", "111356.384000", "111410.059000", "111410.063000", "111410.066000", "111410.069000", "111410.072000", "111410.075000", "111410.078000", "111410.081000", "111410.084000", "111410.087000"],
