{
  "AcquisitionMatrixPE": 104,
  "AcquisitionNumber": 1,
  "AcquisitionTime": "11:36:9.135000",
  "BandwidthPerPixelPhaseEncode": 17.17,
  "BaseResolution": 104,
  "BodyPartExamined": "BRAIN",
  "CoilCombinationMethod": "Sum of Squares",
  "ConsistencyInfo": "N4_VE11C_LATEST_20160120",
  "ConversionSoftware": "dcm2niix",
  "ConversionSoftwareVersion": "v1.0.20230411",
  "DerivedVendorReportedEchoSpacing": 0.000560011,
  "DeviceSerialNumber": "167006",
  "DwellTime": 2.1e-06,
  "EchoTime": 0.037,
  "EchoTrainLength": 104,
  "EffectiveEchoSpacing": 0.000560011,
  "FlipAngle": 52,
  "HeudiconvVersion": "0.5.3.post861+ge7d3c7f",
  "ImageComments": "Unaliased MB4/PE3/LB",
  "ImageOrientationPatientDICOM": [0.996892, 0.0774533, 0.0144298, -0.0690101, 0.946789, -0.31437],
  "ImageOrientationText": "Tra>Cor(-18.2)>Sag(2.2)",
  "ImageType": [
    "ORIGINAL",
    "PRIMARY",
    "M",
    "MB",
    "ND",
    "MOSAIC"
],
  "ImagingFrequency": 123.249564,
  "InPlanePhaseEncodingDirectionDICOM": "COL",
  "InstitutionAddress": "Chemin Queen-Mary 4565,Montreal,District,CA,H3W 1W5",
  "InstitutionName": "IUGM",
  "InstitutionalDepartmentName": "Department",
  "MRAcquisitionType": "2D",
  "MagneticFieldStrength": 3,
  "Manufacturer": "Siemens",
  "ManufacturersModelName": "Prisma_fit",
  "MatrixCoilMode": "SENSE",
  "Modality": "MR",
  "MultibandAccelerationFactor": 4,
  "NonlinearGradientCorrection": false,
  "PartialFourier": 1,
  "PatientPosition": "HFS",
  "PercentPhaseFOV": 100,
  "PercentSampling": 100,
  "PhaseEncodingDirection": "j",
  "PhaseEncodingSteps": 104,
  "PhaseResolution": 1,
  "PixelBandwidth": 2290,
  "ProcedureStepDescription": "video^friends",
  "ProtocolName": "func_task-friends-s07e22b",
  "PulseSequenceDetails": "%CustomerSeq%\\cmrr_mbep2d_bold",
  "ReceiveCoilActiveElements": "HC1-7;NC1,2",
  "ReceiveCoilName": "HeadNeck_64",
  "ReconMatrixPE": 104,
  "RepetitionTime": 1.49,
  "SAR": 0.0773359,
  "ScanOptions": "FS",
  "ScanningSequence": "EP",
  "SequenceName": "epfid2d1_104",
  "SequenceVariant": "SK\\SS",
  "SeriesDescription": "func_task-friends-s07e22b",
  "SeriesNumber": 16,
  "ShimSetting": [614, -7197, -8779, 655, 117, 12, -86, 71],
  "SliceThickness": 2,
  "SliceTiming": [0, 0.785, 0.0975, 0.8825, 0.195, 0.98, 0.295, 1.0775, 0.3925, 1.175, 0.49, 1.275, 0.5875, 1.3725, 0.685, 0, 0.785, 0.0975, 0.8825, 0.195, 0.98, 0.295, 1.0775, 0.3925, 1.175, 0.49, 1.275, 0.5875, 1.3725, 0.685, 0, 0.785, 0.0975, 0.8825, 0.195, 0.98, 0.295, 1.0775, 0.3925, 1.175, 0.49, 1.275, 0.5875, 1.3725, 0.685, 0, 0.785, 0.0975, 0.8825, 0.195, 0.98, 0.295, 1.0775, 0.3925, 1.175, 0.49, 1.275, 0.5875, 1.3725, 0.685],
  "SoftwareVersions": "syngo MR E11",
  "SpacingBetweenSlices": 2,
  "StationName": "MRC35049",
  "TaskName": "s07e22b",
  "TotalReadoutTime": 0.0576811,
  "TxRefAmp": 296.136,
  "WipMemBlock": "96f950f6-4a4e-4b79-a738-fa33cbe9f869||Sequence: R017 ve11c/master r/75a17815+; Jun 28 2022 16:32:11 by eja",
  "dcmmeta_affine": [
    [-1.9937831163406372, -0.13802020251750946, 0.07602189481258392, 108.13274383544922],
    [-0.1549065262079239, 1.8935774564743042, -0.6247948408126831, -63.02455139160156],
    [0.028859518468379974, 0.6287407875061035, 1.8983814716339111, -52.516170501708984],
    [0.0, 0.0, 0.0, 1.0]
],
  "dcmmeta_reorient_transform": [
    [0.0, -1.0, 0.0, 103.0],
    [1.0, 0.0, 0.0, 0.0],
    [0.0, 0.0, 1.0, 0.0],
    [0.0, 0.0, 0.0, 1.0]
],
  "dcmmeta_shape": [104, 104, 60, 505],
  "dcmmeta_slice_dim": 2,
  "dcmmeta_version": 0.6,
  "global": {
    "const": {
      "AcquisitionMatrix": [104, 0, 0, 104],
      "AngioFlag": "N",
      "BitsAllocated": 16,
      "BitsStored": 16,
      "BodyPartExamined": "BRAIN",
      "Columns": 832,
      "EchoNumbers": 1,
      "EchoTime": 37.0,
      "EchoTrainLength": 104,
      "FlipAngle": 52.0,
      "HighBit": 15,
      "ImageOrientationPatient": [0.99689155581812, 0.07745326322951, 0.01442975930603, -0.0690100995349, 0.94678870533574, -0.3143704082939],
      "ImagePositionPatient": [-769.41436119256, -877.66207564353, 230.60092437074],
      "ImageType": [
        "ORIGINAL",
        "PRIMARY",
        "M",
        "MB",
        "ND",
        "MOSAIC"
],
      "ImagedNucleus": "1H",
      "ImagingFrequency": 123.249564,
      "InPlanePhaseEncodingDirection": "COL",
      "MRAcquisitionType": "2D",
      "MagneticFieldStrength": 3.0,
      "Manufacturer": "SIEMENS",
      "ManufacturerModelName": "Prisma_fit",
      "Modality": "MR",
      "NumberOfAverages": 1.0,
      "NumberOfPhaseEncodingSteps": 104,
      "PercentPhaseFieldOfView": 100.0,
      "PercentSampling": 100.0,
      "PerformedProcedureStepStartTime": "103315.166000",
      "PhotometricInterpretation": "MONOCHROME2",
      "PixelBandwidth": 2290.0,
      "PixelRepresentation": 0,
      "PixelSpacing": [2.0, 2.0],
      "ProtocolName": "func_task-friends-s07e22b",
      "RepetitionTime": 1490.0,
      "Rows": 832,
      "SAR": 0.07733588204214,
      "SamplesPerPixel": 1,
      "ScanOptions": "FS",
      "ScanningSequence": "EP",
      "SequenceName": "epfid2d1_104",
      "SequenceVariant": [
        "SK",
        "SS"
],
      "SeriesDescription": "func_task-friends-s07e22b",
      "SeriesNumber": 16,
      "SeriesTime": "113738.236000",
      "SliceLocation": -26.048929341447,
      "SliceThickness": 2.0,
      "SmallestImagePixelValue": 0,
      "SoftwareVersions": "syngo MR E11",
      "SpacingBetweenSlices": 2.0000000039207,
      "SpecificCharacterSet": "ISO_IR 100",
      "StudyID": "1",
      "StudyTime": "103315.094000",
      "TransmitCoilName": "Body",
      "VariableFlipAngleFlag": "N",
      "WindowCenterWidthExplanation": "Algo1",
      "dBdt": 0.0},
    "slices": {}
  },
  "time": {
    "samples": {
      "AcquisitionNumber": [1, 2, 3, 4, 5, 6, 7, 8, 9, 10, 11, 12, 13, 14, 15, 16, 17, 18, 19, 20, 21, 22, 23, 24, 25, 26, 27, 28, 29, 30, 31, 32, 33, 34, 35, 36, 37, 38, 39, 40, 41, 42, 43, 44, 45, 46, 47, 48, 49, 50, 51, 52, 53, 54, 55, 56, 57, 58, 59, 60, 61, 62, 63, 64, 65, 66, 67, 68, 69, 70, 71, 72, 73, 74, 75, 76, 77, 78, 79, 80, 81, 82, 83, 84, 85, 86, 87, 88, 89, 90, 91, 92, 93, 94, 95, 96, 97, 98, 99, 100, 101, 102, 103, 104, 105, 106, 107, 108, 109, 110, 111, 112, 113, 114, 115, 116, 117, 118, 119, 120, 121, 122, 123, 124, 125, 126, 127, 128, 129, 130, 131, 132, 133, 134, 135, 136, 137, 138, 139, 140, 141, 142, 143, 144, 145, 146, 147, 148, 149, 150, 151, 152, 153, 154, 155, 156, 157, 158, 159, 160, 161, 162, 163, 164, 165, 166, 167, 168, 169, 170, 171, 172, 173, 174, 175, 176, 177, 178, 179, 180, 181, 182, 183, 184, 185, 186, 187, 188, 189, 190, 191, 192, 193, 194, 195, 196, 197, 198, 199, 200, 201, 202, 203, 204, 205, 206, 207, 208, 209, 210, 211, 212, 213, 214, 215, 216, 217, 218, 219, 220, 221, 222, 223, 224, 225, 226, 227, 228, 229, 230, 231, 232, 233, 234, 235, 236, 237, 238, 239, 240, 241, 242, 243, 244, 245, 246, 247, 248, 249, 250, 251, 252, 253, 254, 255, 256, 257, 258, 259, 260, 261, 262, 263, 264, 265, 266, 267, 268, 269, 270, 271, 272, 273, 274, 275, 276, 277, 278, 279, 280, 281, 282, 283, 284, 285, 286, 287, 288, 289, 290, 291, 292, 293, 294, 295, 296, 297, 298, 299, 300, 301, 302, 303, 304, 305, 306, 307, 308, 309, 310, 311, 312, 313, 314, 315, 316, 317, 318, 319, 320, 321, 322, 323, 324, 325, 326, 327, 328, 329, 330, 331, 332, 333, 334, 335, 336, 337, 338, 339, 340, 341, 342, 343, 344, 345, 346, 347, 348, 349, 350, 351, 352, 353, 354, 355, 356, 357, 358, 359, 360, 361, 362, 363, 364, 365, 366, 367, 368, 369, 370, 371, 372, 373, 374, 375, 376, 377, 378, 379, 380, 381, 382, 383, 384, 385, 386, 387, 388, 389, 390, 391, 392, 393, 394, 395, 396, 397, 398, 399, 400, 401, 402, 403, 404, 405, 406, 407, 408, 409, 410, 411, 412, 413, 414, 415, 416, 417, 418, 419, 420, 421, 422, 423, 424, 425, 426, 427, 428, 429, 430, 431, 432, 433, 434, 435, 436, 437, 438, 439, 440, 441, 442, 443, 444, 445, 446, 447, 448, 449, 450, 451, 452, 453, 454, 455, 456, 457, 458, 459, 460, 461, 462, 463, 464, 465, 466, 467, 468, 469, 470, 471, 472, 473, 474, 475, 476, 477, 478, 479, 480, 481, 482, 483, 484, 485, 486, 487, 488, 489, 490, 491, 492, 493, 494, 495, 496, 497, 498, 499, 500, 501, 502, 503, 504, 505],
      "AcquisitionTime": ["113609.135000", "113610.625000", "113612.115000", "113613.605000", "113615.095000", "113616.585000", "113618.075000", "113619.565000", "113621.055000", "113622.545000", "113624.035000", "113625.525000", "113627.015000", "113628.505000", "113629.995000", "113631.485000", "113632.975000", "113634.465000", "113635.955000", "113637.445000", "113638.935000", "113640.425000", "113641.915000", "113643.405000", "113644.895000", "113646.385000", "113647.875000", "113649.365000", "113650.855000", "113652.345000", "113653.835000", "113655.325000", "113656.815000", "113658.305000", "113659.795000", "113701.285000", "113702.775000", "113704.265000", "113705.755000", "113707.245000", "113708.735000", "113710.225000", "113711.715000", "113713.205000", "113714.695000", "113716.185000", "113717.675000", "113719.165000", "113720.655000", "113722.145000", "113723.635000", "113725.125000", "113726.615000", "113728.105000", "113729.595000", "113731.085000", "113732.575000", "113734.065000", "113735.555000", "113737.045000", "113738.535000", "113740.025000", "113741.515000", "113743.005000", "113744.495000", "113745.985000", "113747.475000", "113748.965000", "113750.455000", "113751.945000", "113753.435000", "113754.925000", "113756.415000", "113757.905000", "113759.395000", "113800.885000", "113802.375000", "113803.865000", "113805.355000", "113806.845000", "113808.335000", "113809.825000", "113811.315000", "113812.805000", "113814.295000", "113815.785000", "113817.275000", "113818.765000", "113820.255000", "113821.745000", "113823.235000", "113824.725000", "113826.215000", "113827.705000", "113829.195000", "113830.685000", "113832.175000", "113833.665000", "113835.155000", "113836.645000", "113838.135000", "113839.625000", "113841.115000", "113842.605000", "113844.095000", "113845.585000", "113847.075000", "113848.565000", "113850.055000", "113851.545000", "113853.035000", "113854.525000", "113856.015000", "113857.505000", "113858.995000", "113900.485000", "113901.975000", "113903.465000", "113904.955000", "113906.445000", "113907.935000", "113909.425000", "113910.915000", "113912.405000", "113913.895000", "113915.385000", "113916.875000", "113918.365000", "113919.855000", "113921.345000", "113922.835000", "113924.325000", "113925.815000", "113927.305000", "113928.795000", "113930.285000", "113931.775000", "113933.265000", "113934.755000", "113936.245000", "113937.735000", "113939.225000", "113940.715000", "113942.205000", "113943.695000", "113945.185000", "113946.675000", "113948.165000", "113949.655000", "113951.145000", "113952.635000", "113954.125000", "113955.615000", "113957.105000", "113958.595000", "114000.085000", "114001.575000", "114003.065000", "114004.555000", "114006.045000", "114007.535000", "114009.025000", "114010.515000", "114012.005000", "114013.495000", "114014.985000", "114016.475000", "114017.965000", "114019.455000", "114020.945000", "114022.435000", "114023.925000", "114025.415000", "114026.905000", "114028.395000", "114029.885000", "114031.375000", "114032.865000", "114034.355000", "114035.845000", "114037.335000", "114038.825000", "114040.315000", "114041.805000", "114043.295000", "114044.785000", "114046.275000", "114047.765000", "114049.255000", "114050.745000", "114052.235000", "114053.725000", "114055.215000", "114056.705000", "114058.195000", "114059.685000", "114101.175000", "114102.665000", "114104.155000", "114105.645000", "114107.135000", "114108.625000", "114110.115000", "114111.605000", "114113.095000", "114114.585000", "114116.075000", "114117.565000", "114119.055000", "114120.545000", "114122.035000", "114123.525000", "114125.015000", "114126.505000", "114127.995000", "114129.485000", "114130.975000", "114132.465000", "114133.955000", "114135.445000", "114136.935000", "114138.425000", "114139.915000", "114141.405000", "114142.895000", "114144.385000", "114145.875000", "114147.365000", "114148.855000", "114150.345000", "114151.835000", "114153.325000", "114154.815000", "114156.305000", "114157.795000", "114159.285000", "114200.775000", "114202.265000", "114203.755000", "114205.245000", "114206.735000", "114208.225000", "114209.715000", "114211.205000", "114212.695000", "114214.185000", "114215.675000", "114217.165000", "114218.655000", "114220.145000", "114221.635000", "114223.125000", "114224.615000", "114226.105000", "114227.595000", "114229.085000", "114230.575000", "114232.065000", "114233.555000", "114235.045000", "114236.535000", "114238.025000", "114239.515000", "114241.005000", "114242.495000", "114243.985000", "114245.475000", "114246.965000", "114248.455000", "114249.945000", "114251.435000", "114252.925000", "114254.415000", "114255.905000", "114257.395000", "114258.885000", "114300.375000", "114301.865000", "114303.355000", "114304.845000", "114306.335000", "114307.825000", "114309.315000", "114310.805000", "114312.295000", "114313.785000", "114315.275000", "114316.765000", "114318.255000", "114319.745000", "114321.235000", "114322.725000", "114324.215000", "114325.705000", "114327.195000", "114328.685000", "114330.175000", "114331.665000", "114333.155000", "114334.645000", "114336.135000", "114337.625000", "114339.115000", "114340.605000", "114342.095000", "114343.585000", "114345.075000", "114346.565000", "114348.055000", "114349.545000", "114351.035000", "114352.525000", "114354.015000", "114355.505000", "114356.995000", "114358.485000", "114359.975000", "114401.465000", "114402.955000", "114404.445000", "114405.935000", "114407.425000", "114408.915000", "114410.405000", "114411.895000", "114413.385000", "114414.875000", "114416.365000", "114417.855000", "114419.345000", "114420.835000", "114422.325000", "114423.815000", "114425.305000", "114426.795000", "114428.285000", "114429.775000", "114431.265000", "114432.755000", "114434.245000", "114435.735000", "114437.225000", "114438.715000", "114440.205000", "114441.695000", "114443.185000", "114444.675000", "114446.165000", "114447.655000", "114449.145000", "114450.635000", "114452.125000", "114453.615000", "114455.105000", "114456.595000", "114458.085000", "114459.575000", "114501.065000", "114502.555000", "114504.045000", "114505.535000", "114507.025000", "114508.515000", "114510.005000", "114511.495000", "114512.985000", "114514.475000", "114515.965000", "114517.455000", "114518.945000", "114520.435000", "114521.925000", "114523.415000", "114524.905000", "114526.395000", "114527.885000", "114529.375000", "114530.865000", "114532.355000", "114533.845000", "114535.335000", "114536.825000", "114538.315000", "114539.805000", "114541.295000", "114542.785000", "114544.275000", "114545.765000", "114547.255000", "114548.745000", "114550.235000", "114551.725000", "114553.215000", "114554.705000", "114556.195000", "114557.685000", "114559.175000", "114600.665000", "114602.155000", "114603.645000", "114605.135000", "114606.625000", "114608.115000", "114609.605000", "114611.095000", "114612.585000", "114614.075000", "114615.565000", "114617.055000", "114618.545000", "114620.035000", "114621.525000", "114623.015000", "114624.505000", "114625.995000", "114627.485000", "114628.975000", "114630.465000", "114631.955000", "114633.445000", "114634.935000", "114636.425000", "114637.915000", "114639.405000", "114640.895000", "114642.385000", "114643.875000", "114645.365000", "114646.855000", "114648.345000", "114649.835000", "114651.325000", "114652.815000", "114654.305000", "114655.795000", "114657.285000", "114658.775000", "114700.265000", "114701.755000", "114703.245000", "114704.735000", "114706.225000", "114707.715000", "114709.205000", "114710.695000", "114712.185000", "114713.675000", "114715.165000", "114716.655000", "114718.145000", "114719.635000", "114721.125000", "114722.615000", "114724.105000", "114725.595000", "114727.085000", "114728.575000", "114730.065000", "114731.555000", "114733.045000", "114734.535000", "114736.025000", "114737.515000", "114739.005000", "114740.495000", "114741.985000", "114743.475000", "114744.965000", "114746.455000", "114747.945000", "114749.435000", "114750.925000", "114752.415000", "114753.905000", "114755.395000", "114756.885000", "114758.375000", "114759.865000", "114801.355000", "114802.845000", "114804.335000", "114805.825000", "114807.315000", "114808.805000", "114810.295000", "114811.785000", "114813.275000", "114814.765000", "114816.255000", "114817.745000", "114819.235000", "114820.725000", "114822.215000", "114823.705000", "114825.195000", "114826.685000", "114828.175000", "114829.665000", "114831.155000", "114832.645000", "114834.135000", "114835.625000", "114837.115000", "114838.605000", "114840.095000"],
      "ContentTime": ["113738.239000", "113738.243000", "113738.246000", "113738.249000", "113738.252000", "113738.255000", "113738.258000", "113738.261000", "113738.264000", "113738.267000", "113738.269000", "113738.272000", "113738.276000", "113738.278000", "113738.281000", "113738.284000", "113738.287000", "113738.290000", "113738.293000", "113738.296000", "113738.299000", "113738.302000", "113738.305000", "113738.308000", "113738.317000", "113738.320000", "113738.322000", "113738.325000", "113738.328000", "113738.331000", "113738.334000", "113738.337000", "113738.340000", "113738.343000", "113738.346000", "113738.349000", "113738.352000", "113738.354000", "113738.357000", "113758.204000", "113758.207000", "113758.210000", "113758.213000", "113758.225000", "113758.228000", "113758.231000", "113758.234000", "113758.237000", "113758.240000", "113758.243000", "113758.246000", "113758.249000", "113758.252000", "113758.255000", "113758.258000", "113758.261000", "113758.264000", "113758.267000", "113758.270000", "113818.204000", "113818.207000", "113818.210000", "113818.213000", "113818.216000", "113818.219000", "113818.222000", "113818.225000", "113818.228000", "113818.231000", "113818.234000", "113818.237000", "113818.240000", "113818.243000", "113818.246000", "113818.249000", "113818.252000", "113818.254000", "113818.257000", "113818.260000", "113838.204000", "113838.207000", "113838.210000", "113838.213000", "113838.216000", "113838.219000", "113838.222000", "113838.225000", "113838.228000", "113838.231000", "113838.233000", "113838.237000", "113838.239000", "113838.252000", "113838.255000", "113838.258000", "113838.261000", "113838.264000", "113838.267000", "113838.270000", "113918.204000", "113918.207000", "113918.210000", "113918.213000", "113918.216000", "113918.219000", "113918.222000", "113918.225000", "113918.228000", "113918.231000", "113918.234000", "113918.237000", "113918.240000", "113918.243000", "113918.246000", "113918.249000", "113918.252000", "113918.255000", "113918.258000", "113918.260000", "113918.264000", "113918.267000", "113918.269000", "113918.272000", "113918.275000", "113918.278000", "113918.281000", "113958.204000", "113958.207000", "113958.210000", "113958.213000", "113958.216000", "113958.219000", "113958.222000", "113958.225000", "113958.228000", "113958.231000", "113958.234000", "113958.237000", "113958.240000", "113958.243000", "113958.246000", "113958.249000", "113958.252000", "113958.255000", "113958.258000", "113958.261000", "113958.264000", "113958.267000", "113958.270000", "113958.273000", "113958.276000", "113958.279000", "113958.282000", "114038.204000", "114038.208000", "114038.211000", "114038.214000", "114038.217000", "114038.220000", "114038.223000", "114038.226000", "114038.229000", "114038.232000", "114038.235000", "114038.238000", "114038.241000", "114038.249000", "114038.252000", "114038.255000", "114038.258000", "114038.261000", "114038.264000", "114038.267000", "114038.270000", "114038.273000", "114038.276000", "114038.279000", "114038.282000", "114038.285000", "114038.288000", "114118.204000", "114118.207000", "114118.210000", "114118.213000", "114118.216000", "114118.219000", "114118.222000", "114118.225000", "114118.228000", "114118.231000", "114118.235000", "114118.239000", "114118.243000", "114118.246000", "114118.249000", "114118.252000", "114118.255000", "114118.258000", "114118.261000", "114118.264000", "114118.267000", "114118.270000", "114118.279000", "114118.282000", "114118.284000", "114118.287000", "114158.204000", "114158.207000", "114158.210000", "114158.213000", "114158.216000", "114158.219000", "114158.222000", "114158.225000", "114158.228000", "114158.231000", "114158.234000", "114158.237000", "114158.240000", "114158.243000", "114158.246000", "114158.249000", "114158.252000", "114158.255000", "114158.258000", "114158.261000", "114158.264000", "114158.267000", "114158.270000", "114158.273000", "114158.276000", "114158.279000", "114158.281000", "114238.204000", "114238.207000", "114238.210000", "114238.213000", "114238.216000", "114238.219000", "114238.222000", "114238.225000", "114238.228000", "114238.231000", "114238.234000", "114238.237000", "114238.240000", "114238.243000", "114238.246000", "114238.249000", "114238.252000", "114238.255000", "114238.258000", "114238.261000", "114238.264000", "114238.267000", "114238.270000", "114238.273000", "114238.275000", "114238.278000", "114238.281000", "114318.204000", "114318.207000", "114318.210000", "114318.213000", "114318.216000", "114318.219000", "114318.222000", "114318.225000", "114318.228000", "114318.231000", "114318.234000", "114318.237000", "114318.240000", "114318.242000", "114318.246000", "114318.248000", "114318.251000", "114318.254000", "114318.257000", "114318.260000", "114318.263000", "114318.280000", "114318.283000", "114318.286000", "114318.289000", "114318.292000", "114318.295000", "114358.204000", "114358.207000", "114358.210000", "114358.213000", "114358.216000", "114358.219000", "114358.222000", "114358.225000", "114358.228000", "114358.231000", "114358.234000", "114358.237000", "114358.240000", "114358.243000", "114358.246000", "114358.249000", "114358.252000", "114358.255000", "114358.258000", "114358.261000", "114358.264000", "114358.267000", "114358.270000", "114358.273000", "114358.276000", "114358.279000", "114358.282000", "114438.204000", "114438.207000", "114438.210000", "114438.213000", "114438.222000", "114438.225000", "114438.228000", "114438.231000", "114438.234000", "114438.237000", "114438.240000", "114438.243000", "114438.246000", "114438.249000", "114438.252000", "114438.255000", "114438.258000", "114438.261000", "114438.264000", "114438.267000", "114438.270000", "114438.273000", "114438.276000", "114438.279000", "114438.282000", "114438.285000", "114438.287000", "114518.204000", "114518.207000", "114518.210000", "114518.213000", "114518.216000", "114518.219000", "114518.222000", "114518.225000", "114518.228000", "114518.231000", "114518.234000", "114518.237000", "114518.240000", "114518.243000", "114518.246000", "114518.249000", "114518.252000", "114518.255000", "114518.257000", "114518.261000", "114518.263000", "114518.266000", "114518.269000", "114518.272000", "114518.275000", "114518.278000", "114518.281000", "114558.204000", "114558.207000", "114558.210000", "114558.213000", "114558.217000", "114558.220000", "114558.223000", "114558.226000", "114558.229000", "114558.232000", "114558.235000", "114558.238000", "114558.241000", "114558.244000", "114558.247000", "114558.250000", "114558.253000", "114558.256000", "114558.259000", "114558.262000", "114558.265000", "114558.268000", "114558.271000", "114558.274000", "114558.277000", "114558.280000", "114638.204000", "114638.207000", "114638.210000", "114638.213000", "114638.216000", "114638.219000", "114638.222000", "114638.225000", "114638.228000", "114638.231000", "114638.234000", "114638.237000", "114638.240000", "114638.243000", "114638.246000", "114638.249000", "114638.263000", "114638.266000", "114638.269000", "114638.271000", "114638.275000", "114638.278000", "114638.280000", "114638.283000", "114638.286000", "114638.289000", "114638.292000", "114718.204000", "114718.207000", "114718.210000", "114718.213000", "114718.216000", "114718.219000", "114718.222000", "114718.225000", "114718.228000", "114718.231000", "114718.234000", "114718.237000", "114718.240000", "114718.243000", "114718.246000", "114718.249000", "114718.252000", "114718.255000", "114718.257000", "114718.261000", "114718.264000", "114718.267000", "114718.270000", "114718.273000", "114718.275000", "114718.278000", "114718.281000", "114758.204000", "114758.207000", "114758.210000", "114758.213000", "114758.216000", "114758.219000", "114758.222000", "114758.225000", "114758.228000", "114758.231000", "114758.234000", "114758.237000", "114758.240000", "114758.243000", "114758.246000", "114758.249000", "114758.253000", "114758.257000", "114758.261000", "114758.264000", "114758.267000", "114758.281000", "114758.284000", "114758.287000", "114758.290000", "114758.293000", "114758.296000", "114838.204000", "114838.207000", "114838.210000", "114838.213000", "114838.216000", "114838.219000", "114838.222000", "114838.225000", "114838.228000", "114838.231000", "114838.234000", "114838.237000", "114838.240000", "114838.243000", "114838.246000", "114838.249000", "114838.252000", "114838.255000", "114838.258000", "114838.261000", "114838.264000", "114838.267000", "114838.270000", "114838.273000", "114838.276000", "114838.279000", "114838.282000", "114842.294000", "114842.297000", "114842.300000"],
