{
  "AcquisitionMatrixPE": 104,
  "AcquisitionNumber": 1,
  "AcquisitionTime": "16:27:40.255000",
  "BandwidthPerPixelPhaseEncode": 17.17,
  "BaseResolution": 104,
  "BodyPartExamined": "BRAIN",
  "CoilCombinationMethod": "Sum of Squares",
  "ConsistencyInfo": "N4_VE11C_LATEST_20160120",
  "ConversionSoftware": "dcm2niix",
  "ConversionSoftwareVersion": "v1.0.20211006",
  "DerivedVendorReportedEchoSpacing": 0.000560011,
  "DeviceSerialNumber": "167006",
  "DwellTime": 2.1e-06,
  "EchoTime": 0.037,
  "EchoTrainLength": 104,
  "EffectiveEchoSpacing": 0.000560011,
  "FlipAngle": 52,
  "HeudiconvVersion": "0.11.3.post9+gc939bf8",
  "ImageComments": "Unaliased MB4/PE3/LB",
  "ImageOrientationPatientDICOM": [0.999515, -0.0189187, -0.0247347, 0.00959489, 0.942753, -0.333355],
  "ImageOrientationText": "Tra>Cor(-19.5)>Sag(-1.7)",
  "ImageType": [
    "ORIGINAL",
    "PRIMARY",
    "M",
    "MB",
    "ND",
    "MOSAIC"
],
  "ImagingFrequency": 123.259,
  "InPlanePhaseEncodingDirectionDICOM": "COL",
  "InstitutionAddress": "Chemin Queen-Mary 4565,Montreal,District,CA,H3W 1W5",
  "InstitutionName": "IUGM",
  "InstitutionalDepartmentName": "Department",
  "MRAcquisitionType": "2D",
  "MagneticFieldStrength": 3,
  "Manufacturer": "Siemens",
  "ManufacturersModelName": "Prisma_fit",
  "MatrixCoilMode": "SENSE",
  "Modality": "MR",
  "MultibandAccelerationFactor": 4,
  "PartialFourier": 1,
  "PatientPosition": "HFS",
  "PercentPhaseFOV": 100,
  "PercentSampling": 100,
  "PhaseEncodingDirection": "j",
  "PhaseEncodingSteps": 104,
  "PhaseResolution": 1,
  "PixelBandwidth": 2290,
  "ProcedureStepDescription": "video^friends",
  "ProtocolName": "func_task-friends-s06e10a",
  "PulseSequenceDetails": "%CustomerSeq%\\cmrr_mbep2d_bold",
  "ReceiveCoilActiveElements": "HC1-7;NC1,2",
  "ReceiveCoilName": "HeadNeck_64",
  "ReconMatrixPE": 104,
  "RepetitionTime": 1.49,
  "SAR": 0.0379847,
  "ScanOptions": "FS",
  "ScanningSequence": "EP",
  "SequenceName": "epfid2d1_104",
  "SequenceVariant": "SK\\SS",
  "SeriesDescription": "func_task-friends-s06e10a",
  "SeriesNumber": 13,
  "ShimSetting": [622, -7253, -8821, 576, -11, -241, -45, -24],
  "SliceThickness": 2,
  "SliceTiming": [0, 0.785, 0.0975, 0.8825, 0.1975, 0.98, 0.295, 1.0775, 0.3925, 1.1775, 0.49, 1.275, 0.5875, 1.3725, 0.6875, 0, 0.785, 0.0975, 0.8825, 0.1975, 0.98, 0.295, 1.0775, 0.3925, 1.1775, 0.49, 1.275, 0.5875, 1.3725, 0.6875, 0, 0.785, 0.0975, 0.8825, 0.1975, 0.98, 0.295, 1.0775, 0.3925, 1.1775, 0.49, 1.275, 0.5875, 1.3725, 0.6875, 0, 0.785, 0.0975, 0.8825, 0.1975, 0.98, 0.295, 1.0775, 0.3925, 1.1775, 0.49, 1.275, 0.5875, 1.3725, 0.6875],
  "SoftwareVersions": "syngo MR E11",
  "SpacingBetweenSlices": 2,
  "StationName": "MRC35049",
  "TaskName": "s06e10a",
  "TotalReadoutTime": 0.0576811,
  "TxRefAmp": 235.418,
  "WipMemBlock": "dfa983ec-b82f-4ce5-862c-655500f16bc9||Sequence: R016 ve11c/master r/e634e98; Dec 19 2017 11:00:25 by eja",
  "dcmmeta_affine": [
    [-1.9990299940109253, 0.019189774990081787, -0.0592506118118763, 102.22936248779297],
    [0.037837397307157516, 1.885505199432373, -0.6659116148948669, -75.64193725585938],
    [-0.049469321966171265, 0.6667096018791199, 1.8849538564682007, -64.50433349609375],
    [0.0, 0.0, 0.0, 1.0]
],
  "dcmmeta_reorient_transform": [
    [0.0, -1.0, 0.0, 103.0],
    [1.0, 0.0, 0.0, 0.0],
    [0.0, 0.0, 1.0, 0.0],
    [0.0, 0.0, 0.0, 1.0]
],
  "dcmmeta_shape": [104, 104, 60, 466],
  "dcmmeta_slice_dim": 2,
  "dcmmeta_version": 0.6,
  "global": {
    "const": {
      "AcquisitionMatrix": [104, 0, 0, 104],
      "AngioFlag": "N",
      "BitsAllocated": 16,
      "BitsStored": 16,
      "BodyPartExamined": "BRAIN",
      "Columns": 832,
      "EchoNumbers": 1,
      "EchoTime": 37.0,
      "EchoTrainLength": 104,
      "FlipAngle": 52.0,
      "HighBit": 15,
      "ImageOrientationPatient": [0.99951502210781, -0.0189186979113, -0.0247346609064, 0.00959488718588, 0.94275262308769, -0.3333548106765],
      "ImagePositionPatient": [-838.83792007442, -791.11619964809, 264.85588972833],
      "ImageType": [
        "ORIGINAL",
        "PRIMARY",
        "M",
        "MB",
        "ND",
        "MOSAIC"
],
      "ImagedNucleus": "1H",
      "ImagingFrequency": 123.258812,
      "InPlanePhaseEncodingDirection": "COL",
      "MRAcquisitionType": "2D",
      "MagneticFieldStrength": 3.0,
      "Manufacturer": "SIEMENS",
      "ManufacturerModelName": "Prisma_fit",
      "Modality": "MR",
      "NumberOfAverages": 1.0,
      "NumberOfPhaseEncodingSteps": 104,
      "PercentPhaseFieldOfView": 100.0,
      "PercentSampling": 100.0,
      "PerformedProcedureStepStartTime": "152508.309000",
      "PhotometricInterpretation": "MONOCHROME2",
      "PixelBandwidth": 2290.0,
      "PixelRepresentation": 0,
      "PixelSpacing": [2.0, 2.0],
      "ProtocolName": "func_task-friends-s06e10a",
      "RepetitionTime": 1490.0,
      "Rows": 832,
      "SAR": 0.03798472875046,
      "SamplesPerPixel": 1,
      "ScanOptions": "FS",
      "ScanningSequence": "EP",
      "SequenceName": "epfid2d1_104",
      "SequenceVariant": [
        "SK",
        "SS"
],
      "SeriesDescription": "func_task-friends-s06e10a",
      "SeriesNumber": 13,
      "SeriesTime": "162908.766000",
      "SliceLocation": -38.637002046231,
      "SliceThickness": 2.0,
      "SmallestImagePixelValue": 0,
      "SoftwareVersions": "syngo MR E11",
      "SpacingBetweenSlices": 1.9999999764024,
      "SpecificCharacterSet": "ISO_IR 100",
      "StudyID": "1",
      "StudyTime": "152508.235000",
      "TransmitCoilName": "Body",
      "VariableFlipAngleFlag": "N",
      "WindowCenterWidthExplanation": "Algo1",
      "dBdt": 0.0},
    "slices": {}
  },
  "time": {
    "samples": {
      "AcquisitionNumber": [1, 2, 3, 4, 5, 6, 7, 8, 9, 10, 11, 12, 13, 14, 15, 16, 17, 18, 19, 20, 21, 22, 23, 24, 25, 26, 27, 28, 29, 30, 31, 32, 33, 34, 35, 36, 37, 38, 39, 40, 41, 42, 43, 44, 45, 46, 47, 48, 49, 50, 51, 52, 53, 54, 55, 56, 57, 58, 59, 60, 61, 62, 63, 64, 65, 66, 67, 68, 69, 70, 71, 72, 73, 74, 75, 76, 77, 78, 79, 80, 81, 82, 83, 84, 85, 86, 87, 88, 89, 90, 91, 92, 93, 94, 95, 96, 97, 98, 99, 100, 101, 102, 103, 104, 105, 106, 107, 108, 109, 110, 111, 112, 113, 114, 115, 116, 117, 118, 119, 120, 121, 122, 123, 124, 125, 126, 127, 128, 129, 130, 131, 132, 133, 134, 135, 136, 137, 138, 139, 140, 141, 142, 143, 144, 145, 146, 147, 148, 149, 150, 151, 152, 153, 154, 155, 156, 157, 158, 159, 160, 161, 162, 163, 164, 165, 166, 167, 168, 169, 170, 171, 172, 173, 174, 175, 176, 177, 178, 179, 180, 181, 182, 183, 184, 185, 186, 187, 188, 189, 190, 191, 192, 193, 194, 195, 196, 197, 198, 199, 200, 201, 202, 203, 204, 205, 206, 207, 208, 209, 210, 211, 212, 213, 214, 215, 216, 217, 218, 219, 220, 221, 222, 223, 224, 225, 226, 227, 228, 229, 230, 231, 232, 233, 234, 235, 236, 237, 238, 239, 240, 241, 242, 243, 244, 245, 246, 247, 248, 249, 250, 251, 252, 253, 254, 255, 256, 257, 258, 259, 260, 261, 262, 263, 264, 265, 266, 267, 268, 269, 270, 271, 272, 273, 274, 275, 276, 277, 278, 279, 280, 281, 282, 283, 284, 285, 286, 287, 288, 289, 290, 291, 292, 293, 294, 295, 296, 297, 298, 299, 300, 301, 302, 303, 304, 305, 306, 307, 308, 309, 310, 311, 312, 313, 314, 315, 316, 317, 318, 319, 320, 321, 322, 323, 324, 325, 326, 327, 328, 329, 330, 331, 332, 333, 334, 335, 336, 337, 338, 339, 340, 341, 342, 343, 344, 345, 346, 347, 348, 349, 350, 351, 352, 353, 354, 355, 356, 357, 358, 359, 360, 361, 362, 363, 364, 365, 366, 367, 368, 369, 370, 371, 372, 373, 374, 375, 376, 377, 378, 379, 380, 381, 382, 383, 384, 385, 386, 387, 388, 389, 390, 391, 392, 393, 394, 395, 396, 397, 398, 399, 400, 401, 402, 403, 404, 405, 406, 407, 408, 409, 410, 411, 412, 413, 414, 415, 416, 417, 418, 419, 420, 421, 422, 423, 424, 425, 426, 427, 428, 429, 430, 431, 432, 433, 434, 435, 436, 437, 438, 439, 440, 441, 442, 443, 444, 445, 446, 447, 448, 449, 450, 451, 452, 453, 454, 455, 456, 457, 458, 459, 460, 461, 462, 463, 464, 465, 466],
      "AcquisitionTime": ["162740.255000", "162741.745000", "162743.235000", "162744.725000", "162746.215000", "162747.705000", "162749.195000", "162750.685000", "162752.175000", "162753.665000", "162755.155000", "162756.645000", "162758.135000", "162759.625000", "162801.115000", "162802.605000", "162804.095000", "162805.585000", "162807.075000", "162808.565000", "162810.055000", "162811.545000", "162813.035000", "162814.525000", "162816.015000", "162817.505000", "162818.995000", "162820.485000", "162821.975000", "162823.465000", "162824.955000", "162826.445000", "162827.935000", "162829.425000", "162830.915000", "162832.405000", "162833.895000", "162835.385000", "162836.875000", "162838.365000", "162839.855000", "162841.345000", "162842.835000", "162844.325000", "162845.815000", "162847.305000", "162848.795000", "162850.285000", "162851.775000", "162853.265000", "162854.755000", "162856.245000", "162857.735000", "162859.225000", "162900.715000", "162902.205000", "162903.695000", "162905.185000", "162906.675000", "162908.165000", "162909.655000", "162911.145000", "162912.635000", "162914.125000", "162915.615000", "162917.105000", "162918.595000", "162920.085000", "162921.575000", "162923.065000", "162924.555000", "162926.045000", "162927.535000", "162929.025000", "162930.515000", "162932.005000", "162933.495000", "162934.985000", "162936.475000", "162937.965000", "162939.455000", "162940.945000", "162942.435000", "162943.925000", "162945.415000", "162946.905000", "162948.395000", "162949.885000", "162951.375000", "162952.865000", "162954.355000", "162955.845000", "162957.335000", "162958.825000", "163000.315000", "163001.805000", "163003.295000", "163004.785000", "163006.275000", "163007.765000", "163009.255000", "163010.745000", "163012.235000", "163013.725000", "163015.215000", "163016.705000", "163018.195000", "163019.685000", "163021.175000", "163022.665000", "163024.155000", "163025.645000", "163027.135000", "163028.625000", "163030.115000", "163031.605000", "163033.095000", "163034.585000", "163036.075000", "163037.565000", "163039.055000", "163040.545000", "163042.035000", "163043.525000", "163045.015000", "163046.505000", "163047.995000", "163049.485000", "163050.975000", "163052.465000", "163053.955000", "163055.445000", "163056.935000", "163058.425000", "163059.915000", "163101.405000", "163102.895000", "163104.385000", "163105.875000", "163107.365000", "163108.855000", "163110.345000", "163111.835000", "163113.325000", "163114.815000", "163116.305000", "163117.795000", "163119.285000", "163120.775000", "163122.265000", "163123.755000", "163125.245000", "163126.735000", "163128.225000", "163129.715000", "163131.205000", "163132.695000", "163134.185000", "163135.675000", "163137.165000", "163138.655000", "163140.145000", "163141.635000", "163143.125000", "163144.615000", "163146.105000", "163147.595000", "163149.085000", "163150.575000", "163152.065000", "163153.555000", "163155.045000", "163156.535000", "163158.025000", "163159.515000", "163201.005000", "163202.495000", "163203.985000", "163205.475000", "163206.965000", "163208.455000", "163209.945000", "163211.435000", "163212.925000", "163214.415000", "163215.905000", "163217.395000", "163218.885000", "163220.375000", "163221.865000", "163223.355000", "163224.845000", "163226.335000", "163227.825000", "163229.315000", "163230.805000", "163232.295000", "163233.785000", "163235.275000", "163236.765000", "163238.255000", "163239.745000", "163241.235000", "163242.725000", "163244.215000", "163245.705000", "163247.195000", "163248.685000", "163250.175000", "163251.665000", "163253.155000", "163254.645000", "163256.135000", "163257.625000", "163259.115000", "163300.605000", "163302.095000", "163303.585000", "163305.075000", "163306.565000", "163308.055000", "163309.545000", "163311.035000", "163312.525000", "163314.015000", "163315.505000", "163316.995000", "163318.485000", "163319.975000", "163321.465000", "163322.955000", "163324.445000", "163325.935000", "163327.425000", "163328.915000", "163330.405000", "163331.895000", "163333.385000", "163334.875000", "163336.365000", "163337.855000", "163339.345000", "163340.835000", "163342.325000", "163343.815000", "163345.305000", "163346.795000", "163348.285000", "163349.775000", "163351.265000", "163352.755000", "163354.245000", "163355.735000", "163357.225000", "163358.715000", "163400.205000", "163401.695000", "163403.185000", "163404.675000", "163406.165000", "163407.655000", "163409.145000", "163410.635000", "163412.125000", "163413.615000", "163415.105000", "163416.595000", "163418.085000", "163419.575000", "163421.065000", "163422.555000", "163424.045000", "163425.535000", "163427.025000", "163428.515000", "163430.005000", "163431.495000", "163432.985000", "163434.475000", "163435.965000", "163437.455000", "163438.945000", "163440.435000", "163441.925000", "163443.415000", "163444.905000", "163446.395000", "163447.885000", "163449.375000", "163450.865000", "163452.355000", "163453.845000", "163455.335000", "163456.825000", "163458.315000", "163459.805000", "163501.295000", "163502.785000", "163504.275000", "163505.765000", "163507.255000", "163508.745000", "163510.235000", "163511.725000", "163513.215000", "163514.705000", "163516.195000", "163517.685000", "163519.175000", "163520.665000", "163522.155000", "163523.645000", "163525.135000", "163526.625000", "163528.115000", "163529.605000", "163531.095000", "163532.585000", "163534.075000", "163535.565000", "163537.055000", "163538.545000", "163540.035000", "163541.525000", "163543.015000", "163544.505000", "163545.995000", "163547.485000", "163548.975000", "163550.465000", "163551.955000", "163553.445000", "163554.935000", "163556.425000", "163557.915000", "163559.405000", "163600.895000", "163602.385000", "163603.875000", "163605.365000", "163606.855000", "163608.345000", "163609.835000", "163611.325000", "163612.815000", "163614.305000", "163615.795000", "163617.285000", "163618.775000", "163620.265000", "163621.755000", "163623.245000", "163624.735000", "163626.225000", "163627.715000", "163629.205000", "163630.695000", "163632.185000", "163633.675000", "163635.165000", "163636.655000", "163638.145000", "163639.635000", "163641.125000", "163642.615000", "163644.105000", "163645.595000", "163647.085000", "163648.575000", "163650.065000", "163651.555000", "163653.045000", "163654.535000", "163656.025000", "163657.515000", "163659.005000", "163700.495000", "163701.985000", "163703.475000", "163704.965000", "163706.455000", "163707.945000", "163709.435000", "163710.925000", "163712.415000", "163713.905000", "163715.395000", "163716.885000", "163718.375000", "163719.865000", "163721.355000", "163722.845000", "163724.335000", "163725.825000", "163727.315000", "163728.805000", "163730.295000", "163731.785000", "163733.275000", "163734.765000", "163736.255000", "163737.745000", "163739.235000", "163740.725000", "163742.215000", "163743.705000", "163745.195000", "163746.685000", "163748.175000", "163749.665000", "163751.155000", "163752.645000", "163754.135000", "163755.625000", "163757.115000", "163758.605000", "163800.095000", "163801.585000", "163803.075000", "163804.565000", "163806.055000", "163807.545000", "163809.035000", "163810.525000", "163812.015000", "163813.505000", "163814.995000", "163816.485000", "163817.975000", "163819.465000", "163820.955000", "163822.445000", "163823.935000", "163825.425000", "163826.915000", "163828.405000", "163829.895000", "163831.385000", "163832.875000", "163834.365000", "163835.855000", "163837.345000", "163838.835000", "163840.325000", "163841.815000", "163843.305000", "163844.795000", "163846.285000", "163847.775000", "163849.265000", "163850.755000", "163852.245000", "163853.735000", "163855.225000", "163856.715000", "163858.205000", "163859.695000", "163901.185000", "163902.675000", "163904.165000", "163905.655000", "163907.145000", "163908.635000", "163910.125000", "163911.615000", "163913.105000"],
      "ContentTime": ["162908.770000", "162908.773000", "162908.776000", "162908.779000", "162908.782000", "162908.785000", "162908.787000", "162908.790000", "162908.793000", "162908.796000", "162908.799000", "162908.802000", "162908.805000", "162908.808000", "162908.811000", "162908.814000", "162908.816000", "162908.819000", "162908.822000", "162908.832000", "162908.835000", "162908.837000", "162908.840000", "162908.843000", "162908.846000", "162908.849000", "162908.852000", "162908.855000", "162908.858000", "162908.861000", "162908.864000", "162928.737000", "162928.740000", "162928.743000", "162928.746000", "162928.748000", "162928.751000", "162928.754000", "162928.757000", "162928.760000", "162928.763000", "162928.766000", "162928.769000", "162928.772000", "162928.774000", "162928.777000", "162928.780000", "162928.783000", "162928.786000", "162928.789000", "162928.792000", "162948.737000", "162948.745000", "162948.748000", "162948.751000", "162948.754000", "162948.757000", "162948.760000", "162948.762000", "162948.765000", "162948.768000", "162948.771000", "162948.774000", "162948.777000", "162948.793000", "162948.796000", "162948.799000", "162948.802000", "162948.805000", "162948.808000", "162948.811000", "163008.737000", "163008.740000", "163008.743000", "163008.746000", "163008.749000", "163008.752000", "163008.755000", "163008.758000", "163008.761000", "163008.763000", "163008.766000", "163008.769000", "163008.772000", "163008.775000", "163008.778000", "163008.781000", "163008.784000", "163008.787000", "163008.789000", "163008.796000", "163008.799000", "163028.736000", "163028.739000", "163028.742000", "163028.745000", "163028.748000", "163028.750000", "163028.754000", "163028.756000", "163028.759000", "163028.762000", "163028.765000", "163028.768000", "163028.771000", "163028.774000", "163028.777000", "163028.780000", "163028.783000", "163028.785000", "163028.788000", "163028.791000", "163108.737000", "163108.740000", "163108.743000", "163108.746000", "163108.749000", "163108.752000", "163108.755000", "163108.757000", "163108.760000", "163108.763000", "163108.766000", "163108.769000", "163108.772000", "163108.775000", "163108.778000", "163108.781000", "163108.784000", "163108.787000", "163108.789000", "163108.792000", "163108.795000", "163108.798000", "163108.801000", "163108.804000", "163108.807000", "163108.810000", "163108.813000", "163148.737000", "163148.740000", "163148.743000", "163148.746000", "163148.749000", "163148.752000", "163148.755000", "163148.757000", "163148.760000", "163148.763000", "163148.766000", "163148.769000", "163148.772000", "163148.775000", "163148.778000", "163148.781000", "163148.784000", "163148.786000", "163148.789000", "163148.792000", "163148.795000", "163148.798000", "163148.801000", "163148.804000", "163148.807000", "163148.810000", "163148.812000", "163228.737000", "163228.741000", "163228.744000", "163228.747000", "163228.749000", "163228.752000", "163228.755000", "163228.758000", "163228.761000", "163228.764000", "163228.767000", "163228.770000", "163228.773000", "163228.776000", "163228.779000", "163228.782000", "163228.785000", "163228.787000", "163228.790000", "163228.793000", "163228.796000", "163228.799000", "163228.802000", "163228.805000", "163228.808000", "163228.811000", "163308.737000", "163308.740000", "163308.743000", "163308.746000", "163308.749000", "163308.752000", "163308.755000", "163308.758000", "163308.760000", "163308.763000", "163308.766000", "163308.769000", "163308.772000", "163308.775000", "163308.778000", "163308.781000", "163308.784000", "163308.787000", "163308.790000", "163308.793000", "163308.796000", "163308.799000", "163308.801000", "163308.804000", "163308.807000", "163308.810000", "163308.813000", "163348.737000", "163348.740000", "163348.743000", "163348.746000", "163348.749000", "163348.752000", "163348.755000", "163348.758000", "163348.761000", "163348.764000", "163348.767000", "163348.770000", "163348.773000", "163348.776000", "163348.779000", "163348.782000", "163348.784000", "163348.787000", "163348.790000", "163348.793000", "163348.796000", "163348.799000", "163348.802000", "163348.805000", "163348.808000", "163348.810000", "163348.813000", "163428.737000", "163428.740000", "163428.743000", "163428.746000", "163428.749000", "163428.752000", "163428.755000", "163428.758000", "163428.761000", "163428.763000", "163428.766000", "163428.769000", "163428.772000", "163428.775000", "163428.793000", "163428.796000", "163428.799000", "163428.802000", "163428.805000", "163428.808000", "163428.810000", "163428.813000", "163428.816000", "163428.819000", "163428.822000", "163428.825000", "163428.828000", "163448.737000", "163448.740000", "163448.743000", "163448.746000", "163448.749000", "163448.752000", "163448.755000", "163448.758000", "163448.761000", "163448.764000", "163448.767000", "163448.769000", "163448.772000", "163528.737000", "163528.740000", "163528.743000", "163528.746000", "163528.749000", "163528.752000", "163528.755000", "163528.758000", "163528.761000", "163528.764000", "163528.767000", "163528.770000", "163528.772000", "163528.775000", "163528.778000", "163528.781000", "163528.784000", "163528.787000", "163528.790000", "163528.793000", "163528.796000", "163528.799000", "163528.802000", "163528.805000", "163528.807000", "163528.810000", "163528.813000", "163608.737000", "163608.740000", "163608.743000", "163608.746000", "163608.749000", "163608.752000", "163608.755000", "163608.758000", "163608.761000", "163608.764000", "163608.766000", "163608.769000", "163608.772000", "163608.775000", "163608.778000", "163608.781000", "163608.784000", "163608.787000", "163608.790000", "163608.793000", "163608.795000", "163608.798000", "163608.801000", "163608.804000", "163608.807000", "163608.810000", "163608.813000", "163648.737000", "163648.740000", "163648.743000", "163648.746000", "163648.749000", "163648.752000", "163648.755000", "163648.758000", "163648.761000", "163648.764000", "163648.766000", "163648.769000", "163648.772000", "163648.775000", "163648.778000", "163648.781000", "163648.784000", "163648.787000", "163648.790000", "163648.793000", "163648.796000", "163648.799000", "163648.802000", "163648.804000", "163648.807000", "163648.810000", "163648.813000", "163728.736000", "163728.739000", "163728.742000", "163728.745000", "163728.748000", "163728.751000", "163728.754000", "163728.757000", "163728.760000", "163728.763000", "163728.765000", "163728.769000", "163728.771000", "163728.774000", "163728.777000", "163728.780000", "163728.783000", "163728.786000", "163728.789000", "163728.792000", "163728.795000", "163728.798000", "163728.801000", "163728.804000", "163728.806000", "163728.809000", "163728.812000", "163808.737000", "163808.740000", "163808.743000", "163808.746000", "163808.749000", "163808.752000", "163808.755000", "163808.758000", "163808.761000", "163808.763000", "163808.766000", "163808.770000", "163808.772000", "163808.775000", "163808.778000", "163808.781000", "163808.784000", "163808.787000", "163808.790000", "163808.793000", "163808.796000", "163808.799000", "163808.802000", "163808.805000", "163808.808000", "163808.810000", "163808.813000", "163848.737000", "163848.740000", "163848.743000", "163848.746000", "163848.749000", "163848.752000", "163848.755000", "163848.758000", "163848.761000", "163848.764000", "163848.779000", "163848.782000", "163848.785000", "163848.788000", "163848.791000", "163848.794000", "163848.797000", "163848.800000", "163848.803000", "163848.806000", "163848.809000", "163848.812000", "163848.815000", "163848.818000", "163848.821000", "163848.824000", "163915.694000", "163915.697000", "163915.700000", "163915.703000", "163915.706000", "163915.709000", "163915.712000", "163915.715000", "163915.718000", "163915.721000", "163915.724000", "163915.728000", "163915.731000", "163915.734000", "163915.737000", "163915.740000", "163915.743000", "163915.746000", "163915.749000"],
