{
  "AcquisitionMatrixPE": 104,
  "AcquisitionNumber": 1,
  "AcquisitionTime": "16:40:48.772500",
  "BandwidthPerPixelPhaseEncode": 17.17,
  "BaseResolution": 104,
  "BodyPartExamined": "BRAIN",
  "CoilCombinationMethod": "Sum of Squares",
  "ConsistencyInfo": "N4_VE11C_LATEST_20160120",
  "ConversionSoftware": "dcm2niix",
  "ConversionSoftwareVersion": "v1.0.20211006",
  "DerivedVendorReportedEchoSpacing": 0.000560011,
  "DeviceSerialNumber": "167006",
  "DwellTime": 2.1e-06,
  "EchoTime": 0.037,
  "EchoTrainLength": 104,
  "EffectiveEchoSpacing": 0.000560011,
  "FlipAngle": 52,
  "HeudiconvVersion": "0.11.3.post9+gc939bf8",
  "ImageComments": "Unaliased MB4/PE3/LB",
  "ImageOrientationPatientDICOM": [0.999515, -0.0189187, -0.0247347, 0.00959489, 0.942753, -0.333355],
  "ImageOrientationText": "Tra>Cor(-19.5)>Sag(-1.7)",
  "ImageType": [
    "ORIGINAL",
    "PRIMARY",
    "M",
    "MB",
    "ND",
    "MOSAIC"
],
  "ImagingFrequency": 123.259,
  "InPlanePhaseEncodingDirectionDICOM": "COL",
  "InstitutionAddress": "Chemin Queen-Mary 4565,Montreal,District,CA,H3W 1W5",
  "InstitutionName": "IUGM",
  "InstitutionalDepartmentName": "Department",
  "MRAcquisitionType": "2D",
  "MagneticFieldStrength": 3,
  "Manufacturer": "Siemens",
  "ManufacturersModelName": "Prisma_fit",
  "MatrixCoilMode": "SENSE",
  "Modality": "MR",
  "MultibandAccelerationFactor": 4,
  "PartialFourier": 1,
  "PatientPosition": "HFS",
  "PercentPhaseFOV": 100,
  "PercentSampling": 100,
  "PhaseEncodingDirection": "j",
  "PhaseEncodingSteps": 104,
  "PhaseResolution": 1,
  "PixelBandwidth": 2290,
  "ProcedureStepDescription": "video^friends",
  "ProtocolName": "func_task-friends-s06e10b",
  "PulseSequenceDetails": "%CustomerSeq%\\cmrr_mbep2d_bold",
  "ReceiveCoilActiveElements": "HC1-7;NC1,2",
  "ReceiveCoilName": "HeadNeck_64",
  "ReconMatrixPE": 104,
  "RepetitionTime": 1.49,
  "SAR": 0.0379957,
  "ScanOptions": "FS",
  "ScanningSequence": "EP",
  "SequenceName": "epfid2d1_104",
  "SequenceVariant": "SK\\SS",
  "SeriesDescription": "func_task-friends-s06e10b",
  "SeriesNumber": 15,
  "ShimSetting": [622, -7253, -8821, 576, -11, -241, -45, -24],
  "SliceThickness": 2,
  "SliceTiming": [0, 0.785, 0.0975, 0.8825, 0.195, 0.98, 0.295, 1.0775, 0.3925, 1.175, 0.49, 1.275, 0.5875, 1.3725, 0.685, 0, 0.785, 0.0975, 0.8825, 0.195, 0.98, 0.295, 1.0775, 0.3925, 1.175, 0.49, 1.275, 0.5875, 1.3725, 0.685, 0, 0.785, 0.0975, 0.8825, 0.195, 0.98, 0.295, 1.0775, 0.3925, 1.175, 0.49, 1.275, 0.5875, 1.3725, 0.685, 0, 0.785, 0.0975, 0.8825, 0.195, 0.98, 0.295, 1.0775, 0.3925, 1.175, 0.49, 1.275, 0.5875, 1.3725, 0.685],
  "SoftwareVersions": "syngo MR E11",
  "SpacingBetweenSlices": 2,
  "StationName": "MRC35049",
  "TaskName": "s06e10b",
  "TotalReadoutTime": 0.0576811,
  "TxRefAmp": 235.418,
  "WipMemBlock": "58f61608-5f01-4326-a32e-3396ba491fc1||Sequence: R016 ve11c/master r/e634e98; Dec 19 2017 11:00:25 by eja",
  "dcmmeta_affine": [
    [-1.9990299940109253, 0.019189774990081787, -0.0592506118118763, 102.22936248779297],
    [0.037837397307157516, 1.885505199432373, -0.6659116148948669, -75.64193725585938],
    [-0.049469321966171265, 0.6667096018791199, 1.8849538564682007, -64.50433349609375],
    [0.0, 0.0, 0.0, 1.0]
],
  "dcmmeta_reorient_transform": [
    [0.0, -1.0, 0.0, 103.0],
    [1.0, 0.0, 0.0, 0.0],
    [0.0, 0.0, 1.0, 0.0],
    [0.0, 0.0, 0.0, 1.0]
],
  "dcmmeta_shape": [104, 104, 60, 500],
  "dcmmeta_slice_dim": 2,
  "dcmmeta_version": 0.6,
  "global": {
    "const": {
      "AcquisitionMatrix": [104, 0, 0, 104],
      "AngioFlag": "N",
      "BitsAllocated": 16,
      "BitsStored": 16,
      "BodyPartExamined": "BRAIN",
      "Columns": 832,
      "EchoNumbers": 1,
      "EchoTime": 37.0,
      "EchoTrainLength": 104,
      "FlipAngle": 52.0,
      "HighBit": 15,
      "ImageOrientationPatient": [0.99951502210781, -0.0189186979113, -0.0247346609064, 0.00959488718588, 0.94275262308769, -0.3333548106765],
      "ImagePositionPatient": [-838.83792007442, -791.11619964809, 264.85588972833],
      "ImageType": [
        "ORIGINAL",
        "PRIMARY",
        "M",
        "MB",
        "ND",
        "MOSAIC"
],
      "ImagedNucleus": "1H",
      "ImagingFrequency": 123.258816,
      "InPlanePhaseEncodingDirection": "COL",
      "MRAcquisitionType": "2D",
      "MagneticFieldStrength": 3.0,
      "Manufacturer": "SIEMENS",
      "ManufacturerModelName": "Prisma_fit",
      "Modality": "MR",
      "NumberOfAverages": 1.0,
      "NumberOfPhaseEncodingSteps": 104,
      "PercentPhaseFieldOfView": 100.0,
      "PercentSampling": 100.0,
      "PerformedProcedureStepStartTime": "152508.309000",
      "PhotometricInterpretation": "MONOCHROME2",
      "PixelBandwidth": 2290.0,
      "PixelRepresentation": 0,
      "PixelSpacing": [2.0, 2.0],
      "ProtocolName": "func_task-friends-s06e10b",
      "RepetitionTime": 1490.0,
      "Rows": 832,
      "SAR": 0.03799568650412,
      "SamplesPerPixel": 1,
      "ScanOptions": "FS",
      "ScanningSequence": "EP",
      "SequenceName": "epfid2d1_104",
      "SequenceVariant": [
        "SK",
        "SS"
],
      "SeriesDescription": "func_task-friends-s06e10b",
      "SeriesNumber": 15,
      "SeriesTime": "164206.591000",
      "SliceLocation": -38.637002046231,
      "SliceThickness": 2.0,
      "SmallestImagePixelValue": 0,
      "SoftwareVersions": "syngo MR E11",
      "SpacingBetweenSlices": 1.9999999764024,
      "SpecificCharacterSet": "ISO_IR 100",
      "StudyID": "1",
      "StudyTime": "152508.235000",
      "TransmitCoilName": "Body",
      "VariableFlipAngleFlag": "N",
      "WindowCenterWidthExplanation": "Algo1",
      "dBdt": 0.0},
    "slices": {}
  },
  "time": {
    "samples": {
      "AcquisitionNumber": [1, 2, 3, 4, 5, 6, 7, 8, 9, 10, 11, 12, 13, 14, 15, 16, 17, 18, 19, 20, 21, 22, 23, 24, 25, 26, 27, 28, 29, 30, 31, 32, 33, 34, 35, 36, 37, 38, 39, 40, 41, 42, 43, 44, 45, 46, 47, 48, 49, 50, 51, 52, 53, 54, 55, 56, 57, 58, 59, 60, 61, 62, 63, 64, 65, 66, 67, 68, 69, 70, 71, 72, 73, 74, 75, 76, 77, 78, 79, 80, 81, 82, 83, 84, 85, 86, 87, 88, 89, 90, 91, 92, 93, 94, 95, 96, 97, 98, 99, 100, 101, 102, 103, 104, 105, 106, 107, 108, 109, 110, 111, 112, 113, 114, 115, 116, 117, 118, 119, 120, 121, 122, 123, 124, 125, 126, 127, 128, 129, 130, 131, 132, 133, 134, 135, 136, 137, 138, 139, 140, 141, 142, 143, 144, 145, 146, 147, 148, 149, 150, 151, 152, 153, 154, 155, 156, 157, 158, 159, 160, 161, 162, 163, 164, 165, 166, 167, 168, 169, 170, 171, 172, 173, 174, 175, 176, 177, 178, 179, 180, 181, 182, 183, 184, 185, 186, 187, 188, 189, 190, 191, 192, 193, 194, 195, 196, 197, 198, 199, 200, 201, 202, 203, 204, 205, 206, 207, 208, 209, 210, 211, 212, 213, 214, 215, 216, 217, 218, 219, 220, 221, 222, 223, 224, 225, 226, 227, 228, 229, 230, 231, 232, 233, 234, 235, 236, 237, 238, 239, 240, 241, 242, 243, 244, 245, 246, 247, 248, 249, 250, 251, 252, 253, 254, 255, 256, 257, 258, 259, 260, 261, 262, 263, 264, 265, 266, 267, 268, 269, 270, 271, 272, 273, 274, 275, 276, 277, 278, 279, 280, 281, 282, 283, 284, 285, 286, 287, 288, 289, 290, 291, 292, 293, 294, 295, 296, 297, 298, 299, 300, 301, 302, 303, 304, 305, 306, 307, 308, 309, 310, 311, 312, 313, 314, 315, 316, 317, 318, 319, 320, 321, 322, 323, 324, 325, 326, 327, 328, 329, 330, 331, 332, 333, 334, 335, 336, 337, 338, 339, 340, 341, 342, 343, 344, 345, 346, 347, 348, 349, 350, 351, 352, 353, 354, 355, 356, 357, 358, 359, 360, 361, 362, 363, 364, 365, 366, 367, 368, 369, 370, 371, 372, 373, 374, 375, 376, 377, 378, 379, 380, 381, 382, 383, 384, 385, 386, 387, 388, 389, 390, 391, 392, 393, 394, 395, 396, 397, 398, 399, 400, 401, 402, 403, 404, 405, 406, 407, 408, 409, 410, 411, 412, 413, 414, 415, 416, 417, 418, 419, 420, 421, 422, 423, 424, 425, 426, 427, 428, 429, 430, 431, 432, 433, 434, 435, 436, 437, 438, 439, 440, 441, 442, 443, 444, 445, 446, 447, 448, 449, 450, 451, 452, 453, 454, 455, 456, 457, 458, 459, 460, 461, 462, 463, 464, 465, 466, 467, 468, 469, 470, 471, 472, 473, 474, 475, 476, 477, 478, 479, 480, 481, 482, 483, 484, 485, 486, 487, 488, 489, 490, 491, 492, 493, 494, 495, 496, 497, 498, 499, 500],
      "AcquisitionTime": ["164048.772500", "164050.262500", "164051.752500", "164053.242500", "164054.732500", "164056.222500", "164057.712500", "164059.202500", "164100.692500", "164102.182500", "164103.672500", "164105.162500", "164106.652500", "164108.142500", "164109.632500", "164111.122500", "164112.612500", "164114.102500", "164115.592500", "164117.082500", "164118.572500", "164120.062500", "164121.552500", "164123.042500", "164124.532500", "164126.022500", "164127.512500", "164129.002500", "164130.492500", "164131.982500", "164133.472500", "164134.962500", "164136.452500", "164137.942500", "164139.432500", "164140.922500", "164142.412500", "164143.902500", "164145.392500", "164146.882500", "164148.372500", "164149.862500", "164151.352500", "164152.842500", "164154.332500", "164155.822500", "164157.312500", "164158.802500", "164200.292500", "164201.782500", "164203.272500", "164204.762500", "164206.252500", "164207.742500", "164209.232500", "164210.722500", "164212.212500", "164213.702500", "164215.192500", "164216.682500", "164218.172500", "164219.662500", "164221.152500", "164222.642500", "164224.132500", "164225.622500", "164227.112500", "164228.602500", "164230.092500", "164231.582500", "164233.072500", "164234.562500", "164236.052500", "164237.542500", "164239.032500", "164240.522500", "164242.012500", "164243.502500", "164244.992500", "164246.482500", "164247.972500", "164249.462500", "164250.952500", "164252.442500", "164253.932500", "164255.422500", "164256.912500", "164258.402500", "164259.892500", "164301.382500", "164302.872500", "164304.362500", "164305.852500", "164307.342500", "164308.832500", "164310.322500", "164311.812500", "164313.302500", "164314.792500", "164316.282500", "164317.772500", "164319.262500", "164320.752500", "164322.242500", "164323.732500", "164325.222500", "164326.712500", "164328.202500", "164329.692500", "164331.182500", "164332.672500", "164334.162500", "164335.652500", "164337.142500", "164338.632500", "164340.122500", "164341.612500", "164343.102500", "164344.592500", "164346.082500", "164347.572500", "164349.062500", "164350.552500", "164352.042500", "164353.532500", "164355.022500", "164356.512500", "164358.002500", "164359.492500", "164400.982500", "164402.472500", "164403.962500", "164405.452500", "164406.942500", "164408.432500", "164409.922500", "164411.412500", "164412.902500", "164414.392500", "164415.882500", "164417.372500", "164418.862500", "164420.352500", "164421.842500", "164423.332500", "164424.822500", "164426.312500", "164427.802500", "164429.292500", "164430.782500", "164432.272500", "164433.762500", "164435.252500", "164436.742500", "164438.232500", "164439.722500", "164441.212500", "164442.702500", "164444.192500", "164445.682500", "164447.172500", "164448.662500", "164450.152500", "164451.642500", "164453.132500", "164454.622500", "164456.112500", "164457.602500", "164459.092500", "164500.582500", "164502.072500", "164503.562500", "164505.052500", "164506.542500", "164508.032500", "164509.522500", "164511.012500", "164512.502500", "164513.992500", "164515.482500", "164516.972500", "164518.462500", "164519.952500", "164521.442500", "164522.932500", "164524.422500", "164525.912500", "164527.402500", "164528.892500", "164530.382500", "164531.872500", "164533.362500", "164534.852500", "164536.342500", "164537.832500", "164539.322500", "164540.812500", "164542.302500", "164543.792500", "164545.282500", "164546.772500", "164548.262500", "164549.752500", "164551.242500", "164552.732500", "164554.222500", "164555.712500", "164557.202500", "164558.692500", "164600.182500", "164601.672500", "164603.162500", "164604.652500", "164606.142500", "164607.632500", "164609.122500", "164610.612500", "164612.102500", "164613.592500", "164615.082500", "164616.572500", "164618.062500", "164619.552500", "164621.042500", "164622.532500", "164624.022500", "164625.512500", "164627.002500", "164628.492500", "164629.982500", "164631.472500", "164632.962500", "164634.452500", "164635.942500", "164637.432500", "164638.922500", "164640.412500", "164641.902500", "164643.392500", "164644.882500", "164646.372500", "164647.862500", "164649.352500", "164650.842500", "164652.332500", "164653.822500", "164655.312500", "164656.802500", "164658.292500", "164659.782500", "164701.272500", "164702.762500", "164704.252500", "164705.742500", "164707.232500", "164708.722500", "164710.212500", "164711.702500", "164713.192500", "164714.682500", "164716.172500", "164717.662500", "164719.152500", "164720.642500", "164722.132500", "164723.622500", "164725.112500", "164726.602500", "164728.092500", "164729.582500", "164731.072500", "164732.562500", "164734.052500", "164735.542500", "164737.032500", "164738.522500", "164740.012500", "164741.502500", "164742.992500", "164744.482500", "164745.972500", "164747.462500", "164748.952500", "164750.442500", "164751.932500", "164753.422500", "164754.912500", "164756.402500", "164757.892500", "164759.382500", "164800.872500", "164802.362500", "164803.852500", "164805.342500", "164806.832500", "164808.322500", "164809.812500", "164811.302500", "164812.792500", "164814.282500", "164815.772500", "164817.262500", "164818.752500", "164820.242500", "164821.732500", "164823.222500", "164824.712500", "164826.202500", "164827.692500", "164829.182500", "164830.672500", "164832.162500", "164833.652500", "164835.142500", "164836.632500", "164838.122500", "164839.612500", "164841.102500", "164842.592500", "164844.082500", "164845.572500", "164847.062500", "164848.552500", "164850.042500", "164851.532500", "164853.022500", "164854.512500", "164856.002500", "164857.492500", "164858.982500", "164900.472500", "164901.962500", "164903.452500", "164904.942500", "164906.432500", "164907.922500", "164909.412500", "164910.902500", "164912.392500", "164913.882500", "164915.372500", "164916.862500", "164918.352500", "164919.842500", "164921.332500", "164922.822500", "164924.312500", "164925.802500", "164927.292500", "164928.782500", "164930.272500", "164931.762500", "164933.252500", "164934.742500", "164936.232500", "164937.722500", "164939.212500", "164940.702500", "164942.192500", "164943.682500", "164945.172500", "164946.662500", "164948.152500", "164949.642500", "164951.132500", "164952.622500", "164954.112500", "164955.602500", "164957.092500", "164958.582500", "165000.072500", "165001.562500", "165003.052500", "165004.542500", "165006.032500", "165007.522500", "165009.012500", "165010.502500", "165011.992500", "165013.482500", "165014.972500", "165016.462500", "165017.952500", "165019.442500", "165020.932500", "165022.422500", "165023.912500", "165025.402500", "165026.892500", "165028.382500", "165029.872500", "165031.362500", "165032.852500", "165034.342500", "165035.832500", "165037.322500", "165038.812500", "165040.302500", "165041.792500", "165043.282500", "165044.772500", "165046.262500", "165047.752500", "165049.242500", "165050.732500", "165052.222500", "165053.712500", "165055.202500", "165056.692500", "165058.182500", "165059.672500", "165101.162500", "165102.652500", "165104.142500", "165105.632500", "165107.122500", "165108.612500", "165110.102500", "165111.592500", "165113.082500", "165114.572500", "165116.062500", "165117.552500", "165119.042500", "165120.532500", "165122.022500", "165123.512500", "165125.002500", "165126.492500", "165127.982500", "165129.472500", "165130.962500", "165132.452500", "165133.942500", "165135.432500", "165136.922500", "165138.412500", "165139.902500", "165141.392500", "165142.882500", "165144.372500", "165145.862500", "165147.352500", "165148.842500", "165150.332500", "165151.822500", "165153.312500", "165154.802500", "165156.292500", "165157.782500", "165159.272500", "165200.762500", "165202.252500", "165203.742500", "165205.232500", "165206.722500", "165208.212500", "165209.702500", "165211.192500", "165212.682500", "165214.172500", "165215.662500", "165217.152500", "165218.642500", "165220.132500", "165221.622500", "165223.112500", "165224.602500", "165226.092500", "165227.582500", "165229.072500", "165230.562500", "165232.052500", "165233.542500", "165235.032500", "165236.522500", "165238.012500", "165239.502500", "165240.992500", "165242.482500", "165243.972500", "165245.462500", "165246.952500", "165248.442500", "165249.932500", "165251.422500", "165252.912500", "165254.402500", "165255.892500", "165257.382500", "165258.872500", "165300.362500", "165301.852500", "165303.342500", "165304.832500", "165306.322500", "165307.812500", "165309.302500", "165310.792500", "165312.282500"],
      "ContentTime": ["164206.593000", "164206.597000", "164206.600000", "164206.603000", "164206.606000", "164206.616000", "164206.619000", "164206.622000", "164206.624000", "164206.627000", "164206.630000", "164206.633000", "164206.636000", "164206.639000", "164206.642000", "164206.645000", "164206.647000", "164206.650000", "164206.654000", "164206.657000", "164206.659000", "164206.662000", "164206.674000", "164206.676000", "164226.556000", "164226.559000", "164226.562000", "164226.565000", "164226.568000", "164226.571000", "164226.573000", "164226.576000", "164226.579000", "164226.582000", "164226.585000", "164226.588000", "164226.591000", "164226.594000", "164226.597000", "164226.600000", "164226.602000", "164226.605000", "164226.608000", "164226.611000", "164246.556000", "164246.559000", "164246.562000", "164246.565000", "164246.568000", "164246.571000", "164246.574000", "164246.577000", "164246.579000", "164246.582000", "164246.585000", "164246.588000", "164246.591000", "164246.594000", "164246.597000", "164246.600000", "164246.602000", "164246.605000", "164246.608000", "164246.611000", "164306.556000", "164306.560000", "164306.563000", "164306.566000", "164306.569000", "164306.572000", "164306.575000", "164306.578000", "164306.580000", "164306.583000", "164306.586000", "164306.589000", "164306.592000", "164306.595000", "164306.598000", "164306.601000", "164306.604000", "164306.606000", "164306.609000", "164306.612000", "164326.556000", "164326.559000", "164326.562000", "164326.565000", "164326.568000", "164326.571000", "164326.574000", "164326.577000", "164326.579000", "164326.582000", "164326.585000", "164326.588000", "164326.591000", "164326.594000", "164326.597000", "164326.600000", "164326.603000", "164326.605000", "164326.608000", "164326.611000", "164326.614000", "164406.556000", "164406.559000", "164406.562000", "164406.565000", "164406.568000", "164406.571000", "164406.574000", "164406.577000", "164406.590000", "164406.593000", "164406.596000", "164406.599000", "164406.602000", "164406.605000", "164406.608000", "164406.611000", "164406.614000", "164406.616000", "164406.619000", "164406.622000", "164406.625000", "164406.628000", "164406.631000", "164406.634000", "164406.651000", "164406.654000", "164406.657000", "164446.556000", "164446.559000", "164446.562000", "164446.565000", "164446.568000", "164446.571000", "164446.574000", "164446.577000", "164446.580000", "164446.582000", "164446.585000", "164446.588000", "164446.591000", "164446.594000", "164446.597000", "164446.600000", "164446.603000", "164446.606000", "164446.609000", "164446.611000", "164446.614000", "164446.617000", "164446.620000", "164446.623000", "164446.626000", "164446.629000", "164446.632000", "164526.556000", "164526.559000", "164526.562000", "164526.565000", "164526.568000", "164526.571000", "164526.574000", "164526.580000", "164526.583000", "164526.585000", "164526.588000", "164526.591000", "164526.594000", "164526.597000", "164526.600000", "164526.603000", "164526.606000", "164526.609000", "164526.612000", "164526.614000", "164526.617000", "164526.620000", "164526.623000", "164526.626000", "164526.629000", "164526.632000", "164526.635000", "164606.556000", "164606.559000", "164606.562000", "164606.565000", "164606.568000", "164606.571000", "164606.574000", "164606.577000", "164606.580000", "164606.582000", "164606.585000", "164606.588000", "164606.591000", "164606.594000", "164606.598000", "164606.602000", "164606.605000", "164606.608000", "164606.623000", "164606.626000", "164606.629000", "164606.632000", "164606.635000", "164606.638000", "164606.641000", "164606.644000", "164646.556000", "164646.559000", "164646.562000", "164646.565000", "164646.568000", "164646.571000", "164646.574000", "164646.577000", "164646.580000", "164646.583000", "164646.586000", "164646.588000", "164646.591000", "164646.594000", "164646.597000", "164646.600000", "164646.603000", "164646.606000", "164646.609000", "164646.612000", "164646.615000", "164646.618000", "164646.620000", "164646.623000", "164646.626000", "164646.629000", "164646.632000", "164726.556000", "164726.559000", "164726.562000", "164726.565000", "164726.568000", "164726.571000", "164726.574000", "164726.577000", "164726.580000", "164726.588000", "164726.591000", "164726.594000", "164726.597000", "164726.600000", "164726.603000", "164726.606000", "164726.609000", "164726.612000", "164726.615000", "164726.617000", "164726.620000", "164726.623000", "164726.626000", "164726.629000", "164726.632000", "164726.635000", "164726.638000", "164806.556000", "164806.559000", "164806.562000", "164806.565000", "164806.568000", "164806.571000", "164806.574000", "164806.577000", "164806.580000", "164806.583000", "164806.586000", "164806.588000", "164806.591000", "164806.594000", "164806.597000", "164806.600000", "164806.603000", "164806.606000", "164806.609000", "164806.612000", "164806.615000", "164806.618000", "164806.620000", "164806.623000", "164806.626000", "164806.629000", "164806.632000", "164846.556000", "164846.559000", "164846.562000", "164846.565000", "164846.568000", "164846.571000", "164846.574000", "164846.577000", "164846.580000", "164846.583000", "164846.586000", "164846.588000", "164846.591000", "164846.594000", "164846.597000", "164846.600000", "164846.603000", "164846.606000", "164846.609000", "164846.612000", "164846.615000", "164846.618000", "164846.620000", "164846.623000", "164846.626000", "164846.629000", "164846.632000", "164926.556000", "164926.559000", "164926.562000", "164926.565000", "164926.568000", "164926.571000", "164926.595000", "164926.598000", "164926.601000", "164926.604000", "164926.607000", "164926.610000", "164926.612000", "164926.615000", "164926.618000", "164926.621000", "164926.624000", "164926.627000", "164926.630000", "164926.633000", "164926.636000", "164926.639000", "164926.642000", "164926.645000", "164926.647000", "164926.650000", "164926.653000", "165006.556000", "165006.559000", "165006.562000", "165006.565000", "165006.568000", "165006.571000", "165006.574000", "165006.577000", "165006.580000", "165006.583000", "165006.586000", "165006.589000", "165006.591000", "165006.594000", "165006.597000", "165006.600000", "165006.603000", "165006.606000", "165006.609000", "165006.613000", "165006.616000", "165006.619000", "165006.622000", "165006.625000", "165006.628000", "165006.631000", "165046.556000", "165046.559000", "165046.562000", "165046.565000", "165046.568000", "165046.571000", "165046.574000", "165046.577000", "165046.580000", "165046.583000", "165046.586000", "165046.588000", "165046.591000", "165046.594000", "165046.597000", "165046.600000", "165046.603000", "165046.606000", "165046.609000", "165046.612000", "165046.615000", "165046.618000", "165046.620000", "165046.623000", "165046.626000", "165046.629000", "165046.632000", "165126.556000", "165126.559000", "165126.562000", "165126.565000", "165126.568000", "165126.571000", "165126.574000", "165126.577000", "165126.580000", "165126.583000", "165126.586000", "165126.589000", "165126.591000", "165126.594000", "165126.597000", "165126.600000", "165126.603000", "165126.606000", "165126.609000", "165126.612000", "165126.615000", "165126.618000", "165126.621000", "165126.624000", "165126.627000", "165126.629000", "165126.632000", "165206.556000", "165206.559000", "165206.562000", "165206.565000", "165206.568000", "165206.571000", "165206.574000", "165206.577000", "165206.580000", "165206.583000", "165206.586000", "165206.588000", "165206.591000", "165206.594000", "165206.597000", "165206.600000", "165206.603000", "165206.606000", "165206.609000", "165206.612000", "165206.615000", "165206.618000", "165206.621000", "165206.624000", "165206.626000", "165206.629000", "165206.632000", "165246.556000", "165246.559000", "165246.562000", "165246.565000", "165246.568000", "165246.571000", "165246.574000", "165246.577000", "165246.579000", "165246.582000", "165246.585000", "165246.588000", "165246.591000", "165246.594000", "165246.597000", "165246.600000", "165246.603000", "165246.606000", "165246.609000", "165246.612000", "165246.615000", "165246.618000", "165246.621000", "165246.623000", "165246.626000", "165246.629000", "165246.632000", "165314.394000", "165314.397000", "165314.400000", "165314.403000", "165314.406000", "165314.409000", "165314.412000", "165314.415000", "165314.418000", "165314.421000", "165314.424000", "165314.427000", "165314.429000", "165314.432000", "165314.436000", "165314.448000", "165314.451000", "165314.454000", "165314.457000"],
