{
  "AcquisitionMatrixPE": 104,
  "AcquisitionNumber": 1,
  "AcquisitionTime": "14:55:36.082500",
  "BandwidthPerPixelPhaseEncode": 17.17,
  "BaseResolution": 104,
  "BodyPartExamined": "BRAIN",
  "CoilString": "HC1-7;NC1_2",
  "ConsistencyInfo": "N4_VE11C_LATEST_20160120",
  "ConversionSoftware": "dcm2niix",
  "ConversionSoftwareVersion": "v1.0.20190720  (JP2:OpenJPEG) GCC7.3.0",
  "DerivedVendorReportedEchoSpacing": 0.000560011,
  "DeviceSerialNumber": "167006",
  "DwellTime": 2.1e-06,
  "EchoTime": 0.037,
  "EchoTrainLength": 104,
  "EffectiveEchoSpacing": 0.000560011,
  "FlipAngle": 52,
  "ImageComments": "Unaliased_MB4_PE3_LB",
  "ImageOrientationPatientDICOM": [0.998515, -0.053771, -0.00874053, 0.0469141, 0.930312, -0.363757],
  "ImageType": [
    "ORIGINAL",
    "PRIMARY",
    "M",
    "MB",
    "ND",
    "MOSAIC"
],
  "ImagingFrequency": 123.259,
  "InPlanePhaseEncodingDirectionDICOM": "COL",
  "InstitutionAddress": "Chemin_Queen-Mary_4565_Montreal_District_CA_H3W_1W5",
  "InstitutionName": "IUGM",
  "InstitutionalDepartmentName": "Department",
  "MRAcquisitionType": "2D",
  "MagneticFieldStrength": 3,
  "Manufacturer": "Siemens",
  "ManufacturersModelName": "Prisma_fit",
  "Modality": "MR",
  "MultibandAccelerationFactor": 4,
  "PartialFourier": 1,
  "PatientPosition": "HFS",
  "PercentPhaseFOV": 100,
  "PhaseEncodingDirection": "j",
  "PhaseEncodingSteps": 104,
  "PhaseResolution": 1,
  "PixelBandwidth": 2290,
  "ProcedureStepDescription": "video_friends",
  "ProtocolName": "func_task-friends-s01e24b",
  "PulseSequenceDetails": "%CustomerSeq%_cmrr_mbep2d_bold",
  "ReceiveCoilActiveElements": "HC1-7;NC1,2",
  "ReceiveCoilName": "HeadNeck_64",
  "ReconMatrixPE": 104,
  "RepetitionTime": 1.49,
  "SAR": 0.0264881,
  "ScanOptions": "FS",
  "ScanningSequence": "EP",
  "SequenceName": "epfid2d1_104",
  "SequenceVariant": "SK_SS",
  "SeriesDescription": "func_task-friends-s01e24b",
  "SeriesNumber": 9,
  "ShimSetting": [629, -7262, -8815, 626, 10, -237, -85, -6],
  "SliceThickness": 2,
  "SliceTiming": [0, 0.785, 0.0975, 0.8825, 0.195, 0.98, 0.295, 1.0775, 0.3925, 1.175, 0.49, 1.275, 0.5875, 1.3725, 0.685, 0, 0.785, 0.0975, 0.8825, 0.195, 0.98, 0.295, 1.0775, 0.3925, 1.175, 0.49, 1.275, 0.5875, 1.3725, 0.685, 0, 0.785, 0.0975, 0.8825, 0.195, 0.98, 0.295, 1.0775, 0.3925, 1.175, 0.49, 1.275, 0.5875, 1.3725, 0.685, 0, 0.785, 0.0975, 0.8825, 0.195, 0.98, 0.295, 1.0775, 0.3925, 1.175, 0.49, 1.275, 0.5875, 1.3725, 0.685],
  "SoftwareVersions": "syngo_MR_E11",
  "SpacingBetweenSlices": 2,
  "StationName": "MRC35049",
  "TaskName": "friends",
  "TotalReadoutTime": 0.0576811,
  "TxRefAmp": 217.589,
  "WipMemBlock": "6570f896-c698-40c0-b8c2-8d661857cd87||Sequence: R016 ve11c/master r/e634e98; Dec 19 2017 11:00:25 by eja",
  "dcmmeta_affine": [
    [-1.9970300197601318, 0.09382814168930054, -0.05538198724389076, 98.11275482177734],
    [0.10754206776618958, 1.8606237173080444, -0.725612998008728, -76.70418548583984],
    [-0.017481060698628426, 0.7275134325027466, 1.8629059791564941, -63.5787239074707],
    [0.0, 0.0, 0.0, 1.0]
],
  "dcmmeta_reorient_transform": [
    [0.0, -1.0, 0.0, 103.0],
    [1.0, 0.0, 0.0, 0.0],
    [0.0, 0.0, 1.0, 0.0],
    [0.0, 0.0, 0.0, 1.0]
],
  "dcmmeta_shape": [104, 104, 60, 515],
  "dcmmeta_slice_dim": 2,
  "dcmmeta_version": 0.6,
  "global": {
    "const": {
      "AcquisitionMatrix": [104, 0, 0, 104],
      "AngioFlag": "N",
      "BitsAllocated": 16,
      "BitsStored": 16,
      "BodyPartExamined": "BRAIN",
      "Columns": 832,
      "EchoNumbers": 1,
      "EchoTime": 37.0,
      "EchoTrainLength": 104,
      "FlipAngle": 52.0,
      "HighBit": 15,
      "ImageOrientationPatient": [0.99851503693429, -0.0537710344615, -0.0087405302503, 0.04691406928808, 0.93031184293732, -0.3637567112692],
      "ImagePositionPatient": [-868.84944468216, -753.06176069632, 282.53315103492],
      "ImageType": [
        "ORIGINAL",
        "PRIMARY",
        "M",
        "MB",
        "ND",
        "MOSAIC"
],
      "ImagedNucleus": "1H",
      "ImagingFrequency": 123.259097,
      "InPlanePhaseEncodingDirection": "COL",
      "MRAcquisitionType": "2D",
      "MagneticFieldStrength": 3.0,
      "Manufacturer": "SIEMENS",
      "ManufacturerModelName": "Prisma_fit",
      "Modality": "MR",
      "NumberOfAverages": 1.0,
      "NumberOfPhaseEncodingSteps": 104,
      "PercentPhaseFieldOfView": 100.0,
      "PercentSampling": 100.0,
      "PerformedProcedureStepStartTime": "143955.817000",
      "PhotometricInterpretation": "MONOCHROME2",
      "PixelBandwidth": 2290.0,
      "PixelRepresentation": 0,
      "PixelSpacing": [2.0, 2.0],
      "ProtocolName": "func_task-friends-s01e24b",
      "RepetitionTime": 1490.0,
      "Rows": 832,
      "SAR": 0.02648812157231,
      "SamplesPerPixel": 1,
      "ScanOptions": "FS",
      "ScanningSequence": "EP",
      "SequenceName": "epfid2d1_104",
      "SequenceVariant": [
        "SK",
        "SS"
],
      "SeriesDescription": "func_task-friends-s01e24b",
      "SeriesNumber": 9,
      "SeriesTime": "145656.831000",
      "SliceLocation": -34.108653945239,
      "SliceThickness": 2.0,
      "SmallestImagePixelValue": 0,
      "SoftwareVersions": "syngo MR E11",
      "SpacingBetweenSlices": 2.0000000564107,
      "SpecificCharacterSet": "ISO_IR 100",
      "StudyID": "1",
      "StudyTime": "143955.673000",
      "TransmitCoilName": "Body",
      "VariableFlipAngleFlag": "N",
      "WindowCenterWidthExplanation": "Algo1",
      "dBdt": 0.0},
    "slices": {}
  },
  "time": {
    "samples": {
      "AcquisitionNumber": [1, 2, 3, 4, 5, 6, 7, 8, 9, 10, 11, 12, 13, 14, 15, 16, 17, 18, 19, 20, 21, 22, 23, 24, 25, 26, 27, 28, 29, 30, 31, 32, 33, 34, 35, 36, 37, 38, 39, 40, 41, 42, 43, 44, 45, 46, 47, 48, 49, 50, 51, 52, 53, 54, 55, 56, 57, 58, 59, 60, 61, 62, 63, 64, 65, 66, 67, 68, 69, 70, 71, 72, 73, 74, 75, 76, 77, 78, 79, 80, 81, 82, 83, 84, 85, 86, 87, 88, 89, 90, 91, 92, 93, 94, 95, 96, 97, 98, 99, 100, 101, 102, 103, 104, 105, 106, 107, 108, 109, 110, 111, 112, 113, 114, 115, 116, 117, 118, 119, 120, 121, 122, 123, 124, 125, 126, 127, 128, 129, 130, 131, 132, 133, 134, 135, 136, 137, 138, 139, 140, 141, 142, 143, 144, 145, 146, 147, 148, 149, 150, 151, 152, 153, 154, 155, 156, 157, 158, 159, 160, 161, 162, 163, 164, 165, 166, 167, 168, 169, 170, 171, 172, 173, 174, 175, 176, 177, 178, 179, 180, 181, 182, 183, 184, 185, 186, 187, 188, 189, 190, 191, 192, 193, 194, 195, 196, 197, 198, 199, 200, 201, 202, 203, 204, 205, 206, 207, 208, 209, 210, 211, 212, 213, 214, 215, 216, 217, 218, 219, 220, 221, 222, 223, 224, 225, 226, 227, 228, 229, 230, 231, 232, 233, 234, 235, 236, 237, 238, 239, 240, 241, 242, 243, 244, 245, 246, 247, 248, 249, 250, 251, 252, 253, 254, 255, 256, 257, 258, 259, 260, 261, 262, 263, 264, 265, 266, 267, 268, 269, 270, 271, 272, 273, 274, 275, 276, 277, 278, 279, 280, 281, 282, 283, 284, 285, 286, 287, 288, 289, 290, 291, 292, 293, 294, 295, 296, 297, 298, 299, 300, 301, 302, 303, 304, 305, 306, 307, 308, 309, 310, 311, 312, 313, 314, 315, 316, 317, 318, 319, 320, 321, 322, 323, 324, 325, 326, 327, 328, 329, 330, 331, 332, 333, 334, 335, 336, 337, 338, 339, 340, 341, 342, 343, 344, 345, 346, 347, 348, 349, 350, 351, 352, 353, 354, 355, 356, 357, 358, 359, 360, 361, 362, 363, 364, 365, 366, 367, 368, 369, 370, 371, 372, 373, 374, 375, 376, 377, 378, 379, 380, 381, 382, 383, 384, 385, 386, 387, 388, 389, 390, 391, 392, 393, 394, 395, 396, 397, 398, 399, 400, 401, 402, 403, 404, 405, 406, 407, 408, 409, 410, 411, 412, 413, 414, 415, 416, 417, 418, 419, 420, 421, 422, 423, 424, 425, 426, 427, 428, 429, 430, 431, 432, 433, 434, 435, 436, 437, 438, 439, 440, 441, 442, 443, 444, 445, 446, 447, 448, 449, 450, 451, 452, 453, 454, 455, 456, 457, 458, 459, 460, 461, 462, 463, 464, 465, 466, 467, 468, 469, 470, 471, 472, 473, 474, 475, 476, 477, 478, 479, 480, 481, 482, 483, 484, 485, 486, 487, 488, 489, 490, 491, 492, 493, 494, 495, 496, 497, 498, 499, 500, 501, 502, 503, 504, 505, 506, 507, 508, 509, 510, 511, 512, 513, 514, 515],
      "AcquisitionTime": ["145536.082500", "145537.572500", "145539.062500", "145540.552500", "145542.042500", "145543.532500", "145545.022500", "145546.512500", "145548.002500", "145549.492500", "145550.982500", "145552.472500", "145553.962500", "145555.452500", "145556.942500", "145558.432500", "145559.922500", "145601.412500", "145602.902500", "145604.392500", "145605.882500", "145607.372500", "145608.862500", "145610.352500", "145611.842500", "145613.332500", "145614.822500", "145616.312500", "145617.802500", "145619.292500", "145620.782500", "145622.272500", "145623.762500", "145625.252500", "145626.742500", "145628.232500", "145629.722500", "145631.212500", "145632.702500", "145634.192500", "145635.682500", "145637.172500", "145638.662500", "145640.152500", "145641.642500", "145643.132500", "145644.622500", "145646.112500", "145647.602500", "145649.092500", "145650.582500", "145652.072500", "145653.562500", "145655.052500", "145656.542500", "145658.032500", "145659.522500", "145701.012500", "145702.502500", "145703.992500", "145705.482500", "145706.972500", "145708.462500", "145709.952500", "145711.442500", "145712.932500", "145714.422500", "145715.912500", "145717.402500", "145718.892500", "145720.382500", "145721.872500", "145723.362500", "145724.852500", "145726.342500", "145727.832500", "145729.322500", "145730.812500", "145732.302500", "145733.792500", "145735.282500", "145736.772500", "145738.262500", "145739.752500", "145741.242500", "145742.732500", "145744.222500", "145745.712500", "145747.202500", "145748.692500", "145750.182500", "145751.672500", "145753.162500", "145754.652500", "145756.142500", "145757.632500", "145759.122500", "145800.612500", "145802.102500", "145803.592500", "145805.082500", "145806.572500", "145808.062500", "145809.552500", "145811.042500", "145812.532500", "145814.022500", "145815.512500", "145817.002500", "145818.492500", "145819.982500", "145821.472500", "145822.962500", "145824.452500", "145825.942500", "145827.432500", "145828.922500", "145830.412500", "145831.902500", "145833.392500", "145834.882500", "145836.372500", "145837.862500", "145839.352500", "145840.842500", "145842.332500", "145843.822500", "145845.312500", "145846.802500", "145848.292500", "145849.782500", "145851.272500", "145852.762500", "145854.252500", "145855.742500", "145857.232500", "145858.722500", "145900.212500", "145901.702500", "145903.192500", "145904.682500", "145906.172500", "145907.662500", "145909.152500", "145910.642500", "145912.132500", "145913.622500", "145915.112500", "145916.602500", "145918.092500", "145919.582500", "145921.072500", "145922.562500", "145924.052500", "145925.542500", "145927.032500", "145928.522500", "145930.012500", "145931.502500", "145932.992500", "145934.482500", "145935.972500", "145937.462500", "145938.952500", "145940.442500", "145941.932500", "145943.422500", "145944.912500", "145946.402500", "145947.892500", "145949.382500", "145950.872500", "145952.362500", "145953.852500", "145955.342500", "145956.832500", "145958.322500", "145959.812500", "150001.302500", "150002.792500", "150004.282500", "150005.772500", "150007.262500", "150008.752500", "150010.242500", "150011.732500", "150013.222500", "150014.712500", "150016.202500", "150017.692500", "150019.182500", "150020.672500", "150022.162500", "150023.652500", "150025.142500", "150026.632500", "150028.122500", "150029.612500", "150031.102500", "150032.592500", "150034.082500", "150035.572500", "150037.062500", "150038.552500", "150040.042500", "150041.532500", "150043.022500", "150044.512500", "150046.002500", "150047.492500", "150048.982500", "150050.472500", "150051.962500", "150053.452500", "150054.942500", "150056.432500", "150057.922500", "150059.412500", "150100.902500", "150102.392500", "150103.882500", "150105.372500", "150106.862500", "150108.352500", "150109.842500", "150111.332500", "150112.822500", "150114.312500", "150115.802500", "150117.292500", "150118.782500", "150120.272500", "150121.762500", "150123.252500", "150124.742500", "150126.232500", "150127.722500", "150129.212500", "150130.702500", "150132.192500", "150133.682500", "150135.172500", "150136.662500", "150138.152500", "150139.642500", "150141.132500", "150142.622500", "150144.112500", "150145.602500", "150147.092500", "150148.582500", "150150.072500", "150151.562500", "150153.052500", "150154.542500", "150156.032500", "150157.522500", "150159.012500", "150200.502500", "150201.992500", "150203.482500", "150204.972500", "150206.462500", "150207.952500", "150209.442500", "150210.932500", "150212.422500", "150213.912500", "150215.402500", "150216.892500", "150218.382500", "150219.872500", "150221.362500", "150222.852500", "150224.342500", "150225.832500", "150227.322500", "150228.812500", "150230.302500", "150231.792500", "150233.282500", "150234.772500", "150236.262500", "150237.752500", "150239.242500", "150240.732500", "150242.222500", "150243.712500", "150245.202500", "150246.692500", "150248.182500", "150249.672500", "150251.162500", "150252.652500", "150254.142500", "150255.632500", "150257.122500", "150258.612500", "150300.102500", "150301.592500", "150303.082500", "150304.572500", "150306.062500", "150307.552500", "150309.042500", "150310.532500", "150312.022500", "150313.512500", "150315.002500", "150316.492500", "150317.982500", "150319.472500", "150320.962500", "150322.452500", "150323.942500", "150325.432500", "150326.922500", "150328.412500", "150329.902500", "150331.392500", "150332.882500", "150334.372500", "150335.862500", "150337.352500", "150338.842500", "150340.332500", "150341.822500", "150343.312500", "150344.802500", "150346.292500", "150347.782500", "150349.272500", "150350.762500", "150352.252500", "150353.742500", "150355.232500", "150356.722500", "150358.212500", "150359.702500", "150401.192500", "150402.682500", "150404.172500", "150405.662500", "150407.152500", "150408.642500", "150410.132500", "150411.622500", "150413.112500", "150414.602500", "150416.092500", "150417.582500", "150419.072500", "150420.562500", "150422.052500", "150423.542500", "150425.032500", "150426.522500", "150428.012500", "150429.502500", "150430.992500", "150432.482500", "150433.972500", "150435.462500", "150436.952500", "150438.442500", "150439.932500", "150441.422500", "150442.912500", "150444.402500", "150445.892500", "150447.382500", "150448.872500", "150450.362500", "150451.852500", "150453.342500", "150454.832500", "150456.322500", "150457.812500", "150459.302500", "150500.792500", "150502.282500", "150503.772500", "150505.262500", "150506.752500", "150508.242500", "150509.732500", "150511.222500", "150512.712500", "150514.202500", "150515.692500", "150517.182500", "150518.672500", "150520.162500", "150521.652500", "150523.142500", "150524.632500", "150526.122500", "150527.612500", "150529.102500", "150530.592500", "150532.082500", "150533.572500", "150535.062500", "150536.552500", "150538.042500", "150539.532500", "150541.022500", "150542.512500", "150544.002500", "150545.492500", "150546.982500", "150548.472500", "150549.962500", "150551.452500", "150552.942500", "150554.432500", "150555.922500", "150557.412500", "150558.902500", "150600.392500", "150601.882500", "150603.372500", "150604.862500", "150606.352500", "150607.842500", "150609.332500", "150610.822500", "150612.312500", "150613.802500", "150615.292500", "150616.782500", "150618.272500", "150619.762500", "150621.252500", "150622.742500", "150624.232500", "150625.722500", "150627.212500", "150628.702500", "150630.192500", "150631.682500", "150633.172500", "150634.662500", "150636.152500", "150637.642500", "150639.132500", "150640.622500", "150642.112500", "150643.602500", "150645.092500", "150646.582500", "150648.072500", "150649.562500", "150651.052500", "150652.542500", "150654.032500", "150655.522500", "150657.012500", "150658.502500", "150659.992500", "150701.482500", "150702.972500", "150704.462500", "150705.952500", "150707.442500", "150708.932500", "150710.422500", "150711.912500", "150713.402500", "150714.892500", "150716.382500", "150717.872500", "150719.362500", "150720.852500", "150722.342500", "150723.832500", "150725.322500", "150726.812500", "150728.302500", "150729.792500", "150731.282500", "150732.772500", "150734.262500", "150735.752500", "150737.242500", "150738.732500", "150740.222500", "150741.712500", "150743.202500", "150744.692500", "150746.182500", "150747.672500", "150749.162500", "150750.652500", "150752.142500", "150753.632500", "150755.122500", "150756.612500", "150758.102500", "150759.592500", "150801.082500", "150802.572500", "150804.062500", "150805.552500", "150807.042500", "150808.532500", "150810.022500", "150811.512500", "150813.002500", "150814.492500", "150815.982500", "150817.472500", "150818.962500", "150820.452500", "150821.942500"],
      "ContentTime": ["145656.834000", "145656.837000", "145656.840000", "145656.843000", "145656.846000", "145656.855000", "145656.858000", "145656.861000", "145656.864000", "145656.867000", "145656.869000", "145656.872000", "145656.875000", "145656.878000", "145656.881000", "145656.884000", "145656.886000", "145656.891000", "145656.893000", "145716.788000", "145716.791000", "145716.793000", "145716.796000", "145716.799000", "145716.802000", "145716.805000", "145716.808000", "145716.810000", "145716.813000", "145716.816000", "145716.828000", "145716.831000", "145716.834000", "145716.837000", "145716.840000", "145716.842000", "145716.845000", "145716.848000", "145716.851000", "145736.788000", "145736.791000", "145736.793000", "145736.796000", "145736.799000", "145736.802000", "145736.816000", "145736.818000", "145736.821000", "145736.824000", "145736.827000", "145736.829000", "145736.832000", "145736.835000", "145736.838000", "145736.841000", "145736.843000", "145736.846000", "145736.849000", "145736.852000", "145756.788000", "145756.791000", "145756.793000", "145756.796000", "145756.799000", "145756.802000", "145756.805000", "145756.808000", "145756.811000", "145756.814000", "145756.816000", "145756.819000", "145756.822000", "145756.825000", "145756.828000", "145756.830000", "145756.833000", "145756.836000", "145756.855000", "145756.857000", "145816.788000", "145816.791000", "145816.794000", "145816.797000", "145816.799000", "145816.802000", "145816.805000", "145816.808000", "145816.811000", "145816.814000", "145816.817000", "145816.820000", "145816.822000", "145816.825000", "145816.828000", "145816.831000", "145816.834000", "145816.836000", "145816.839000", "145816.842000", "145816.845000", "145836.788000", "145836.791000", "145836.794000", "145836.796000", "145836.799000", "145836.802000", "145836.805000", "145836.808000", "145836.810000", "145836.813000", "145836.816000", "145836.819000", "145836.822000", "145836.825000", "145836.827000", "145836.830000", "145836.833000", "145836.836000", "145836.838000", "145836.841000", "145916.788000", "145916.791000", "145916.800000", "145916.803000", "145916.806000", "145916.809000", "145916.812000", "145916.815000", "145916.818000", "145916.821000", "145916.824000", "145916.827000", "145916.833000", "145916.836000", "145916.839000", "145916.842000", "145916.845000", "145916.848000", "145916.851000", "145916.854000", "145916.857000", "145916.860000", "145916.863000", "145916.866000", "145916.868000", "145916.871000", "145916.874000", "145956.788000", "145956.791000", "145956.794000", "145956.796000", "145956.799000", "145956.802000", "145956.805000", "145956.807000", "145956.810000", "145956.813000", "145956.816000", "145956.819000", "145956.822000", "145956.825000", "145956.827000", "145956.830000", "145956.833000", "145956.836000", "145956.838000", "145956.841000", "145956.866000", "145956.869000", "145956.872000", "145956.875000", "145956.877000", "145956.880000", "145956.883000", "150036.788000", "150036.876000", "150036.879000", "150036.881000", "150036.884000", "150036.887000", "150036.890000", "150036.893000", "150036.895000", "150036.898000", "150036.901000", "150036.904000", "150036.907000", "150036.910000", "150036.912000", "150036.915000", "150036.918000", "150036.921000", "150036.923000", "150036.926000", "150036.939000", "150036.942000", "150036.945000", "150036.948000", "150036.951000", "150036.953000", "150036.956000", "150116.788000", "150116.791000", "150116.794000", "150116.824000", "150116.830000", "150116.833000", "150116.836000", "150116.839000", "150116.842000", "150116.847000", "150116.850000", "150116.853000", "150116.856000", "150116.859000", "150116.861000", "150116.864000", "150116.867000", "150116.870000", "150116.873000", "150116.875000", "150116.878000", "150116.881000", "150116.884000", "150116.887000", "150116.889000", "150116.892000", "150116.895000", "150156.788000", "150156.791000", "150156.794000", "150156.796000", "150156.807000", "150156.809000", "150156.812000", "150156.815000", "150156.818000", "150156.821000", "150156.824000", "150156.827000", "150156.830000", "150156.832000", "150156.835000", "150156.838000", "150156.841000", "150156.844000", "150156.846000", "150156.849000", "150156.852000", "150156.855000", "150156.858000", "150156.861000", "150156.863000", "150156.885000", "150236.788000", "150236.791000", "150236.799000", "150236.802000", "150236.805000", "150236.808000", "150236.810000", "150236.813000", "150236.817000", "150236.819000", "150236.822000", "150236.825000", "150236.828000", "150236.831000", "150236.834000", "150236.836000", "150236.839000", "150236.842000", "150236.845000", "150236.848000", "150236.868000", "150236.871000", "150236.873000", "150236.876000", "150236.879000", "150236.882000", "150236.885000", "150316.788000", "150316.791000", "150316.794000", "150316.804000", "150316.806000", "150316.809000", "150316.812000", "150316.815000", "150316.818000", "150316.821000", "150316.824000", "150316.827000", "150316.829000", "150316.832000", "150316.835000", "150316.838000", "150316.841000", "150316.843000", "150316.846000", "150316.849000", "150316.852000", "150316.855000", "150316.858000", "150316.861000", "150316.864000", "150316.866000", "150316.869000", "150356.788000", "150356.791000", "150356.794000", "150356.797000", "150356.799000", "150356.802000", "150356.805000", "150356.808000", "150356.811000", "150356.814000", "150356.817000", "150356.819000", "150356.829000", "150356.832000", "150356.835000", "150356.838000", "150356.841000", "150356.843000", "150356.846000", "150356.849000", "150356.852000", "150356.855000", "150356.857000", "150356.860000", "150356.863000", "150356.866000", "150356.869000", "150436.788000", "150436.791000", "150436.794000", "150436.797000", "150436.800000", "150436.803000", "150436.813000", "150436.815000", "150436.818000", "150436.821000", "150436.824000", "150436.827000", "150436.830000", "150436.833000", "150436.835000", "150436.838000", "150436.841000", "150436.844000", "150436.847000", "150436.850000", "150436.852000", "150436.855000", "150436.858000", "150436.861000", "150436.864000", "150436.866000", "150436.874000", "150516.788000", "150516.791000", "150516.794000", "150516.796000", "150516.799000", "150516.802000", "150516.805000", "150516.808000", "150516.811000", "150516.813000", "150516.816000", "150516.819000", "150516.825000", "150516.828000", "150516.830000", "150516.833000", "150516.836000", "150516.839000", "150516.842000", "150516.845000", "150516.848000", "150516.851000", "150516.853000", "150516.856000", "150516.859000", "150516.862000", "150516.865000", "150556.788000", "150556.791000", "150556.801000", "150556.804000", "150556.807000", "150556.810000", "150556.813000", "150556.816000", "150556.819000", "150556.822000", "150556.824000", "150556.827000", "150556.830000", "150556.833000", "150556.836000", "150556.839000", "150556.842000", "150556.844000", "150556.847000", "150556.850000", "150556.853000", "150556.856000", "150556.858000", "150556.861000", "150556.864000", "150556.867000", "150616.788000", "150616.791000", "150616.794000", "150616.797000", "150616.800000", "150616.803000", "150616.806000", "150616.808000", "150616.811000", "150616.814000", "150616.817000", "150616.820000", "150616.823000", "150616.826000", "150656.788000", "150656.791000", "150656.794000", "150656.797000", "150656.800000", "150656.802000", "150656.805000", "150656.808000", "150656.811000", "150656.814000", "150656.816000", "150656.819000", "150656.822000", "150656.825000", "150656.828000", "150656.830000", "150656.833000", "150656.836000", "150656.839000", "150656.842000", "150656.844000", "150656.847000", "150656.850000", "150656.853000", "150656.856000", "150656.859000", "150656.861000", "150736.788000", "150736.791000", "150736.794000", "150736.797000", "150736.799000", "150736.802000", "150736.814000", "150736.817000", "150736.819000", "150736.822000", "150736.825000", "150736.828000", "150736.831000", "150736.834000", "150736.837000", "150736.840000", "150736.842000", "150736.845000", "150736.848000", "150736.851000", "150736.854000", "150736.856000", "150736.865000", "150736.868000", "150736.871000", "150736.873000", "150736.876000", "150816.788000", "150816.791000", "150816.794000", "150816.802000", "150816.805000", "150816.808000", "150816.811000", "150816.814000", "150816.817000", "150816.820000", "150816.823000", "150816.826000", "150816.829000", "150816.832000", "150816.834000", "150816.837000", "150816.840000", "150816.843000", "150816.846000", "150816.849000", "150816.852000", "150816.855000", "150816.857000", "150816.861000", "150816.864000", "150816.867000", "150824.442000", "150824.446000", "150824.448000", "150824.451000", "150824.454000", "150824.457000"],
