{
  "AcquisitionMatrixPE": 104,
  "AcquisitionNumber": 1,
  "AcquisitionTime": "13:40:37.332500",
  "BandwidthPerPixelPhaseEncode": 17.17,
  "BaseResolution": 104,
  "BodyPartExamined": "BRAIN",
  "CoilString": "HC1-7;NC1_2",
  "ConsistencyInfo": "N4_VE11C_LATEST_20160120",
  "ConversionSoftware": "dcm2niix",
  "ConversionSoftwareVersion": "v1.0.20200427",
  "DerivedVendorReportedEchoSpacing": 0.000560011,
  "DeviceSerialNumber": "167006",
  "DwellTime": 2.1e-06,
  "EchoTime": 0.037,
  "EchoTrainLength": 104,
  "EffectiveEchoSpacing": 0.000560011,
  "FlipAngle": 52,
  "ImageComments": "Unaliased_MB4_PE3_LB",
  "ImageOrientationPatientDICOM": [0.999805, -0.0190034, 0.00528064, 0.0197209, 0.958907, -0.283035],
  "ImageType": [
    "ORIGINAL",
    "PRIMARY",
    "M",
    "MB",
    "ND",
    "MOSAIC"
],
  "ImagingFrequency": 123.259,
  "InPlanePhaseEncodingDirectionDICOM": "COL",
  "InstitutionAddress": "Chemin_Queen-Mary_4565_Montreal_District_CA_H3W_1W5",
  "InstitutionName": "IUGM",
  "InstitutionalDepartmentName": "Department",
  "MRAcquisitionType": "2D",
  "MagneticFieldStrength": 3,
  "Manufacturer": "Siemens",
  "ManufacturersModelName": "Prisma_fit",
  "Modality": "MR",
  "MultibandAccelerationFactor": 4,
  "PartialFourier": 1,
  "PatientPosition": "HFS",
  "PercentPhaseFOV": 100,
  "PercentSampling": 100,
  "PhaseEncodingDirection": "j",
  "PhaseEncodingSteps": 104,
  "PhaseResolution": 1,
  "PixelBandwidth": 2290,
  "ProcedureStepDescription": "video_friends",
  "ProtocolName": "func_task-friends-s03e08b",
  "PulseSequenceDetails": "%CustomerSeq%_cmrr_mbep2d_bold",
  "ReceiveCoilActiveElements": "HC1-7;NC1,2",
  "ReceiveCoilName": "HeadNeck_64",
  "ReconMatrixPE": 104,
  "RepetitionTime": 1.49,
  "SAR": 0.0275039,
  "ScanOptions": "FS",
  "ScanningSequence": "EP",
  "SequenceName": "epfid2d1_104",
  "SequenceVariant": "SK_SS",
  "SeriesDescription": "func_task-friends-s03e08b",
  "SeriesNumber": 10,
  "ShimSetting": [633, -7216, -8832, 775, 57, 1, 51, -6],
  "SliceThickness": 2,
  "SliceTiming": [0, 0.785, 0.1, 0.8825, 0.1975, 0.98, 0.295, 1.0775, 0.3925, 1.1775, 0.49, 1.275, 0.5875, 1.3725, 0.6875, 0, 0.785, 0.1, 0.8825, 0.1975, 0.98, 0.295, 1.0775, 0.3925, 1.1775, 0.49, 1.275, 0.5875, 1.3725, 0.6875, 0, 0.785, 0.1, 0.8825, 0.1975, 0.98, 0.295, 1.0775, 0.3925, 1.1775, 0.49, 1.275, 0.5875, 1.3725, 0.6875, 0, 0.785, 0.1, 0.8825, 0.1975, 0.98, 0.295, 1.0775, 0.3925, 1.1775, 0.49, 1.275, 0.5875, 1.3725, 0.6875],
  "SoftwareVersions": "syngo_MR_E11",
  "SpacingBetweenSlices": 2,
  "StationName": "MRC35049",
  "TaskName": "s03e08b",
  "TotalReadoutTime": 0.0576811,
  "TxRefAmp": 206.737,
  "WipMemBlock": "0ed735dc-adfc-431b-8bbf-a079db350cb2||Sequence: R016 ve11c/master r/e634e98; Dec 19 2017 11:00:25 by eja",
  "dcmmeta_affine": [
    [-1.9996109008789062, 0.03944189473986626, -0.0006299984524957836, 102.81907653808594],
    [0.03800683096051216, 1.9178134202957153, -0.5661688446998596, -83.83296203613281],
    [0.01056127529591322, 0.5660706758499146, 1.9181898832321167, -71.54036712646484],
    [0.0, 0.0, 0.0, 1.0]
],
  "dcmmeta_reorient_transform": [
    [0.0, -1.0, 0.0, 103.0],
    [1.0, 0.0, 0.0, 0.0],
    [0.0, 0.0, 1.0, 0.0],
    [0.0, 0.0, 0.0, 1.0]
],
  "dcmmeta_shape": [104, 104, 60, 460],
  "dcmmeta_slice_dim": 2,
  "dcmmeta_version": 0.6,
  "global": {
    "const": {
      "AcquisitionMatrix": [104, 0, 0, 104],
      "AngioFlag": "N",
      "BitsAllocated": 16,
      "BitsStored": 16,
      "BodyPartExamined": "BRAIN",
      "Columns": 832,
      "EchoNumbers": 1,
      "EchoTime": 37.0,
      "EchoTrainLength": 104,
      "FlipAngle": 52.0,
      "HighBit": 15,
      "ImageOrientationPatient": [0.99980547359928, -0.0190034162031, 0.00528063760658, 0.01972094664079, 0.95890671542093, -0.2830353253293],
      "ImagePositionPatient": [-849.0968276323, -797.95142445058, 188.97032196871],
      "ImageType": [
        "ORIGINAL",
        "PRIMARY",
        "M",
        "MB",
        "ND",
        "MOSAIC"
],
      "ImagedNucleus": "1H",
      "ImagingFrequency": 123.259131,
      "InPlanePhaseEncodingDirection": "COL",
      "MRAcquisitionType": "2D",
      "MagneticFieldStrength": 3.0,
      "Manufacturer": "SIEMENS",
      "ManufacturerModelName": "Prisma_fit",
      "Modality": "MR",
      "NumberOfAverages": 1.0,
      "NumberOfPhaseEncodingSteps": 104,
      "PercentPhaseFieldOfView": 100.0,
      "PercentSampling": 100.0,
      "PerformedProcedureStepStartTime": "113720.933000",
      "PhotometricInterpretation": "MONOCHROME2",
      "PixelBandwidth": 2290.0,
      "PixelRepresentation": 0,
      "PixelSpacing": [2.0, 2.0],
      "ProtocolName": "func_task-friends-s03e08b",
      "RepetitionTime": 1490.0,
      "Rows": 832,
      "SAR": 0.02750386412961,
      "SamplesPerPixel": 1,
      "ScanOptions": "FS",
      "ScanningSequence": "EP",
      "SequenceName": "epfid2d1_104",
      "SequenceVariant": [
        "SK",
        "SS"
],
      "SeriesDescription": "func_task-friends-s03e08b",
      "SeriesNumber": 10,
      "SeriesTime": "134205.564000",
      "SliceLocation": -44.914589233298,
      "SliceThickness": 2.0,
      "SmallestImagePixelValue": 0,
      "SoftwareVersions": "syngo MR E11",
      "SpacingBetweenSlices": 2.000000036458,
      "SpecificCharacterSet": "ISO_IR 100",
      "StudyID": "1",
      "StudyTime": "113720.810000",
      "TransmitCoilName": "Body",
      "VariableFlipAngleFlag": "N",
      "WindowCenterWidthExplanation": "Algo1",
      "dBdt": 0.0},
    "slices": {}
  },
  "time": {
    "samples": {
      "AcquisitionNumber": [1, 2, 3, 4, 5, 6, 7, 8, 9, 10, 11, 12, 13, 14, 15, 16, 17, 18, 19, 20, 21, 22, 23, 24, 25, 26, 27, 28, 29, 30, 31, 32, 33, 34, 35, 36, 37, 38, 39, 40, 41, 42, 43, 44, 45, 46, 47, 48, 49, 50, 51, 52, 53, 54, 55, 56, 57, 58, 59, 60, 61, 62, 63, 64, 65, 66, 67, 68, 69, 70, 71, 72, 73, 74, 75, 76, 77, 78, 79, 80, 81, 82, 83, 84, 85, 86, 87, 88, 89, 90, 91, 92, 93, 94, 95, 96, 97, 98, 99, 100, 101, 102, 103, 104, 105, 106, 107, 108, 109, 110, 111, 112, 113, 114, 115, 116, 117, 118, 119, 120, 121, 122, 123, 124, 125, 126, 127, 128, 129, 130, 131, 132, 133, 134, 135, 136, 137, 138, 139, 140, 141, 142, 143, 144, 145, 146, 147, 148, 149, 150, 151, 152, 153, 154, 155, 156, 157, 158, 159, 160, 161, 162, 163, 164, 165, 166, 167, 168, 169, 170, 171, 172, 173, 174, 175, 176, 177, 178, 179, 180, 181, 182, 183, 184, 185, 186, 187, 188, 189, 190, 191, 192, 193, 194, 195, 196, 197, 198, 199, 200, 201, 202, 203, 204, 205, 206, 207, 208, 209, 210, 211, 212, 213, 214, 215, 216, 217, 218, 219, 220, 221, 222, 223, 224, 225, 226, 227, 228, 229, 230, 231, 232, 233, 234, 235, 236, 237, 238, 239, 240, 241, 242, 243, 244, 245, 246, 247, 248, 249, 250, 251, 252, 253, 254, 255, 256, 257, 258, 259, 260, 261, 262, 263, 264, 265, 266, 267, 268, 269, 270, 271, 272, 273, 274, 275, 276, 277, 278, 279, 280, 281, 282, 283, 284, 285, 286, 287, 288, 289, 290, 291, 292, 293, 294, 295, 296, 297, 298, 299, 300, 301, 302, 303, 304, 305, 306, 307, 308, 309, 310, 311, 312, 313, 314, 315, 316, 317, 318, 319, 320, 321, 322, 323, 324, 325, 326, 327, 328, 329, 330, 331, 332, 333, 334, 335, 336, 337, 338, 339, 340, 341, 342, 343, 344, 345, 346, 347, 348, 349, 350, 351, 352, 353, 354, 355, 356, 357, 358, 359, 360, 361, 362, 363, 364, 365, 366, 367, 368, 369, 370, 371, 372, 373, 374, 375, 376, 377, 378, 379, 380, 381, 382, 383, 384, 385, 386, 387, 388, 389, 390, 391, 392, 393, 394, 395, 396, 397, 398, 399, 400, 401, 402, 403, 404, 405, 406, 407, 408, 409, 410, 411, 412, 413, 414, 415, 416, 417, 418, 419, 420, 421, 422, 423, 424, 425, 426, 427, 428, 429, 430, 431, 432, 433, 434, 435, 436, 437, 438, 439, 440, 441, 442, 443, 444, 445, 446, 447, 448, 449, 450, 451, 452, 453, 454, 455, 456, 457, 458, 459, 460],
      "AcquisitionTime": ["134037.332500", "134038.822500", "134040.312500", "134041.802500", "134043.292500", "134044.782500", "134046.272500", "134047.762500", "134049.252500", "134050.742500", "134052.232500", "134053.722500", "134055.212500", "134056.702500", "134058.192500", "134059.682500", "134101.172500", "134102.662500", "134104.152500", "134105.642500", "134107.132500", "134108.622500", "134110.112500", "134111.602500", "134113.092500", "134114.582500", "134116.072500", "134117.562500", "134119.052500", "134120.542500", "134122.032500", "134123.522500", "134125.012500", "134126.502500", "134127.992500", "134129.482500", "134130.972500", "134132.462500", "134133.952500", "134135.442500", "134136.932500", "134138.422500", "134139.912500", "134141.402500", "134142.892500", "134144.382500", "134145.872500", "134147.362500", "134148.852500", "134150.342500", "134151.832500", "134153.322500", "134154.812500", "134156.302500", "134157.792500", "134159.282500", "134200.772500", "134202.262500", "134203.752500", "134205.242500", "134206.732500", "134208.222500", "134209.712500", "134211.202500", "134212.692500", "134214.182500", "134215.672500", "134217.162500", "134218.652500", "134220.142500", "134221.632500", "134223.122500", "134224.612500", "134226.102500", "134227.592500", "134229.082500", "134230.572500", "134232.062500", "134233.552500", "134235.042500", "134236.532500", "134238.022500", "134239.512500", "134241.002500", "134242.492500", "134243.982500", "134245.472500", "134246.962500", "134248.452500", "134249.942500", "134251.432500", "134252.922500", "134254.412500", "134255.902500", "134257.392500", "134258.882500", "134300.372500", "134301.862500", "134303.352500", "134304.842500", "134306.332500", "134307.822500", "134309.312500", "134310.802500", "134312.292500", "134313.782500", "134315.272500", "134316.762500", "134318.252500", "134319.742500", "134321.232500", "134322.722500", "134324.212500", "134325.702500", "134327.192500", "134328.682500", "134330.172500", "134331.662500", "134333.152500", "134334.642500", "134336.132500", "134337.622500", "134339.112500", "134340.602500", "134342.092500", "134343.582500", "134345.072500", "134346.562500", "134348.052500", "134349.542500", "134351.032500", "134352.522500", "134354.012500", "134355.502500", "134356.992500", "134358.482500", "134359.972500", "134401.462500", "134402.952500", "134404.442500", "134405.932500", "134407.422500", "134408.912500", "134410.402500", "134411.892500", "134413.382500", "134414.872500", "134416.362500", "134417.852500", "134419.342500", "134420.832500", "134422.322500", "134423.812500", "134425.302500", "134426.792500", "134428.282500", "134429.772500", "134431.262500", "134432.752500", "134434.242500", "134435.732500", "134437.222500", "134438.712500", "134440.202500", "134441.692500", "134443.182500", "134444.672500", "134446.162500", "134447.652500", "134449.142500", "134450.632500", "134452.122500", "134453.612500", "134455.102500", "134456.592500", "134458.082500", "134459.572500", "134501.062500", "134502.552500", "134504.042500", "134505.532500", "134507.022500", "134508.512500", "134510.002500", "134511.492500", "134512.982500", "134514.472500", "134515.962500", "134517.452500", "134518.942500", "134520.432500", "134521.922500", "134523.412500", "134524.902500", "134526.392500", "134527.882500", "134529.372500", "134530.862500", "134532.352500", "134533.842500", "134535.332500", "134536.822500", "134538.312500", "134539.802500", "134541.292500", "134542.782500", "134544.272500", "134545.762500", "134547.252500", "134548.742500", "134550.232500", "134551.722500", "134553.212500", "134554.702500", "134556.192500", "134557.682500", "134559.172500", "134600.662500", "134602.152500", "134603.642500", "134605.132500", "134606.622500", "134608.112500", "134609.602500", "134611.092500", "134612.582500", "134614.072500", "134615.562500", "134617.052500", "134618.542500", "134620.032500", "134621.522500", "134623.012500", "134624.502500", "134625.992500", "134627.482500", "134628.972500", "134630.462500", "134631.952500", "134633.442500", "134634.932500", "134636.422500", "134637.912500", "134639.402500", "134640.892500", "134642.382500", "134643.872500", "134645.362500", "134646.852500", "134648.342500", "134649.832500", "134651.322500", "134652.812500", "134654.302500", "134655.792500", "134657.282500", "134658.772500", "134700.262500", "134701.752500", "134703.242500", "134704.732500", "134706.222500", "134707.712500", "134709.202500", "134710.692500", "134712.182500", "134713.672500", "134715.162500", "134716.652500", "134718.142500", "134719.632500", "134721.122500", "134722.612500", "134724.102500", "134725.592500", "134727.082500", "134728.572500", "134730.062500", "134731.552500", "134733.042500", "134734.532500", "134736.022500", "134737.512500", "134739.002500", "134740.492500", "134741.982500", "134743.472500", "134744.962500", "134746.452500", "134747.942500", "134749.432500", "134750.922500", "134752.412500", "134753.902500", "134755.392500", "134756.882500", "134758.372500", "134759.862500", "134801.352500", "134802.842500", "134804.332500", "134805.822500", "134807.312500", "134808.802500", "134810.292500", "134811.782500", "134813.272500", "134814.762500", "134816.252500", "134817.742500", "134819.232500", "134820.722500", "134822.212500", "134823.702500", "134825.192500", "134826.682500", "134828.172500", "134829.662500", "134831.152500", "134832.642500", "134834.132500", "134835.622500", "134837.112500", "134838.602500", "134840.092500", "134841.582500", "134843.072500", "134844.562500", "134846.052500", "134847.542500", "134849.032500", "134850.522500", "134852.012500", "134853.502500", "134854.992500", "134856.482500", "134857.972500", "134859.462500", "134900.952500", "134902.442500", "134903.932500", "134905.422500", "134906.912500", "134908.402500", "134909.892500", "134911.382500", "134912.872500", "134914.362500", "134915.852500", "134917.342500", "134918.832500", "134920.322500", "134921.812500", "134923.302500", "134924.792500", "134926.282500", "134927.772500", "134929.262500", "134930.752500", "134932.242500", "134933.732500", "134935.222500", "134936.712500", "134938.202500", "134939.692500", "134941.182500", "134942.672500", "134944.162500", "134945.652500", "134947.142500", "134948.632500", "134950.122500", "134951.612500", "134953.102500", "134954.592500", "134956.082500", "134957.572500", "134959.062500", "135000.552500", "135002.042500", "135003.532500", "135005.022500", "135006.512500", "135008.002500", "135009.492500", "135010.982500", "135012.472500", "135013.962500", "135015.452500", "135016.942500", "135018.432500", "135019.922500", "135021.412500", "135022.902500", "135024.392500", "135025.882500", "135027.372500", "135028.862500", "135030.352500", "135031.842500", "135033.332500", "135034.822500", "135036.312500", "135037.802500", "135039.292500", "135040.782500", "135042.272500", "135043.762500", "135045.252500", "135046.742500", "135048.232500", "135049.722500", "135051.212500", "135052.702500", "135054.192500", "135055.682500", "135057.172500", "135058.662500", "135100.152500", "135101.642500", "135103.132500", "135104.622500", "135106.112500", "135107.602500", "135109.092500", "135110.582500", "135112.072500", "135113.562500", "135115.052500", "135116.542500", "135118.032500", "135119.522500", "135121.012500", "135122.502500", "135123.992500", "135125.482500", "135126.972500", "135128.462500", "135129.952500", "135131.442500", "135132.932500", "135134.422500", "135135.912500", "135137.402500", "135138.892500", "135140.382500", "135141.872500", "135143.362500", "135144.852500", "135146.342500", "135147.832500", "135149.322500", "135150.812500", "135152.302500", "135153.792500", "135155.282500", "135156.772500", "135158.262500", "135159.752500", "135201.242500"],
      "ContentTime": ["134205.567000", "134205.571000", "134205.574000", "134205.576000", "134205.582000", "134205.585000", "134205.588000", "134205.590000", "134205.597000", "134205.600000", "134205.603000", "134205.605000", "134205.608000", "134205.611000", "134205.614000", "134205.617000", "134205.620000", "134205.623000", "134205.625000", "134205.628000", "134205.631000", "134205.634000", "134205.637000", "134205.640000", "134205.643000", "134205.645000", "134205.648000", "134205.651000", "134205.654000", "134205.657000", "134205.660000", "134205.663000", "134205.668000", "134205.670000", "134225.529000", "134225.532000", "134225.535000", "134225.538000", "134225.540000", "134225.543000", "134225.546000", "134225.549000", "134225.552000", "134225.555000", "134225.558000", "134225.560000", "134225.563000", "134225.566000", "134225.569000", "134225.572000", "134225.575000", "134225.578000", "134225.581000", "134225.584000", "134245.529000", "134245.532000", "134245.535000", "134245.538000", "134245.540000", "134245.544000", "134245.546000", "134245.549000", "134245.552000", "134245.555000", "134245.558000", "134245.561000", "134245.564000", "134245.566000", "134245.569000", "134245.572000", "134245.575000", "134245.578000", "134245.581000", "134245.584000", "134305.528000", "134305.531000", "134305.534000", "134305.537000", "134305.540000", "134305.547000", "134305.550000", "134305.553000", "134305.556000", "134305.559000", "134305.561000", "134305.564000", "134305.567000", "134305.570000", "134305.573000", "134305.576000", "134305.579000", "134305.582000", "134305.584000", "134305.587000", "134345.529000", "134345.532000", "134345.535000", "134345.538000", "134345.540000", "134345.543000", "134345.547000", "134345.550000", "134345.552000", "134345.555000", "134345.558000", "134345.561000", "134345.564000", "134345.567000", "134345.570000", "134345.573000", "134345.575000", "134345.578000", "134345.581000", "134345.584000", "134345.587000", "134345.590000", "134345.592000", "134345.595000", "134345.598000", "134345.601000", "134345.604000", "134345.607000", "134345.610000", "134345.612000", "134345.615000", "134425.529000", "134425.532000", "134425.535000", "134425.538000", "134425.540000", "134425.543000", "134425.546000", "134425.549000", "134425.552000", "134425.555000", "134425.558000", "134425.560000", "134425.563000", "134425.566000", "134425.569000", "134425.572000", "134425.575000", "134425.577000", "134425.580000", "134425.583000", "134425.586000", "134425.589000", "134425.592000", "134425.595000", "134425.597000", "134425.600000", "134425.603000", "134505.529000", "134505.532000", "134505.535000", "134505.538000", "134505.541000", "134505.544000", "134505.547000", "134505.549000", "134505.552000", "134505.555000", "134505.558000", "134505.561000", "134505.564000", "134505.567000", "134505.570000", "134505.572000", "134505.575000", "134505.588000", "134505.591000", "134505.594000", "134505.597000", "134505.607000", "134505.609000", "134505.612000", "134505.615000", "134505.618000", "134505.621000", "134545.529000", "134545.532000", "134545.535000", "134545.538000", "134545.541000", "134545.544000", "134545.546000", "134545.549000", "134545.552000", "134545.555000", "134545.558000", "134545.561000", "134545.564000", "134545.566000", "134545.569000", "134545.572000", "134545.575000", "134545.578000", "134545.581000", "134545.584000", "134545.587000", "134545.589000", "134545.592000", "134545.595000", "134545.598000", "134545.601000", "134545.604000", "134625.529000", "134625.532000", "134625.535000", "134625.538000", "134625.542000", "134625.544000", "134625.547000", "134625.551000", "134625.554000", "134625.556000", "134625.559000", "134625.562000", "134625.565000", "134625.568000", "134625.571000", "134625.574000", "134625.577000", "134625.580000", "134625.583000", "134625.585000", "134625.588000", "134625.591000", "134625.594000", "134625.597000", "134625.600000", "134625.603000", "134705.529000", "134705.532000", "134705.535000", "134705.538000", "134705.541000", "134705.544000", "134705.546000", "134705.549000", "134705.552000", "134705.555000", "134705.558000", "134705.561000", "134705.564000", "134705.567000", "134705.569000", "134705.572000", "134705.575000", "134705.578000", "134705.581000", "134705.584000", "134705.587000", "134705.590000", "134705.600000", "134705.602000", "134705.605000", "134705.608000", "134705.611000", "134745.528000", "134745.531000", "134745.534000", "134745.537000", "134745.540000", "134745.542000", "134745.545000", "134745.548000", "134745.551000", "134745.554000", "134745.557000", "134745.560000", "134745.563000", "134745.565000", "134745.568000", "134745.571000", "134745.574000", "134745.577000", "134745.580000", "134745.583000", "134745.586000", "134745.589000", "134745.591000", "134745.594000", "134745.597000", "134745.600000", "134745.603000", "134825.529000", "134825.532000", "134825.535000", "134825.538000", "134825.541000", "134825.543000", "134825.546000", "134825.549000", "134825.552000", "134825.555000", "134825.558000", "134825.561000", "134825.564000", "134825.566000", "134825.569000", "134825.572000", "134825.575000", "134825.578000", "134825.581000", "134825.584000", "134825.587000", "134825.590000", "134825.593000", "134825.596000", "134825.598000", "134825.601000", "134825.604000", "134905.529000", "134905.532000", "134905.535000", "134905.538000", "134905.541000", "134905.544000", "134905.547000", "134905.550000", "134905.552000", "134905.555000", "134905.558000", "134905.561000", "134905.564000", "134905.567000", "134905.570000", "134905.573000", "134905.575000", "134905.578000", "134905.581000", "134905.584000", "134905.587000", "134905.590000", "134905.593000", "134905.595000", "134905.598000", "134905.601000", "134905.604000", "134945.529000", "134945.532000", "134945.535000", "134945.538000", "134945.541000", "134945.544000", "134945.547000", "134945.549000", "134945.552000", "134945.555000", "134945.558000", "134945.561000", "134945.575000", "134945.578000", "134945.581000", "134945.584000", "134945.586000", "134945.589000", "134945.592000", "134945.595000", "134945.598000", "134945.601000", "134945.604000", "134945.606000", "134945.609000", "134945.612000", "134945.615000", "135025.529000", "135025.532000", "135025.535000", "135025.537000", "135025.541000", "135025.543000", "135025.546000", "135025.549000", "135025.552000", "135025.555000", "135025.558000", "135025.561000", "135025.564000", "135025.567000", "135025.569000", "135025.572000", "135025.575000", "135025.578000", "135025.581000", "135025.584000", "135025.587000", "135025.589000", "135025.592000", "135025.595000", "135025.598000", "135025.601000", "135025.604000", "135105.529000", "135105.532000", "135105.535000", "135105.538000", "135105.541000", "135105.544000", "135105.547000", "135105.549000", "135105.552000", "135105.555000", "135105.558000", "135105.561000", "135105.564000", "135105.567000", "135105.570000", "135105.572000", "135105.575000", "135105.578000", "135105.581000", "135105.584000", "135105.587000", "135105.590000", "135105.593000", "135105.596000", "135105.599000", "135105.602000", "135145.529000", "135145.532000", "135145.535000", "135145.538000", "135145.541000", "135145.544000", "135145.547000", "135145.549000", "135145.552000", "135145.555000", "135145.558000", "135145.561000", "135145.564000", "135145.567000", "135145.570000", "135145.572000", "135145.575000", "135145.578000", "135145.581000", "135145.584000", "135145.587000", "135145.590000", "135145.593000", "135145.595000", "135145.598000", "135145.601000", "135145.604000", "135203.798000", "135203.801000", "135203.804000", "135203.807000", "135203.810000", "135203.812000", "135203.815000", "135203.818000", "135203.821000", "135203.824000", "135203.827000", "135203.830000", "135203.833000"],
