{
  "AcquisitionMatrixPE": 104,
  "AcquisitionNumber": 1,
  "AcquisitionTime": "13:56:32.537500",
  "BandwidthPerPixelPhaseEncode": 17.17,
  "BaseResolution": 104,
  "BodyPartExamined": "BRAIN",
  "CoilString": "HC1-7;NC1_2",
  "ConsistencyInfo": "N4_VE11C_LATEST_20160120",
  "ConversionSoftware": "dcm2niix",
  "ConversionSoftwareVersion": "v1.0.20200427",
  "DerivedVendorReportedEchoSpacing": 0.000560011,
  "DeviceSerialNumber": "167006",
  "DwellTime": 2.1e-06,
  "EchoTime": 0.037,
  "EchoTrainLength": 104,
  "EffectiveEchoSpacing": 0.000560011,
  "FlipAngle": 52,
  "ImageComments": "Unaliased_MB4_PE3_LB",
  "ImageOrientationPatientDICOM": [0.999787, -0.0204139, -0.00303161, 0.0190223, 0.968503, -0.248274],
  "ImageType": [
    "ORIGINAL",
    "PRIMARY",
    "M",
    "MB",
    "ND",
    "MOSAIC"
],
  "ImagingFrequency": 123.259,
  "InPlanePhaseEncodingDirectionDICOM": "COL",
  "InstitutionAddress": "Chemin_Queen-Mary_4565_Montreal_District_CA_H3W_1W5",
  "InstitutionName": "IUGM",
  "InstitutionalDepartmentName": "Department",
  "MRAcquisitionType": "2D",
  "MagneticFieldStrength": 3,
  "Manufacturer": "Siemens",
  "ManufacturersModelName": "Prisma_fit",
  "Modality": "MR",
  "MultibandAccelerationFactor": 4,
  "PartialFourier": 1,
  "PatientPosition": "HFS",
  "PercentPhaseFOV": 100,
  "PercentSampling": 100,
  "PhaseEncodingDirection": "j",
  "PhaseEncodingSteps": 104,
  "PhaseResolution": 1,
  "PixelBandwidth": 2290,
  "ProcedureStepDescription": "video_friends",
  "ProtocolName": "func_task-friends-s03e09a",
  "PulseSequenceDetails": "%CustomerSeq%_cmrr_mbep2d_bold",
  "ReceiveCoilActiveElements": "HC1-7;NC1,2",
  "ReceiveCoilName": "HeadNeck_64",
  "ReconMatrixPE": 104,
  "RepetitionTime": 1.49,
  "SAR": 0.0300964,
  "ScanOptions": "FS",
  "ScanningSequence": "EP",
  "SequenceName": "epfid2d1_104",
  "SequenceVariant": "SK_SS",
  "SeriesDescription": "func_task-friends-s03e09a",
  "SeriesNumber": 18,
  "ShimSetting": [628, -7231, -8809, 713, 12, -42, 86, 7],
  "SliceThickness": 2,
  "SliceTiming": [0, 0.7825, 0.0975, 0.88, 0.195, 0.98, 0.2925, 1.0775, 0.39, 1.175, 0.49, 1.2725, 0.5875, 1.37, 0.685, 0, 0.7825, 0.0975, 0.88, 0.195, 0.98, 0.2925, 1.0775, 0.39, 1.175, 0.49, 1.2725, 0.5875, 1.37, 0.685, 0, 0.7825, 0.0975, 0.88, 0.195, 0.98, 0.2925, 1.0775, 0.39, 1.175, 0.49, 1.2725, 0.5875, 1.37, 0.685, 0, 0.7825, 0.0975, 0.88, 0.195, 0.98, 0.2925, 1.0775, 0.39, 1.175, 0.49, 1.2725, 0.5875, 1.37, 0.685],
  "SoftwareVersions": "syngo_MR_E11",
  "SpacingBetweenSlices": 2,
  "StationName": "MRC35049",
  "TaskName": "s03e09a",
  "TotalReadoutTime": 0.0576811,
  "TxRefAmp": 209.909,
  "WipMemBlock": "3c6ca136-1355-48e1-9f5a-5b1522c78ea3||Sequence: R016 ve11c/master r/e634e98; Dec 19 2017 11:00:25 by eja",
  "dcmmeta_affine": [
    [-1.999574065208435, 0.03804455325007439, -0.016008704900741577, 102.89889526367188],
    [0.040827736258506775, 1.9370062351226807, -0.49632662534713745, -86.26063537597656],
    [-0.006063216831535101, 0.49654772877693176, 1.9373701810836792, -61.204002380371094],
    [0.0, 0.0, 0.0, 1.0]
],
  "dcmmeta_reorient_transform": [
    [0.0, -1.0, 0.0, 103.0],
    [1.0, 0.0, 0.0, 0.0],
    [0.0, 0.0, 1.0, 0.0],
    [0.0, 0.0, 0.0, 1.0]
],
  "dcmmeta_shape": [104, 104, 60, 493],
  "dcmmeta_slice_dim": 2,
  "dcmmeta_version": 0.6,
  "global": {
    "const": {
      "AcquisitionMatrix": [104, 0, 0, 104],
      "AngioFlag": "N",
      "BitsAllocated": 16,
      "BitsStored": 16,
      "BodyPartExamined": "BRAIN",
      "Columns": 832,
      "EchoNumbers": 1,
      "EchoTime": 37.0,
      "EchoTrainLength": 104,
      "FlipAngle": 52.0,
      "HighBit": 15,
      "ImageOrientationPatient": [0.99978701897936, -0.0204138685725, -0.0030316085288, 0.0190222770677, 0.96850309288994, -0.2482738649914],
      "ImagePositionPatient": [-848.51065295901, -803.45995577774, 172.89079950719],
      "ImageType": [
        "ORIGINAL",
        "PRIMARY",
        "M",
        "MB",
        "ND",
        "MOSAIC"
],
      "ImagedNucleus": "1H",
      "ImagingFrequency": 123.259115,
      "InPlanePhaseEncodingDirection": "COL",
      "MRAcquisitionType": "2D",
      "MagneticFieldStrength": 3.0,
      "Manufacturer": "SIEMENS",
      "ManufacturerModelName": "Prisma_fit",
      "Modality": "MR",
      "NumberOfAverages": 1.0,
      "NumberOfPhaseEncodingSteps": 104,
      "PercentPhaseFieldOfView": 100.0,
      "PercentSampling": 100.0,
      "PerformedProcedureStepStartTime": "113720.933000",
      "PhotometricInterpretation": "MONOCHROME2",
      "PixelBandwidth": 2290.0,
      "PixelRepresentation": 0,
      "PixelSpacing": [2.0, 2.0],
      "ProtocolName": "func_task-friends-s03e09a",
      "RepetitionTime": 1490.0,
      "Rows": 832,
      "SAR": 0.03009639594493,
      "SamplesPerPixel": 1,
      "ScanOptions": "FS",
      "ScanningSequence": "EP",
      "SequenceName": "epfid2d1_104",
      "SequenceVariant": [
        "SK",
        "SS"
],
      "SeriesDescription": "func_task-friends-s03e09a",
      "SeriesNumber": 18,
      "SeriesTime": "135805.562000",
      "SliceLocation": -38.704319669107,
      "SliceThickness": 2.0,
      "SmallestImagePixelValue": 0,
      "SoftwareVersions": "syngo MR E11",
      "SpacingBetweenSlices": 1.9999999606752,
      "SpecificCharacterSet": "ISO_IR 100",
      "StudyID": "1",
      "StudyTime": "113720.810000",
      "TransmitCoilName": "Body",
      "VariableFlipAngleFlag": "N",
      "WindowCenterWidthExplanation": "Algo1",
      "dBdt": 0.0},
    "slices": {}
  },
  "time": {
    "samples": {
      "AcquisitionNumber": [1, 2, 3, 4, 5, 6, 7, 8, 9, 10, 11, 12, 13, 14, 15, 16, 17, 18, 19, 20, 21, 22, 23, 24, 25, 26, 27, 28, 29, 30, 31, 32, 33, 34, 35, 36, 37, 38, 39, 40, 41, 42, 43, 44, 45, 46, 47, 48, 49, 50, 51, 52, 53, 54, 55, 56, 57, 58, 59, 60, 61, 62, 63, 64, 65, 66, 67, 68, 69, 70, 71, 72, 73, 74, 75, 76, 77, 78, 79, 80, 81, 82, 83, 84, 85, 86, 87, 88, 89, 90, 91, 92, 93, 94, 95, 96, 97, 98, 99, 100, 101, 102, 103, 104, 105, 106, 107, 108, 109, 110, 111, 112, 113, 114, 115, 116, 117, 118, 119, 120, 121, 122, 123, 124, 125, 126, 127, 128, 129, 130, 131, 132, 133, 134, 135, 136, 137, 138, 139, 140, 141, 142, 143, 144, 145, 146, 147, 148, 149, 150, 151, 152, 153, 154, 155, 156, 157, 158, 159, 160, 161, 162, 163, 164, 165, 166, 167, 168, 169, 170, 171, 172, 173, 174, 175, 176, 177, 178, 179, 180, 181, 182, 183, 184, 185, 186, 187, 188, 189, 190, 191, 192, 193, 194, 195, 196, 197, 198, 199, 200, 201, 202, 203, 204, 205, 206, 207, 208, 209, 210, 211, 212, 213, 214, 215, 216, 217, 218, 219, 220, 221, 222, 223, 224, 225, 226, 227, 228, 229, 230, 231, 232, 233, 234, 235, 236, 237, 238, 239, 240, 241, 242, 243, 244, 245, 246, 247, 248, 249, 250, 251, 252, 253, 254, 255, 256, 257, 258, 259, 260, 261, 262, 263, 264, 265, 266, 267, 268, 269, 270, 271, 272, 273, 274, 275, 276, 277, 278, 279, 280, 281, 282, 283, 284, 285, 286, 287, 288, 289, 290, 291, 292, 293, 294, 295, 296, 297, 298, 299, 300, 301, 302, 303, 304, 305, 306, 307, 308, 309, 310, 311, 312, 313, 314, 315, 316, 317, 318, 319, 320, 321, 322, 323, 324, 325, 326, 327, 328, 329, 330, 331, 332, 333, 334, 335, 336, 337, 338, 339, 340, 341, 342, 343, 344, 345, 346, 347, 348, 349, 350, 351, 352, 353, 354, 355, 356, 357, 358, 359, 360, 361, 362, 363, 364, 365, 366, 367, 368, 369, 370, 371, 372, 373, 374, 375, 376, 377, 378, 379, 380, 381, 382, 383, 384, 385, 386, 387, 388, 389, 390, 391, 392, 393, 394, 395, 396, 397, 398, 399, 400, 401, 402, 403, 404, 405, 406, 407, 408, 409, 410, 411, 412, 413, 414, 415, 416, 417, 418, 419, 420, 421, 422, 423, 424, 425, 426, 427, 428, 429, 430, 431, 432, 433, 434, 435, 436, 437, 438, 439, 440, 441, 442, 443, 444, 445, 446, 447, 448, 449, 450, 451, 452, 453, 454, 455, 456, 457, 458, 459, 460, 461, 462, 463, 464, 465, 466, 467, 468, 469, 470, 471, 472, 473, 474, 475, 476, 477, 478, 479, 480, 481, 482, 483, 484, 485, 486, 487, 488, 489, 490, 491, 492, 493],
      "AcquisitionTime": ["135632.537500", "135634.027500", "135635.517500", "135637.007500", "135638.497500", "135639.987500", "135641.477500", "135642.967500", "135644.457500", "135645.947500", "135647.437500", "135648.927500", "135650.417500", "135651.907500", "135653.397500", "135654.887500", "135656.377500", "135657.867500", "135659.357500", "135700.847500", "135702.337500", "135703.827500", "135705.317500", "135706.807500", "135708.297500", "135709.787500", "135711.277500", "135712.767500", "135714.257500", "135715.747500", "135717.237500", "135718.727500", "135720.217500", "135721.707500", "135723.197500", "135724.687500", "135726.177500", "135727.667500", "135729.157500", "135730.647500", "135732.137500", "135733.627500", "135735.117500", "135736.607500", "135738.097500", "135739.587500", "135741.077500", "135742.567500", "135744.057500", "135745.547500", "135747.037500", "135748.527500", "135750.017500", "135751.507500", "135752.997500", "135754.487500", "135755.977500", "135757.467500", "135758.957500", "135800.447500", "135801.937500", "135803.427500", "135804.917500", "135806.407500", "135807.897500", "135809.387500", "135810.877500", "135812.367500", "135813.857500", "135815.347500", "135816.837500", "135818.327500", "135819.817500", "135821.307500", "135822.797500", "135824.287500", "135825.777500", "135827.267500", "135828.757500", "135830.247500", "135831.737500", "135833.227500", "135834.717500", "135836.207500", "135837.697500", "135839.187500", "135840.677500", "135842.167500", "135843.657500", "135845.147500", "135846.637500", "135848.127500", "135849.617500", "135851.107500", "135852.597500", "135854.087500", "135855.577500", "135857.067500", "135858.557500", "135900.047500", "135901.537500", "135903.027500", "135904.517500", "135906.007500", "135907.497500", "135908.987500", "135910.477500", "135911.967500", "135913.457500", "135914.947500", "135916.437500", "135917.927500", "135919.417500", "135920.907500", "135922.397500", "135923.887500", "135925.377500", "135926.867500", "135928.357500", "135929.847500", "135931.337500", "135932.827500", "135934.317500", "135935.807500", "135937.297500", "135938.787500", "135940.277500", "135941.767500", "135943.257500", "135944.747500", "135946.237500", "135947.727500", "135949.217500", "135950.707500", "135952.197500", "135953.687500", "135955.177500", "135956.667500", "135958.157500", "135959.647500", "140001.137500", "140002.627500", "140004.117500", "140005.607500", "140007.097500", "140008.587500", "140010.077500", "140011.567500", "140013.057500", "140014.547500", "140016.037500", "140017.527500", "140019.017500", "140020.507500", "140021.997500", "140023.487500", "140024.977500", "140026.467500", "140027.957500", "140029.447500", "140030.937500", "140032.427500", "140033.917500", "140035.407500", "140036.897500", "140038.387500", "140039.877500", "140041.367500", "140042.857500", "140044.347500", "140045.837500", "140047.327500", "140048.817500", "140050.307500", "140051.797500", "140053.287500", "140054.777500", "140056.267500", "140057.757500", "140059.247500", "140100.737500", "140102.227500", "140103.717500", "140105.207500", "140106.697500", "140108.187500", "140109.677500", "140111.167500", "140112.657500", "140114.147500", "140115.637500", "140117.127500", "140118.617500", "140120.107500", "140121.597500", "140123.087500", "140124.577500", "140126.067500", "140127.557500", "140129.047500", "140130.537500", "140132.027500", "140133.517500", "140135.007500", "140136.497500", "140137.987500", "140139.477500", "140140.967500", "140142.457500", "140143.947500", "140145.437500", "140146.927500", "140148.417500", "140149.907500", "140151.397500", "140152.887500", "140154.377500", "140155.867500", "140157.357500", "140158.847500", "140200.337500", "140201.827500", "140203.317500", "140204.807500", "140206.297500", "140207.787500", "140209.277500", "140210.767500", "140212.257500", "140213.747500", "140215.237500", "140216.727500", "140218.217500", "140219.707500", "140221.197500", "140222.687500", "140224.177500", "140225.667500", "140227.157500", "140228.647500", "140230.137500", "140231.627500", "140233.117500", "140234.607500", "140236.097500", "140237.587500", "140239.077500", "140240.567500", "140242.057500", "140243.547500", "140245.037500", "140246.527500", "140248.017500", "140249.507500", "140250.997500", "140252.487500", "140253.977500", "140255.467500", "140256.957500", "140258.447500", "140259.937500", "140301.427500", "140302.917500", "140304.407500", "140305.897500", "140307.387500", "140308.877500", "140310.367500", "140311.857500", "140313.347500", "140314.837500", "140316.327500", "140317.817500", "140319.307500", "140320.797500", "140322.287500", "140323.777500", "140325.267500", "140326.757500", "140328.247500", "140329.737500", "140331.227500", "140332.717500", "140334.207500", "140335.697500", "140337.187500", "140338.677500", "140340.167500", "140341.657500", "140343.147500", "140344.637500", "140346.127500", "140347.617500", "140349.107500", "140350.597500", "140352.087500", "140353.577500", "140355.067500", "140356.557500", "140358.047500", "140359.537500", "140401.027500", "140402.517500", "140404.007500", "140405.497500", "140406.987500", "140408.477500", "140409.967500", "140411.457500", "140412.947500", "140414.437500", "140415.927500", "140417.417500", "140418.907500", "140420.397500", "140421.887500", "140423.377500", "140424.867500", "140426.357500", "140427.847500", "140429.337500", "140430.827500", "140432.317500", "140433.807500", "140435.297500", "140436.787500", "140438.277500", "140439.767500", "140441.257500", "140442.747500", "140444.237500", "140445.727500", "140447.217500", "140448.707500", "140450.197500", "140451.687500", "140453.177500", "140454.667500", "140456.157500", "140457.647500", "140459.137500", "140500.627500", "140502.117500", "140503.607500", "140505.097500", "140506.587500", "140508.077500", "140509.567500", "140511.057500", "140512.547500", "140514.037500", "140515.527500", "140517.017500", "140518.507500", "140519.997500", "140521.487500", "140522.977500", "140524.467500", "140525.957500", "140527.447500", "140528.937500", "140530.427500", "140531.917500", "140533.407500", "140534.897500", "140536.387500", "140537.877500", "140539.367500", "140540.857500", "140542.347500", "140543.837500", "140545.327500", "140546.817500", "140548.307500", "140549.797500", "140551.287500", "140552.777500", "140554.267500", "140555.757500", "140557.247500", "140558.737500", "140600.227500", "140601.717500", "140603.207500", "140604.697500", "140606.187500", "140607.677500", "140609.167500", "140610.657500", "140612.147500", "140613.637500", "140615.127500", "140616.617500", "140618.107500", "140619.597500", "140621.087500", "140622.577500", "140624.067500", "140625.557500", "140627.047500", "140628.537500", "140630.027500", "140631.517500", "140633.007500", "140634.497500", "140635.987500", "140637.477500", "140638.967500", "140640.457500", "140641.947500", "140643.437500", "140644.927500", "140646.417500", "140647.907500", "140649.397500", "140650.887500", "140652.377500", "140653.867500", "140655.357500", "140656.847500", "140658.337500", "140659.827500", "140701.317500", "140702.807500", "140704.297500", "140705.787500", "140707.277500", "140708.767500", "140710.257500", "140711.747500", "140713.237500", "140714.727500", "140716.217500", "140717.707500", "140719.197500", "140720.687500", "140722.177500", "140723.667500", "140725.157500", "140726.647500", "140728.137500", "140729.627500", "140731.117500", "140732.607500", "140734.097500", "140735.587500", "140737.077500", "140738.567500", "140740.057500", "140741.547500", "140743.037500", "140744.527500", "140746.017500", "140747.507500", "140748.997500", "140750.487500", "140751.977500", "140753.467500", "140754.957500", "140756.447500", "140757.937500", "140759.427500", "140800.917500", "140802.407500", "140803.897500", "140805.387500", "140806.877500", "140808.367500", "140809.857500", "140811.347500", "140812.837500", "140814.327500", "140815.817500", "140817.307500", "140818.797500", "140820.287500", "140821.777500", "140823.267500", "140824.757500", "140826.247500", "140827.737500", "140829.227500", "140830.717500", "140832.207500", "140833.697500", "140835.187500", "140836.677500", "140838.167500", "140839.657500", "140841.147500", "140842.637500", "140844.127500", "140845.617500"],
      "ContentTime": ["135805.565000", "135805.569000", "135805.571000", "135805.574000", "135805.577000", "135805.580000", "135805.583000", "135805.586000", "135805.597000", "135805.603000", "135805.606000", "135805.609000", "135805.612000", "135805.615000", "135805.618000", "135805.621000", "135805.623000", "135805.626000", "135805.629000", "135805.632000", "135805.635000", "135805.638000", "135805.641000", "135805.643000", "135805.646000", "135805.649000", "135825.529000", "135825.532000", "135825.535000", "135825.538000", "135825.552000", "135825.554000", "135825.557000", "135825.560000", "135825.563000", "135825.566000", "135825.569000", "135825.572000", "135825.574000", "135825.577000", "135825.580000", "135825.583000", "135825.586000", "135825.589000", "135825.592000", "135825.594000", "135845.529000", "135845.532000", "135845.535000", "135845.538000", "135845.540000", "135845.543000", "135845.546000", "135845.549000", "135845.552000", "135845.555000", "135845.558000", "135845.560000", "135845.563000", "135845.566000", "135845.575000", "135845.578000", "135845.581000", "135845.583000", "135845.586000", "135845.590000", "135905.529000", "135905.532000", "135905.535000", "135905.537000", "135905.540000", "135905.543000", "135905.546000", "135905.549000", "135905.552000", "135905.555000", "135905.557000", "135905.560000", "135905.563000", "135905.566000", "135905.569000", "135905.572000", "135905.575000", "135905.578000", "135905.580000", "135905.583000", "135905.586000", "135925.528000", "135925.531000", "135925.534000", "135925.537000", "135925.539000", "135925.542000", "135925.545000", "135925.548000", "135925.551000", "135925.554000", "135925.563000", "135925.566000", "135925.569000", "135925.572000", "135925.575000", "135925.578000", "135925.581000", "135925.583000", "135925.586000", "135925.589000", "135945.529000", "135945.532000", "135945.535000", "135945.538000", "135945.541000", "135945.543000", "135945.546000", "135945.549000", "135945.552000", "135945.555000", "135945.558000", "135945.561000", "135945.563000", "135945.566000", "135945.569000", "135945.572000", "135945.575000", "135945.578000", "135945.581000", "135945.584000", "140025.529000", "140025.532000", "140025.535000", "140025.538000", "140025.541000", "140025.543000", "140025.546000", "140025.549000", "140025.552000", "140025.555000", "140025.558000", "140025.561000", "140025.563000", "140025.566000", "140025.569000", "140025.572000", "140025.575000", "140025.578000", "140025.580000", "140025.583000", "140025.586000", "140025.589000", "140025.592000", "140025.595000", "140025.597000", "140025.600000", "140025.603000", "140025.606000", "140105.529000", "140105.532000", "140105.535000", "140105.538000", "140105.540000", "140105.544000", "140105.546000", "140105.549000", "140105.552000", "140105.555000", "140105.558000", "140105.560000", "140105.563000", "140105.566000", "140105.569000", "140105.572000", "140105.575000", "140105.578000", "140105.585000", "140105.588000", "140105.591000", "140105.594000", "140105.596000", "140105.599000", "140105.602000", "140105.605000", "140105.608000", "140145.528000", "140145.531000", "140145.534000", "140145.537000", "140145.540000", "140145.542000", "140145.545000", "140145.548000", "140145.551000", "140145.554000", "140145.557000", "140145.559000", "140145.562000", "140145.565000", "140145.568000", "140145.571000", "140145.574000", "140145.577000", "140145.602000", "140145.605000", "140145.608000", "140145.611000", "140145.614000", "140145.617000", "140145.620000", "140145.623000", "140145.626000", "140225.529000", "140225.532000", "140225.535000", "140225.538000", "140225.541000", "140225.544000", "140225.546000", "140225.549000", "140225.552000", "140225.555000", "140225.558000", "140225.561000", "140225.564000", "140225.566000", "140225.569000", "140225.572000", "140225.575000", "140225.578000", "140225.581000", "140225.584000", "140225.587000", "140225.590000", "140225.592000", "140225.595000", "140225.598000", "140225.601000", "140225.604000", "140305.529000", "140305.532000", "140305.535000", "140305.538000", "140305.541000", "140305.543000", "140305.546000", "140305.549000", "140305.552000", "140305.560000", "140305.563000", "140305.566000", "140305.568000", "140305.571000", "140305.574000", "140305.577000", "140305.580000", "140305.583000", "140305.586000", "140305.589000", "140305.591000", "140305.594000", "140305.597000", "140305.600000", "140305.603000", "140305.606000", "140305.609000", "140345.529000", "140345.532000", "140345.535000", "140345.538000", "140345.541000", "140345.544000", "140345.546000", "140345.549000", "140345.552000", "140345.555000", "140345.558000", "140345.561000", "140345.563000", "140345.566000", "140345.569000", "140345.572000", "140345.575000", "140345.578000", "140345.581000", "140345.584000", "140345.586000", "140345.589000", "140345.592000", "140345.595000", "140345.598000", "140345.601000", "140345.604000", "140425.529000", "140425.532000", "140425.535000", "140425.538000", "140425.541000", "140425.544000", "140425.547000", "140425.549000", "140425.553000", "140425.556000", "140425.559000", "140425.562000", "140425.565000", "140425.568000", "140425.571000", "140425.574000", "140425.576000", "140425.579000", "140425.582000", "140425.585000", "140425.588000", "140425.591000", "140425.594000", "140425.596000", "140425.599000", "140425.602000", "140505.529000", "140505.532000", "140505.535000", "140505.538000", "140505.541000", "140505.544000", "140505.547000", "140505.549000", "140505.552000", "140505.555000", "140505.558000", "140505.561000", "140505.564000", "140505.567000", "140505.570000", "140505.572000", "140505.575000", "140505.578000", "140505.581000", "140505.584000", "140505.587000", "140505.590000", "140505.599000", "140505.602000", "140505.605000", "140505.607000", "140505.610000", "140545.529000", "140545.532000", "140545.535000", "140545.538000", "140545.541000", "140545.544000", "140545.546000", "140545.549000", "140545.552000", "140545.555000", "140545.558000", "140545.561000", "140545.564000", "140545.566000", "140545.569000", "140545.572000", "140545.575000", "140545.579000", "140545.582000", "140545.584000", "140545.587000", "140545.590000", "140545.593000", "140545.596000", "140545.599000", "140545.602000", "140545.605000", "140625.528000", "140625.531000", "140625.534000", "140625.537000", "140625.540000", "140625.551000", "140625.554000", "140625.557000", "140625.560000", "140625.563000", "140625.566000", "140625.569000", "140625.572000", "140625.575000", "140625.577000", "140625.580000", "140625.583000", "140625.586000", "140625.589000", "140625.592000", "140625.595000", "140625.598000", "140625.600000", "140625.603000", "140625.606000", "140625.609000", "140625.612000", "140705.529000", "140705.532000", "140705.535000", "140705.538000", "140705.541000", "140705.544000", "140705.546000", "140705.549000", "140705.552000", "140705.555000", "140705.558000", "140705.561000", "140705.564000", "140705.566000", "140705.569000", "140705.572000", "140705.575000", "140705.578000", "140705.581000", "140705.584000", "140705.587000", "140705.590000", "140705.592000", "140705.595000", "140705.598000", "140705.601000", "140705.604000", "140745.529000", "140745.532000", "140745.535000", "140745.538000", "140745.541000", "140745.544000", "140745.547000", "140745.549000", "140745.552000", "140745.555000", "140745.558000", "140745.561000", "140745.564000", "140745.566000", "140745.569000", "140745.572000", "140745.575000", "140745.578000", "140745.581000", "140745.584000", "140745.587000", "140745.590000", "140745.593000", "140745.595000", "140745.598000", "140745.601000", "140745.604000", "140825.529000", "140825.532000", "140825.535000", "140825.538000", "140825.541000", "140825.544000", "140825.547000", "140825.550000", "140825.552000", "140825.556000", "140825.559000", "140825.562000", "140825.565000", "140825.567000", "140825.571000", "140825.574000", "140825.577000", "140825.580000", "140825.583000", "140825.585000", "140825.588000", "140825.591000", "140825.594000", "140825.597000", "140825.600000", "140825.603000", "140847.973000", "140847.976000", "140847.979000", "140847.982000", "140847.986000", "140847.989000", "140847.993000", "140847.997000", "140848.001000", "140848.005000", "140848.008000", "140848.012000", "140848.015000", "140848.019000", "140848.022000", "140848.026000"],
