{
  "AcquisitionMatrixPE": 104,
  "AcquisitionNumber": 1,
  "AcquisitionTime": "14:24:22.352500",
  "BandwidthPerPixelPhaseEncode": 17.17,
  "BaseResolution": 104,
  "BodyPartExamined": "BRAIN",
  "CoilString": "HC1-7;NC1_2",
  "ConsistencyInfo": "N4_VE11C_LATEST_20160120",
  "ConversionSoftware": "dcm2niix",
  "ConversionSoftwareVersion": "v1.0.20200427",
  "DerivedVendorReportedEchoSpacing": 0.000560011,
  "DeviceSerialNumber": "167006",
  "DwellTime": 2.1e-06,
  "EchoTime": 0.037,
  "EchoTrainLength": 104,
  "EffectiveEchoSpacing": 0.000560011,
  "FlipAngle": 52,
  "ImageComments": "Unaliased_MB4_PE3_LB",
  "ImageOrientationPatientDICOM": [0.999873, -0.0141775, -0.00726169, 0.0115182, 0.958401, -0.285193],
  "ImageType": [
    "ORIGINAL",
    "PRIMARY",
    "M",
    "MB",
    "ND",
    "MOSAIC"
],
  "ImagingFrequency": 123.258,
  "InPlanePhaseEncodingDirectionDICOM": "COL",
  "InstitutionAddress": "Chemin_Queen-Mary_4565_Montreal_District_CA_H3W_1W5",
  "InstitutionName": "IUGM",
  "InstitutionalDepartmentName": "Department",
  "MRAcquisitionType": "2D",
  "MagneticFieldStrength": 3,
  "Manufacturer": "Siemens",
  "ManufacturersModelName": "Prisma_fit",
  "Modality": "MR",
  "MultibandAccelerationFactor": 4,
  "PartialFourier": 1,
  "PatientPosition": "HFS",
  "PercentPhaseFOV": 100,
  "PercentSampling": 100,
  "PhaseEncodingDirection": "j",
  "PhaseEncodingSteps": 104,
  "PhaseResolution": 1,
  "PixelBandwidth": 2290,
  "ProcedureStepDescription": "video_friends",
  "ProtocolName": "func_task-friends-s02e24a",
  "PulseSequenceDetails": "%CustomerSeq%_cmrr_mbep2d_bold",
  "ReceiveCoilActiveElements": "HC1-7;NC1,2",
  "ReceiveCoilName": "HeadNeck_64",
  "ReconMatrixPE": 104,
  "RepetitionTime": 1.49,
  "SAR": 0.0295143,
  "ScanOptions": "FS",
  "ScanningSequence": "EP",
  "SequenceName": "epfid2d1_104",
  "SequenceVariant": "SK_SS",
  "SeriesDescription": "func_task-friends-s02e24a",
  "SeriesNumber": 20,
  "ShimSetting": [614, -7220, -8800, 694, -8, -7, 44, 9],
  "SliceThickness": 2,
  "SliceTiming": [0, 0.7825, 0.0975, 0.88, 0.195, 0.98, 0.2925, 1.0775, 0.39, 1.175, 0.49, 1.2725, 0.5875, 1.37, 0.685, 0, 0.7825, 0.0975, 0.88, 0.195, 0.98, 0.2925, 1.0775, 0.39, 1.175, 0.49, 1.2725, 0.5875, 1.37, 0.685, 0, 0.7825, 0.0975, 0.88, 0.195, 0.98, 0.2925, 1.0775, 0.39, 1.175, 0.49, 1.2725, 0.5875, 1.37, 0.685, 0, 0.7825, 0.0975, 0.88, 0.195, 0.98, 0.2925, 1.0775, 0.39, 1.175, 0.49, 1.2725, 0.5875, 1.37, 0.685],
  "SoftwareVersions": "syngo_MR_E11",
  "SpacingBetweenSlices": 2,
  "StationName": "MRC35049",
  "TaskName": "s02e24a",
  "TotalReadoutTime": 0.0576811,
  "TxRefAmp": 208.137,
  "WipMemBlock": "24fd4958-a7df-4016-9102-8d777a5bf8fb||Sequence: R016 ve11c/master r/e634e98; Dec 19 2017 11:00:25 by eja",
  "dcmmeta_affine": [
    [-1.9997462034225464, 0.023036470636725426, -0.022005876526236534, 104.15216064453125],
    [0.028355052694678307, 1.916801929473877, -0.5701459050178528, -82.99043273925781],
    [-0.014523377642035484, 0.5703855752944946, 1.9168853759765625, -64.1527099609375],
    [0.0, 0.0, 0.0, 1.0]
],
  "dcmmeta_reorient_transform": [
    [0.0, -1.0, 0.0, 103.0],
    [1.0, 0.0, 0.0, 0.0],
    [0.0, 0.0, 1.0, 0.0],
    [0.0, 0.0, 0.0, 1.0]
],
  "dcmmeta_shape": [104, 104, 60, 469],
  "dcmmeta_slice_dim": 2,
  "dcmmeta_version": 0.6,
  "global": {
    "const": {
      "AcquisitionMatrix": [104, 0, 0, 104],
      "AngioFlag": "N",
      "BitsAllocated": 16,
      "BitsStored": 16,
      "BodyPartExamined": "BRAIN",
      "Columns": 832,
      "EchoNumbers": 1,
      "EchoTime": 37.0,
      "EchoTrainLength": 104,
      "FlipAngle": 52.0,
      "HighBit": 15,
      "ImageOrientationPatient": [0.99987312475727, -0.0141775266384, -0.00726168896, 0.011518235257, 0.95840096274492, -0.2851927854385],
      "ImagePositionPatient": [-842.81782602276, -801.83482367582, 207.5038625067],
      "ImageType": [
        "ORIGINAL",
        "PRIMARY",
        "M",
        "MB",
        "ND",
        "MOSAIC"
],
      "ImagedNucleus": "1H",
      "ImagingFrequency": 123.258402,
      "InPlanePhaseEncodingDirection": "COL",
      "MRAcquisitionType": "2D",
      "MagneticFieldStrength": 3.0,
      "Manufacturer": "SIEMENS",
      "ManufacturerModelName": "Prisma_fit",
      "Modality": "MR",
      "NumberOfAverages": 1.0,
      "NumberOfPhaseEncodingSteps": 104,
      "PercentPhaseFieldOfView": 100.0,
      "PercentSampling": 100.0,
      "PerformedProcedureStepStartTime": "132907.304000",
      "PhotometricInterpretation": "MONOCHROME2",
      "PixelBandwidth": 2290.0,
      "PixelRepresentation": 0,
      "PixelSpacing": [2.0, 2.0],
      "ProtocolName": "func_task-friends-s02e24a",
      "RepetitionTime": 1490.0,
      "Rows": 832,
      "SAR": 0.02951431430463,
      "SamplesPerPixel": 1,
      "ScanOptions": "FS",
      "ScanningSequence": "EP",
      "SequenceName": "epfid2d1_104",
      "SequenceVariant": [
        "SK",
        "SS"
],
      "SeriesDescription": "func_task-friends-s02e24a",
      "SeriesNumber": 20,
      "SeriesTime": "142556.788000",
      "SliceLocation": -38.97434357989,
      "SliceThickness": 2.0,
      "SmallestImagePixelValue": 0,
      "SoftwareVersions": "syngo MR E11",
      "SpacingBetweenSlices": 2.0000000417948,
      "SpecificCharacterSet": "ISO_IR 100",
      "StudyID": "1",
      "StudyTime": "132907.226000",
      "TransmitCoilName": "Body",
      "VariableFlipAngleFlag": "N",
      "WindowCenterWidthExplanation": "Algo1",
      "dBdt": 0.0},
    "slices": {}
  },
  "time": {
    "samples": {
      "AcquisitionNumber": [1, 2, 3, 4, 5, 6, 7, 8, 9, 10, 11, 12, 13, 14, 15, 16, 17, 18, 19, 20, 21, 22, 23, 24, 25, 26, 27, 28, 29, 30, 31, 32, 33, 34, 35, 36, 37, 38, 39, 40, 41, 42, 43, 44, 45, 46, 47, 48, 49, 50, 51, 52, 53, 54, 55, 56, 57, 58, 59, 60, 61, 62, 63, 64, 65, 66, 67, 68, 69, 70, 71, 72, 73, 74, 75, 76, 77, 78, 79, 80, 81, 82, 83, 84, 85, 86, 87, 88, 89, 90, 91, 92, 93, 94, 95, 96, 97, 98, 99, 100, 101, 102, 103, 104, 105, 106, 107, 108, 109, 110, 111, 112, 113, 114, 115, 116, 117, 118, 119, 120, 121, 122, 123, 124, 125, 126, 127, 128, 129, 130, 131, 132, 133, 134, 135, 136, 137, 138, 139, 140, 141, 142, 143, 144, 145, 146, 147, 148, 149, 150, 151, 152, 153, 154, 155, 156, 157, 158, 159, 160, 161, 162, 163, 164, 165, 166, 167, 168, 169, 170, 171, 172, 173, 174, 175, 176, 177, 178, 179, 180, 181, 182, 183, 184, 185, 186, 187, 188, 189, 190, 191, 192, 193, 194, 195, 196, 197, 198, 199, 200, 201, 202, 203, 204, 205, 206, 207, 208, 209, 210, 211, 212, 213, 214, 215, 216, 217, 218, 219, 220, 221, 222, 223, 224, 225, 226, 227, 228, 229, 230, 231, 232, 233, 234, 235, 236, 237, 238, 239, 240, 241, 242, 243, 244, 245, 246, 247, 248, 249, 250, 251, 252, 253, 254, 255, 256, 257, 258, 259, 260, 261, 262, 263, 264, 265, 266, 267, 268, 269, 270, 271, 272, 273, 274, 275, 276, 277, 278, 279, 280, 281, 282, 283, 284, 285, 286, 287, 288, 289, 290, 291, 292, 293, 294, 295, 296, 297, 298, 299, 300, 301, 302, 303, 304, 305, 306, 307, 308, 309, 310, 311, 312, 313, 314, 315, 316, 317, 318, 319, 320, 321, 322, 323, 324, 325, 326, 327, 328, 329, 330, 331, 332, 333, 334, 335, 336, 337, 338, 339, 340, 341, 342, 343, 344, 345, 346, 347, 348, 349, 350, 351, 352, 353, 354, 355, 356, 357, 358, 359, 360, 361, 362, 363, 364, 365, 366, 367, 368, 369, 370, 371, 372, 373, 374, 375, 376, 377, 378, 379, 380, 381, 382, 383, 384, 385, 386, 387, 388, 389, 390, 391, 392, 393, 394, 395, 396, 397, 398, 399, 400, 401, 402, 403, 404, 405, 406, 407, 408, 409, 410, 411, 412, 413, 414, 415, 416, 417, 418, 419, 420, 421, 422, 423, 424, 425, 426, 427, 428, 429, 430, 431, 432, 433, 434, 435, 436, 437, 438, 439, 440, 441, 442, 443, 444, 445, 446, 447, 448, 449, 450, 451, 452, 453, 454, 455, 456, 457, 458, 459, 460, 461, 462, 463, 464, 465, 466, 467, 468, 469],
      "AcquisitionTime": ["142422.352500", "142423.842500", "142425.332500", "142426.822500", "142428.312500", "142429.802500", "142431.292500", "142432.782500", "142434.272500", "142435.762500", "142437.252500", "142438.742500", "142440.232500", "142441.722500", "142443.212500", "142444.702500", "142446.192500", "142447.682500", "142449.172500", "142450.662500", "142452.152500", "142453.642500", "142455.132500", "142456.622500", "142458.112500", "142459.602500", "142501.092500", "142502.582500", "142504.072500", "142505.562500", "142507.052500", "142508.542500", "142510.032500", "142511.522500", "142513.012500", "142514.502500", "142515.992500", "142517.482500", "142518.972500", "142520.462500", "142521.952500", "142523.442500", "142524.932500", "142526.422500", "142527.912500", "142529.402500", "142530.892500", "142532.382500", "142533.872500", "142535.362500", "142536.852500", "142538.342500", "142539.832500", "142541.322500", "142542.812500", "142544.302500", "142545.792500", "142547.282500", "142548.772500", "142550.262500", "142551.752500", "142553.242500", "142554.732500", "142556.222500", "142557.712500", "142559.202500", "142600.692500", "142602.182500", "142603.672500", "142605.162500", "142606.652500", "142608.142500", "142609.632500", "142611.122500", "142612.612500", "142614.102500", "142615.592500", "142617.082500", "142618.572500", "142620.062500", "142621.552500", "142623.042500", "142624.532500", "142626.022500", "142627.512500", "142629.002500", "142630.492500", "142631.982500", "142633.472500", "142634.962500", "142636.452500", "142637.942500", "142639.432500", "142640.922500", "142642.412500", "142643.902500", "142645.392500", "142646.882500", "142648.372500", "142649.862500", "142651.352500", "142652.842500", "142654.332500", "142655.822500", "142657.312500", "142658.802500", "142700.292500", "142701.782500", "142703.272500", "142704.762500", "142706.252500", "142707.742500", "142709.232500", "142710.722500", "142712.212500", "142713.702500", "142715.192500", "142716.682500", "142718.172500", "142719.662500", "142721.152500", "142722.642500", "142724.132500", "142725.622500", "142727.112500", "142728.602500", "142730.092500", "142731.582500", "142733.072500", "142734.562500", "142736.052500", "142737.542500", "142739.032500", "142740.522500", "142742.012500", "142743.502500", "142744.992500", "142746.482500", "142747.972500", "142749.462500", "142750.952500", "142752.442500", "142753.932500", "142755.422500", "142756.912500", "142758.402500", "142759.892500", "142801.382500", "142802.872500", "142804.362500", "142805.852500", "142807.342500", "142808.832500", "142810.322500", "142811.812500", "142813.302500", "142814.792500", "142816.282500", "142817.772500", "142819.262500", "142820.752500", "142822.242500", "142823.732500", "142825.222500", "142826.712500", "142828.202500", "142829.692500", "142831.182500", "142832.672500", "142834.162500", "142835.652500", "142837.142500", "142838.632500", "142840.122500", "142841.612500", "142843.102500", "142844.592500", "142846.082500", "142847.572500", "142849.062500", "142850.552500", "142852.042500", "142853.532500", "142855.022500", "142856.512500", "142858.002500", "142859.492500", "142900.982500", "142902.472500", "142903.962500", "142905.452500", "142906.942500", "142908.432500", "142909.922500", "142911.412500", "142912.902500", "142914.392500", "142915.882500", "142917.372500", "142918.862500", "142920.352500", "142921.842500", "142923.332500", "142924.822500", "142926.312500", "142927.802500", "142929.292500", "142930.782500", "142932.272500", "142933.762500", "142935.252500", "142936.742500", "142938.232500", "142939.722500", "142941.212500", "142942.702500", "142944.192500", "142945.682500", "142947.172500", "142948.662500", "142950.152500", "142951.642500", "142953.132500", "142954.622500", "142956.112500", "142957.602500", "142959.092500", "143000.582500", "143002.072500", "143003.562500", "143005.052500", "143006.542500", "143008.032500", "143009.522500", "143011.012500", "143012.502500", "143013.992500", "143015.482500", "143016.972500", "143018.462500", "143019.952500", "143021.442500", "143022.932500", "143024.422500", "143025.912500", "143027.402500", "143028.892500", "143030.382500", "143031.872500", "143033.362500", "143034.852500", "143036.342500", "143037.832500", "143039.322500", "143040.812500", "143042.302500", "143043.792500", "143045.282500", "143046.772500", "143048.262500", "143049.752500", "143051.242500", "143052.732500", "143054.222500", "143055.712500", "143057.202500", "143058.692500", "143100.182500", "143101.672500", "143103.162500", "143104.652500", "143106.142500", "143107.632500", "143109.122500", "143110.612500", "143112.102500", "143113.592500", "143115.082500", "143116.572500", "143118.062500", "143119.552500", "143121.042500", "143122.532500", "143124.022500", "143125.512500", "143127.002500", "143128.492500", "143129.982500", "143131.472500", "143132.962500", "143134.452500", "143135.942500", "143137.432500", "143138.922500", "143140.412500", "143141.902500", "143143.392500", "143144.882500", "143146.372500", "143147.862500", "143149.352500", "143150.842500", "143152.332500", "143153.822500", "143155.312500", "143156.802500", "143158.292500", "143159.782500", "143201.272500", "143202.762500", "143204.252500", "143205.742500", "143207.232500", "143208.722500", "143210.212500", "143211.702500", "143213.192500", "143214.682500", "143216.172500", "143217.662500", "143219.152500", "143220.642500", "143222.132500", "143223.622500", "143225.112500", "143226.602500", "143228.092500", "143229.582500", "143231.072500", "143232.562500", "143234.052500", "143235.542500", "143237.032500", "143238.522500", "143240.012500", "143241.502500", "143242.992500", "143244.482500", "143245.972500", "143247.462500", "143248.952500", "143250.442500", "143251.932500", "143253.422500", "143254.912500", "143256.402500", "143257.892500", "143259.382500", "143300.872500", "143302.362500", "143303.852500", "143305.342500", "143306.832500", "143308.322500", "143309.812500", "143311.302500", "143312.792500", "143314.282500", "143315.772500", "143317.262500", "143318.752500", "143320.242500", "143321.732500", "143323.222500", "143324.712500", "143326.202500", "143327.692500", "143329.182500", "143330.672500", "143332.162500", "143333.652500", "143335.142500", "143336.632500", "143338.122500", "143339.612500", "143341.102500", "143342.592500", "143344.082500", "143345.572500", "143347.062500", "143348.552500", "143350.042500", "143351.532500", "143353.022500", "143354.512500", "143356.002500", "143357.492500", "143358.982500", "143400.472500", "143401.962500", "143403.452500", "143404.942500", "143406.432500", "143407.922500", "143409.412500", "143410.902500", "143412.392500", "143413.882500", "143415.372500", "143416.862500", "143418.352500", "143419.842500", "143421.332500", "143422.822500", "143424.312500", "143425.802500", "143427.292500", "143428.782500", "143430.272500", "143431.762500", "143433.252500", "143434.742500", "143436.232500", "143437.722500", "143439.212500", "143440.702500", "143442.192500", "143443.682500", "143445.172500", "143446.662500", "143448.152500", "143449.642500", "143451.132500", "143452.622500", "143454.112500", "143455.602500", "143457.092500", "143458.582500", "143500.072500", "143501.562500", "143503.052500", "143504.542500", "143506.032500", "143507.522500", "143509.012500", "143510.502500", "143511.992500", "143513.482500", "143514.972500", "143516.462500", "143517.952500", "143519.442500", "143520.932500", "143522.422500", "143523.912500", "143525.402500", "143526.892500", "143528.382500", "143529.872500", "143531.362500", "143532.852500", "143534.342500", "143535.832500", "143537.322500", "143538.812500", "143540.302500", "143541.792500", "143543.282500", "143544.772500", "143546.262500", "143547.752500", "143549.242500", "143550.732500", "143552.222500", "143553.712500", "143555.202500", "143556.692500", "143558.182500", "143559.672500"],
      "ContentTime": ["142556.790000", "142556.794000", "142556.797000", "142556.803000", "142556.806000", "142556.809000", "142556.811000", "142556.815000", "142556.817000", "142556.820000", "142556.823000", "142556.826000", "142556.829000", "142556.832000", "142556.835000", "142556.838000", "142556.841000", "142556.844000", "142556.847000", "142556.849000", "142556.852000", "142556.855000", "142556.858000", "142556.861000", "142556.869000", "142556.872000", "142556.875000", "142556.878000", "142556.881000", "142556.883000", "142556.886000", "142556.889000", "142556.892000", "142616.759000", "142616.762000", "142616.765000", "142616.768000", "142616.770000", "142616.773000", "142616.776000", "142616.779000", "142616.782000", "142616.785000", "142616.788000", "142616.791000", "142616.794000", "142616.796000", "142616.799000", "142616.802000", "142616.805000", "142616.808000", "142616.811000", "142616.813000", "142636.759000", "142636.762000", "142636.765000", "142636.768000", "142636.770000", "142636.773000", "142636.776000", "142636.779000", "142636.782000", "142636.785000", "142636.788000", "142636.791000", "142636.793000", "142636.796000", "142636.799000", "142636.802000", "142636.805000", "142636.808000", "142636.811000", "142636.814000", "142656.759000", "142656.762000", "142656.765000", "142656.768000", "142656.770000", "142656.773000", "142656.776000", "142656.783000", "142656.786000", "142656.789000", "142656.792000", "142656.794000", "142656.797000", "142656.800000", "142656.803000", "142656.806000", "142656.809000", "142656.812000", "142656.815000", "142656.818000", "142716.759000", "142716.762000", "142716.765000", "142716.768000", "142716.770000", "142716.773000", "142716.776000", "142716.779000", "142716.782000", "142716.785000", "142716.788000", "142716.790000", "142716.793000", "142716.808000", "142716.811000", "142716.814000", "142716.817000", "142716.820000", "142716.823000", "142716.826000", "142756.759000", "142756.762000", "142756.765000", "142756.768000", "142756.771000", "142756.774000", "142756.777000", "142756.779000", "142756.782000", "142756.785000", "142756.788000", "142756.791000", "142756.794000", "142756.797000", "142756.800000", "142756.803000", "142756.805000", "142756.808000", "142756.811000", "142756.814000", "142756.817000", "142756.820000", "142756.823000", "142756.825000", "142756.828000", "142756.831000", "142756.834000", "142756.837000", "142756.840000", "142756.843000", "142836.759000", "142836.762000", "142836.765000", "142836.768000", "142836.771000", "142836.774000", "142836.776000", "142836.779000", "142836.782000", "142836.785000", "142836.788000", "142836.791000", "142836.794000", "142836.797000", "142836.800000", "142836.803000", "142836.805000", "142836.808000", "142836.811000", "142836.814000", "142836.817000", "142836.820000", "142836.823000", "142836.825000", "142836.828000", "142836.831000", "142836.834000", "142916.759000", "142916.762000", "142916.769000", "142916.772000", "142916.774000", "142916.777000", "142916.780000", "142916.783000", "142916.786000", "142916.789000", "142916.792000", "142916.795000", "142916.798000", "142916.801000", "142916.804000", "142916.807000", "142916.811000", "142916.814000", "142916.817000", "142916.820000", "142916.823000", "142916.825000", "142916.829000", "142916.831000", "142916.834000", "142916.837000", "142956.759000", "142956.762000", "142956.773000", "142956.776000", "142956.779000", "142956.781000", "142956.785000", "142956.787000", "142956.790000", "142956.793000", "142956.797000", "142956.799000", "142956.802000", "142956.805000", "142956.808000", "142956.811000", "142956.814000", "142956.817000", "142956.820000", "142956.823000", "142956.826000", "142956.828000", "142956.831000", "142956.834000", "142956.837000", "142956.840000", "142956.843000", "143036.759000", "143036.762000", "143036.765000", "143036.768000", "143036.771000", "143036.774000", "143036.777000", "143036.779000", "143036.782000", "143036.785000", "143036.788000", "143036.791000", "143036.794000", "143036.797000", "143036.800000", "143036.802000", "143036.805000", "143036.808000", "143036.811000", "143036.814000", "143036.817000", "143036.820000", "143036.823000", "143036.825000", "143036.828000", "143036.831000", "143036.834000", "143116.759000", "143116.762000", "143116.765000", "143116.768000", "143116.771000", "143116.774000", "143116.777000", "143116.780000", "143116.783000", "143116.786000", "143116.789000", "143116.791000", "143116.794000", "143116.797000", "143116.800000", "143116.803000", "143116.806000", "143116.809000", "143116.812000", "143116.815000", "143116.818000", "143116.821000", "143116.824000", "143116.826000", "143116.829000", "143116.832000", "143116.835000", "143156.759000", "143156.762000", "143156.765000", "143156.768000", "143156.771000", "143156.774000", "143156.776000", "143156.779000", "143156.782000", "143156.785000", "143156.788000", "143156.791000", "143156.794000", "143156.797000", "143156.800000", "143156.803000", "143156.805000", "143156.808000", "143156.811000", "143156.814000", "143156.817000", "143156.820000", "143156.823000", "143156.825000", "143156.828000", "143156.831000", "143156.834000", "143236.759000", "143236.762000", "143236.765000", "143236.768000", "143236.785000", "143236.788000", "143236.791000", "143236.794000", "143236.797000", "143236.800000", "143236.803000", "143236.806000", "143236.808000", "143236.811000", "143236.814000", "143236.817000", "143236.820000", "143236.823000", "143236.826000", "143236.828000", "143236.831000", "143236.834000", "143236.837000", "143236.840000", "143236.843000", "143236.848000", "143236.851000", "143316.759000", "143316.762000", "143316.765000", "143316.768000", "143316.771000", "143316.774000", "143316.777000", "143316.780000", "143316.783000", "143316.786000", "143316.789000", "143316.792000", "143316.795000", "143316.797000", "143316.800000", "143316.803000", "143316.806000", "143316.809000", "143316.812000", "143316.815000", "143316.820000", "143316.823000", "143316.827000", "143316.830000", "143316.833000", "143316.836000", "143356.759000", "143356.762000", "143356.765000", "143356.768000", "143356.771000", "143356.774000", "143356.777000", "143356.779000", "143356.782000", "143356.785000", "143356.788000", "143356.791000", "143356.794000", "143356.797000", "143356.800000", "143356.803000", "143356.806000", "143356.809000", "143356.811000", "143356.815000", "143356.817000", "143356.820000", "143356.823000", "143356.826000", "143356.829000", "143356.832000", "143356.835000", "143436.759000", "143436.762000", "143436.765000", "143436.768000", "143436.771000", "143436.774000", "143436.777000", "143436.779000", "143436.782000", "143436.785000", "143436.788000", "143436.791000", "143436.794000", "143436.797000", "143436.800000", "143436.803000", "143436.806000", "143436.808000", "143436.812000", "143436.814000", "143436.817000", "143436.820000", "143436.823000", "143436.826000", "143436.829000", "143436.832000", "143436.834000", "143516.759000", "143516.762000", "143516.765000", "143516.768000", "143516.771000", "143516.774000", "143516.777000", "143516.780000", "143516.783000", "143516.786000", "143516.789000", "143516.792000", "143516.795000", "143516.797000", "143516.800000", "143516.803000", "143516.806000", "143516.809000", "143516.812000", "143516.815000", "143516.818000", "143516.820000", "143516.823000", "143516.826000", "143516.829000", "143516.832000", "143516.835000", "143556.759000", "143556.762000", "143556.765000", "143556.768000", "143556.771000", "143556.774000", "143556.777000", "143556.780000", "143556.783000", "143556.786000", "143556.789000", "143556.791000", "143556.795000", "143556.798000", "143556.800000", "143556.803000", "143556.806000", "143556.809000", "143556.812000", "143556.815000", "143556.818000", "143556.821000", "143556.824000", "143556.827000", "143556.830000", "143556.833000", "143556.835000", "143602.259000", "143602.263000", "143602.265000", "143602.268000"],
