{
  "AcquisitionMatrixPE": 104,
  "AcquisitionNumber": 1,
  "AcquisitionTime": "14:06:29.395000",
  "BandwidthPerPixelPhaseEncode": 17.17,
  "BaseResolution": 104,
  "BodyPartExamined": "BRAIN",
  "CoilString": "HC1-7;NC1_2",
  "ConsistencyInfo": "N4_VE11C_LATEST_20160120",
  "ConversionSoftware": "dcm2niix",
  "ConversionSoftwareVersion": "v1.0.20200427",
  "DerivedVendorReportedEchoSpacing": 0.000560011,
  "DeviceSerialNumber": "167006",
  "DwellTime": 2.1e-06,
  "EchoTime": 0.037,
  "EchoTrainLength": 104,
  "EffectiveEchoSpacing": 0.000560011,
  "FlipAngle": 52,
  "ImageComments": "Unaliased_MB4_PE3_LB",
  "ImageOrientationPatientDICOM": [0.999915, -0.00760005, 0.0106033, 0.0102969, 0.95884, -0.283761],
  "ImageType": [
    "ORIGINAL",
    "PRIMARY",
    "M",
    "MB",
    "ND",
    "MOSAIC"
],
  "ImagingFrequency": 123.258,
  "InPlanePhaseEncodingDirectionDICOM": "COL",
  "InstitutionAddress": "Chemin_Queen-Mary_4565_Montreal_District_CA_H3W_1W5",
  "InstitutionName": "IUGM",
  "InstitutionalDepartmentName": "Department",
  "MRAcquisitionType": "2D",
  "MagneticFieldStrength": 3,
  "Manufacturer": "Siemens",
  "ManufacturersModelName": "Prisma_fit",
  "Modality": "MR",
  "MultibandAccelerationFactor": 4,
  "PartialFourier": 1,
  "PatientPosition": "HFS",
  "PercentPhaseFOV": 100,
  "PercentSampling": 100,
  "PhaseEncodingDirection": "j",
  "PhaseEncodingSteps": 104,
  "PhaseResolution": 1,
  "PixelBandwidth": 2290,
  "ProcedureStepDescription": "video_friends",
  "ProtocolName": "func_task-friends-s02e23b",
  "PulseSequenceDetails": "%CustomerSeq%_cmrr_mbep2d_bold",
  "ReceiveCoilActiveElements": "HC1-7;NC1,2",
  "ReceiveCoilName": "HeadNeck_64",
  "ReconMatrixPE": 104,
  "RepetitionTime": 1.49,
  "SAR": 0.0278726,
  "ScanOptions": "FS",
  "ScanningSequence": "EP",
  "SequenceName": "epfid2d1_104",
  "SequenceVariant": "SK_SS",
  "SeriesDescription": "func_task-friends-s02e23b",
  "SeriesNumber": 11,
  "ShimSetting": [621, -7220, -8796, 704, 11, -35, 26, 13],
  "SliceThickness": 2,
  "SliceTiming": [0, 0.7825, 0.0975, 0.8825, 0.195, 0.98, 0.2925, 1.0775, 0.3925, 1.175, 0.49, 1.2725, 0.5875, 1.3725, 0.685, 0, 0.7825, 0.0975, 0.8825, 0.195, 0.98, 0.2925, 1.0775, 0.3925, 1.175, 0.49, 1.2725, 0.5875, 1.3725, 0.685, 0, 0.7825, 0.0975, 0.8825, 0.195, 0.98, 0.2925, 1.0775, 0.3925, 1.175, 0.49, 1.2725, 0.5875, 1.3725, 0.685, 0, 0.7825, 0.0975, 0.8825, 0.195, 0.98, 0.2925, 1.0775, 0.3925, 1.175, 0.49, 1.2725, 0.5875, 1.3725, 0.685],
  "SoftwareVersions": "syngo_MR_E11",
  "SpacingBetweenSlices": 2,
  "StationName": "MRC35049",
  "TaskName": "s02e23b",
  "TotalReadoutTime": 0.0576811,
  "TxRefAmp": 204.656,
  "WipMemBlock": "50e4beb2-55d2-49a6-b5ef-3c4bd018210d||Sequence: R016 ve11c/master r/e634e98; Dec 19 2017 11:00:25 by eja",
  "dcmmeta_affine": [
    [-1.9998297691345215, 0.02059379406273365, 0.016020478680729866, 103.26204681396484],
    [0.015200094319880009, 1.9176795482635498, -0.5676918625831604, -82.8443603515625],
    [0.021206537261605263, 0.5675218105316162, 1.917672872543335, -61.96731185913086],
    [0.0, 0.0, 0.0, 1.0]
],
  "dcmmeta_reorient_transform": [
    [0.0, -1.0, 0.0, 103.0],
    [1.0, 0.0, 0.0, 0.0],
    [0.0, 0.0, 1.0, 0.0],
    [0.0, 0.0, 0.0, 1.0]
],
  "dcmmeta_shape": [104, 104, 60, 456],
  "dcmmeta_slice_dim": 2,
  "dcmmeta_version": 0.6,
  "global": {
    "const": {
      "AcquisitionMatrix": [104, 0, 0, 104],
      "AngioFlag": "N",
      "BitsAllocated": 16,
      "BitsStored": 16,
      "BodyPartExamined": "BRAIN",
      "Columns": 832,
      "EchoNumbers": 1,
      "EchoTime": 37.0,
      "EchoTrainLength": 104,
      "FlipAngle": 52.0,
      "HighBit": 15,
      "ImageOrientationPatient": [0.99991490136799, -0.0076000470962, 0.01060326866476, 0.0102968968276, 0.95883978012423, -0.2837609028162],
      "ImagePositionPatient": [-840.81739721722, -807.17916238524, 195.3461921413],
      "ImageType": [
        "ORIGINAL",
        "PRIMARY",
        "M",
        "MB",
        "ND",
        "MOSAIC"
],
      "ImagedNucleus": "1H",
      "ImagingFrequency": 123.258394,
      "InPlanePhaseEncodingDirection": "COL",
      "MRAcquisitionType": "2D",
      "MagneticFieldStrength": 3.0,
      "Manufacturer": "SIEMENS",
      "ManufacturerModelName": "Prisma_fit",
      "Modality": "MR",
      "NumberOfAverages": 1.0,
      "NumberOfPhaseEncodingSteps": 104,
      "PercentPhaseFieldOfView": 100.0,
      "PercentSampling": 100.0,
      "PerformedProcedureStepStartTime": "132907.304000",
      "PhotometricInterpretation": "MONOCHROME2",
      "PixelBandwidth": 2290.0,
      "PixelRepresentation": 0,
      "PixelSpacing": [2.0, 2.0],
      "ProtocolName": "func_task-friends-s02e23b",
      "RepetitionTime": 1490.0,
      "Rows": 832,
      "SAR": 0.02787264942198,
      "SamplesPerPixel": 1,
      "ScanOptions": "FS",
      "ScanningSequence": "EP",
      "SequenceName": "epfid2d1_104",
      "SequenceVariant": [
        "SK",
        "SS"
],
      "SeriesDescription": "func_task-friends-s02e23b",
      "SeriesNumber": 11,
      "SeriesTime": "140800.561000",
      "SliceLocation": -35.074328362639,
      "SliceThickness": 2.0,
      "SmallestImagePixelValue": 0,
      "SoftwareVersions": "syngo MR E11",
      "SpacingBetweenSlices": 2.0000000057657,
      "SpecificCharacterSet": "ISO_IR 100",
      "StudyID": "1",
      "StudyTime": "132907.226000",
      "TransmitCoilName": "Body",
      "VariableFlipAngleFlag": "N",
      "WindowCenterWidthExplanation": "Algo1",
      "dBdt": 0.0},
    "slices": {}
  },
  "time": {
    "samples": {
      "AcquisitionNumber": [1, 2, 3, 4, 5, 6, 7, 8, 9, 10, 11, 12, 13, 14, 15, 16, 17, 18, 19, 20, 21, 22, 23, 24, 25, 26, 27, 28, 29, 30, 31, 32, 33, 34, 35, 36, 37, 38, 39, 40, 41, 42, 43, 44, 45, 46, 47, 48, 49, 50, 51, 52, 53, 54, 55, 56, 57, 58, 59, 60, 61, 62, 63, 64, 65, 66, 67, 68, 69, 70, 71, 72, 73, 74, 75, 76, 77, 78, 79, 80, 81, 82, 83, 84, 85, 86, 87, 88, 89, 90, 91, 92, 93, 94, 95, 96, 97, 98, 99, 100, 101, 102, 103, 104, 105, 106, 107, 108, 109, 110, 111, 112, 113, 114, 115, 116, 117, 118, 119, 120, 121, 122, 123, 124, 125, 126, 127, 128, 129, 130, 131, 132, 133, 134, 135, 136, 137, 138, 139, 140, 141, 142, 143, 144, 145, 146, 147, 148, 149, 150, 151, 152, 153, 154, 155, 156, 157, 158, 159, 160, 161, 162, 163, 164, 165, 166, 167, 168, 169, 170, 171, 172, 173, 174, 175, 176, 177, 178, 179, 180, 181, 182, 183, 184, 185, 186, 187, 188, 189, 190, 191, 192, 193, 194, 195, 196, 197, 198, 199, 200, 201, 202, 203, 204, 205, 206, 207, 208, 209, 210, 211, 212, 213, 214, 215, 216, 217, 218, 219, 220, 221, 222, 223, 224, 225, 226, 227, 228, 229, 230, 231, 232, 233, 234, 235, 236, 237, 238, 239, 240, 241, 242, 243, 244, 245, 246, 247, 248, 249, 250, 251, 252, 253, 254, 255, 256, 257, 258, 259, 260, 261, 262, 263, 264, 265, 266, 267, 268, 269, 270, 271, 272, 273, 274, 275, 276, 277, 278, 279, 280, 281, 282, 283, 284, 285, 286, 287, 288, 289, 290, 291, 292, 293, 294, 295, 296, 297, 298, 299, 300, 301, 302, 303, 304, 305, 306, 307, 308, 309, 310, 311, 312, 313, 314, 315, 316, 317, 318, 319, 320, 321, 322, 323, 324, 325, 326, 327, 328, 329, 330, 331, 332, 333, 334, 335, 336, 337, 338, 339, 340, 341, 342, 343, 344, 345, 346, 347, 348, 349, 350, 351, 352, 353, 354, 355, 356, 357, 358, 359, 360, 361, 362, 363, 364, 365, 366, 367, 368, 369, 370, 371, 372, 373, 374, 375, 376, 377, 378, 379, 380, 381, 382, 383, 384, 385, 386, 387, 388, 389, 390, 391, 392, 393, 394, 395, 396, 397, 398, 399, 400, 401, 402, 403, 404, 405, 406, 407, 408, 409, 410, 411, 412, 413, 414, 415, 416, 417, 418, 419, 420, 421, 422, 423, 424, 425, 426, 427, 428, 429, 430, 431, 432, 433, 434, 435, 436, 437, 438, 439, 440, 441, 442, 443, 444, 445, 446, 447, 448, 449, 450, 451, 452, 453, 454, 455, 456],
      "AcquisitionTime": ["140629.395000", "140630.885000", "140632.375000", "140633.865000", "140635.355000", "140636.845000", "140638.335000", "140639.825000", "140641.315000", "140642.805000", "140644.295000", "140645.785000", "140647.275000", "140648.765000", "140650.255000", "140651.745000", "140653.235000", "140654.725000", "140656.215000", "140657.705000", "140659.195000", "140700.685000", "140702.175000", "140703.665000", "140705.155000", "140706.645000", "140708.135000", "140709.625000", "140711.115000", "140712.605000", "140714.095000", "140715.585000", "140717.075000", "140718.565000", "140720.055000", "140721.545000", "140723.035000", "140724.525000", "140726.015000", "140727.505000", "140728.995000", "140730.485000", "140731.975000", "140733.465000", "140734.955000", "140736.445000", "140737.935000", "140739.425000", "140740.915000", "140742.405000", "140743.895000", "140745.385000", "140746.875000", "140748.365000", "140749.855000", "140751.345000", "140752.835000", "140754.325000", "140755.815000", "140757.305000", "140758.795000", "140800.285000", "140801.775000", "140803.265000", "140804.755000", "140806.245000", "140807.735000", "140809.225000", "140810.715000", "140812.205000", "140813.695000", "140815.185000", "140816.675000", "140818.165000", "140819.655000", "140821.145000", "140822.635000", "140824.125000", "140825.615000", "140827.105000", "140828.595000", "140830.085000", "140831.575000", "140833.065000", "140834.555000", "140836.045000", "140837.535000", "140839.025000", "140840.515000", "140842.005000", "140843.495000", "140844.985000", "140846.475000", "140847.965000", "140849.455000", "140850.945000", "140852.435000", "140853.925000", "140855.415000", "140856.905000", "140858.395000", "140859.885000", "140901.375000", "140902.865000", "140904.355000", "140905.845000", "140907.335000", "140908.825000", "140910.315000", "140911.805000", "140913.295000", "140914.785000", "140916.275000", "140917.765000", "140919.255000", "140920.745000", "140922.235000", "140923.725000", "140925.215000", "140926.705000", "140928.195000", "140929.685000", "140931.175000", "140932.665000", "140934.155000", "140935.645000", "140937.135000", "140938.625000", "140940.115000", "140941.605000", "140943.095000", "140944.585000", "140946.075000", "140947.565000", "140949.055000", "140950.545000", "140952.035000", "140953.525000", "140955.015000", "140956.505000", "140957.995000", "140959.485000", "141000.975000", "141002.465000", "141003.955000", "141005.445000", "141006.935000", "141008.425000", "141009.915000", "141011.405000", "141012.895000", "141014.385000", "141015.875000", "141017.365000", "141018.855000", "141020.345000", "141021.835000", "141023.325000", "141024.815000", "141026.305000", "141027.795000", "141029.285000", "141030.775000", "141032.265000", "141033.755000", "141035.245000", "141036.735000", "141038.225000", "141039.715000", "141041.205000", "141042.695000", "141044.185000", "141045.675000", "141047.165000", "141048.655000", "141050.145000", "141051.635000", "141053.125000", "141054.615000", "141056.105000", "141057.595000", "141059.085000", "141100.575000", "141102.065000", "141103.555000", "141105.045000", "141106.535000", "141108.025000", "141109.515000", "141111.005000", "141112.495000", "141113.985000", "141115.475000", "141116.965000", "141118.455000", "141119.945000", "141121.435000", "141122.925000", "141124.415000", "141125.905000", "141127.395000", "141128.885000", "141130.375000", "141131.865000", "141133.355000", "141134.845000", "141136.335000", "141137.825000", "141139.315000", "141140.805000", "141142.295000", "141143.785000", "141145.275000", "141146.765000", "141148.255000", "141149.745000", "141151.235000", "141152.725000", "141154.215000", "141155.705000", "141157.195000", "141158.685000", "141200.175000", "141201.665000", "141203.155000", "141204.645000", "141206.135000", "141207.625000", "141209.115000", "141210.605000", "141212.095000", "141213.585000", "141215.075000", "141216.565000", "141218.055000", "141219.545000", "141221.035000", "141222.525000", "141224.015000", "141225.505000", "141226.995000", "141228.485000", "141229.975000", "141231.465000", "141232.955000", "141234.445000", "141235.935000", "141237.425000", "141238.915000", "141240.405000", "141241.895000", "141243.385000", "141244.875000", "141246.365000", "141247.855000", "141249.345000", "141250.835000", "141252.325000", "141253.815000", "141255.305000", "141256.795000", "141258.285000", "141259.775000", "141301.265000", "141302.755000", "141304.245000", "141305.735000", "141307.225000", "141308.715000", "141310.205000", "141311.695000", "141313.185000", "141314.675000", "141316.165000", "141317.655000", "141319.145000", "141320.635000", "141322.125000", "141323.615000", "141325.105000", "141326.595000", "141328.085000", "141329.575000", "141331.065000", "141332.555000", "141334.045000", "141335.535000", "141337.025000", "141338.515000", "141340.005000", "141341.495000", "141342.985000", "141344.475000", "141345.965000", "141347.455000", "141348.945000", "141350.435000", "141351.925000", "141353.415000", "141354.905000", "141356.395000", "141357.885000", "141359.375000", "141400.865000", "141402.355000", "141403.845000", "141405.335000", "141406.825000", "141408.315000", "141409.805000", "141411.295000", "141412.785000", "141414.275000", "141415.765000", "141417.255000", "141418.745000", "141420.235000", "141421.725000", "141423.215000", "141424.705000", "141426.195000", "141427.685000", "141429.175000", "141430.665000", "141432.155000", "141433.645000", "141435.135000", "141436.625000", "141438.115000", "141439.605000", "141441.095000", "141442.585000", "141444.075000", "141445.565000", "141447.055000", "141448.545000", "141450.035000", "141451.525000", "141453.015000", "141454.505000", "141455.995000", "141457.485000", "141458.975000", "141500.465000", "141501.955000", "141503.445000", "141504.935000", "141506.425000", "141507.915000", "141509.405000", "141510.895000", "141512.385000", "141513.875000", "141515.365000", "141516.855000", "141518.345000", "141519.835000", "141521.325000", "141522.815000", "141524.305000", "141525.795000", "141527.285000", "141528.775000", "141530.265000", "141531.755000", "141533.245000", "141534.735000", "141536.225000", "141537.715000", "141539.205000", "141540.695000", "141542.185000", "141543.675000", "141545.165000", "141546.655000", "141548.145000", "141549.635000", "141551.125000", "141552.615000", "141554.105000", "141555.595000", "141557.085000", "141558.575000", "141600.065000", "141601.555000", "141603.045000", "141604.535000", "141606.025000", "141607.515000", "141609.005000", "141610.495000", "141611.985000", "141613.475000", "141614.965000", "141616.455000", "141617.945000", "141619.435000", "141620.925000", "141622.415000", "141623.905000", "141625.395000", "141626.885000", "141628.375000", "141629.865000", "141631.355000", "141632.845000", "141634.335000", "141635.825000", "141637.315000", "141638.805000", "141640.295000", "141641.785000", "141643.275000", "141644.765000", "141646.255000", "141647.745000", "141649.235000", "141650.725000", "141652.215000", "141653.705000", "141655.195000", "141656.685000", "141658.175000", "141659.665000", "141701.155000", "141702.645000", "141704.135000", "141705.625000", "141707.115000", "141708.605000", "141710.095000", "141711.585000", "141713.075000", "141714.565000", "141716.055000", "141717.545000", "141719.035000", "141720.525000", "141722.015000", "141723.505000", "141724.995000", "141726.485000", "141727.975000", "141729.465000", "141730.955000", "141732.445000", "141733.935000", "141735.425000", "141736.915000", "141738.405000", "141739.895000", "141741.385000", "141742.875000", "141744.365000", "141745.855000", "141747.345000"],
      "ContentTime": ["140800.563000", "140800.567000", "140800.570000", "140800.573000", "140800.576000", "140800.579000", "140800.581000", "140800.584000", "140800.587000", "140800.590000", "140800.593000", "140800.596000", "140800.599000", "140800.602000", "140800.605000", "140800.616000", "140800.619000", "140800.622000", "140800.625000", "140800.628000", "140800.631000", "140800.634000", "140800.637000", "140800.640000", "140800.643000", "140800.646000", "140800.649000", "140800.657000", "140800.661000", "140800.664000", "140800.667000", "140800.670000", "140800.672000", "140800.675000", "140800.678000", "140800.681000", "140820.533000", "140820.536000", "140820.539000", "140820.542000", "140820.544000", "140820.547000", "140820.551000", "140820.554000", "140820.557000", "140820.560000", "140820.563000", "140820.566000", "140820.568000", "140820.571000", "140820.574000", "140820.577000", "140820.580000", "140820.583000", "140820.590000", "140820.593000", "140820.595000", "140840.533000", "140840.536000", "140840.539000", "140840.541000", "140840.544000", "140840.547000", "140840.550000", "140840.553000", "140840.556000", "140840.559000", "140840.562000", "140840.565000", "140840.568000", "140840.571000", "140840.574000", "140840.577000", "140840.579000", "140840.583000", "140840.585000", "140840.588000", "140900.533000", "140900.536000", "140900.539000", "140900.546000", "140900.549000", "140900.552000", "140900.554000", "140900.557000", "140900.560000", "140900.563000", "140900.566000", "140900.569000", "140900.572000", "140900.575000", "140900.578000", "140900.596000", "140900.600000", "140900.606000", "140900.609000", "140900.611000", "140940.534000", "140940.537000", "140940.540000", "140940.543000", "140940.546000", "140940.549000", "140940.552000", "140940.554000", "140940.557000", "140940.560000", "140940.563000", "140940.566000", "140940.569000", "140940.572000", "140940.575000", "140940.578000", "140940.581000", "140940.584000", "140940.587000", "140940.589000", "140940.592000", "140940.595000", "140940.598000", "140940.601000", "140940.604000", "140940.607000", "140940.610000", "140940.612000", "140940.615000", "140940.618000", "141020.533000", "141020.536000", "141020.539000", "141020.542000", "141020.545000", "141020.548000", "141020.551000", "141020.554000", "141020.556000", "141020.559000", "141020.562000", "141020.565000", "141020.568000", "141020.571000", "141020.574000", "141020.577000", "141020.580000", "141020.583000", "141020.585000", "141020.588000", "141020.591000", "141020.594000", "141020.597000", "141020.600000", "141020.603000", "141020.606000", "141020.608000", "141040.533000", "141040.536000", "141040.539000", "141040.542000", "141040.545000", "141040.548000", "141040.551000", "141040.554000", "141040.557000", "141040.560000", "141040.562000", "141040.565000", "141040.568000", "141120.533000", "141120.536000", "141120.539000", "141120.542000", "141120.544000", "141120.547000", "141120.550000", "141120.553000", "141120.556000", "141120.559000", "141120.562000", "141120.565000", "141120.568000", "141120.571000", "141120.574000", "141120.576000", "141120.579000", "141120.582000", "141120.585000", "141120.588000", "141120.591000", "141120.594000", "141120.597000", "141120.600000", "141120.603000", "141120.606000", "141120.609000", "141200.534000", "141200.537000", "141200.540000", "141200.543000", "141200.545000", "141200.548000", "141200.551000", "141200.554000", "141200.557000", "141200.560000", "141200.563000", "141200.566000", "141200.568000", "141200.571000", "141200.574000", "141200.577000", "141200.580000", "141200.583000", "141200.586000", "141200.589000", "141200.592000", "141200.594000", "141200.597000", "141200.600000", "141200.603000", "141200.606000", "141200.609000", "141240.533000", "141240.536000", "141240.539000", "141240.542000", "141240.545000", "141240.547000", "141240.550000", "141240.553000", "141240.556000", "141240.559000", "141240.562000", "141240.565000", "141240.568000", "141240.571000", "141240.574000", "141240.577000", "141240.580000", "141240.583000", "141240.585000", "141240.589000", "141240.591000", "141240.594000", "141240.597000", "141240.600000", "141240.603000", "141240.606000", "141240.609000", "141320.533000", "141320.536000", "141320.539000", "141320.542000", "141320.545000", "141320.548000", "141320.551000", "141320.554000", "141320.556000", "141320.559000", "141320.562000", "141320.565000", "141320.568000", "141320.571000", "141320.574000", "141320.577000", "141320.580000", "141320.583000", "141320.586000", "141320.589000", "141320.592000", "141320.594000", "141320.597000", "141320.600000", "141320.603000", "141320.606000", "141320.609000", "141400.534000", "141400.537000", "141400.540000", "141400.543000", "141400.545000", "141400.548000", "141400.565000", "141400.568000", "141400.571000", "141400.574000", "141400.577000", "141400.580000", "141400.583000", "141400.586000", "141400.589000", "141400.591000", "141400.594000", "141400.597000", "141400.600000", "141400.603000", "141400.606000", "141400.609000", "141400.612000", "141400.615000", "141400.618000", "141400.621000", "141400.623000", "141440.534000", "141440.537000", "141440.540000", "141440.543000", "141440.546000", "141440.548000", "141440.551000", "141440.554000", "141440.557000", "141440.560000", "141440.563000", "141440.566000", "141440.569000", "141440.572000", "141440.575000", "141440.578000", "141440.581000", "141440.584000", "141440.586000", "141440.589000", "141440.592000", "141440.595000", "141440.598000", "141440.601000", "141440.604000", "141440.607000", "141440.610000", "141520.533000", "141520.536000", "141520.539000", "141520.542000", "141520.544000", "141520.547000", "141520.550000", "141520.553000", "141520.556000", "141520.559000", "141520.562000", "141520.565000", "141520.568000", "141520.571000", "141520.574000", "141520.577000", "141520.580000", "141520.583000", "141520.585000", "141520.588000", "141520.591000", "141520.594000", "141520.597000", "141520.600000", "141520.603000", "141520.606000", "141600.534000", "141600.537000", "141600.540000", "141600.543000", "141600.546000", "141600.549000", "141600.552000", "141600.555000", "141600.557000", "141600.561000", "141600.563000", "141600.566000", "141600.569000", "141600.573000", "141600.575000", "141600.578000", "141600.581000", "141600.584000", "141600.587000", "141600.590000", "141600.593000", "141600.596000", "141600.599000", "141600.602000", "141600.604000", "141600.607000", "141600.610000", "141640.534000", "141640.537000", "141640.540000", "141640.543000", "141640.546000", "141640.549000", "141640.558000", "141640.561000", "141640.564000", "141640.567000", "141640.570000", "141640.573000", "141640.576000", "141640.579000", "141640.582000", "141640.585000", "141640.588000", "141640.591000", "141640.593000", "141640.596000", "141640.599000", "141640.602000", "141640.605000", "141640.608000", "141640.611000", "141640.614000", "141640.617000", "141720.533000", "141720.536000", "141720.539000", "141720.542000", "141720.545000", "141720.548000", "141720.551000", "141720.554000", "141720.557000", "141720.559000", "141720.562000", "141720.565000", "141720.568000", "141720.571000", "141720.574000", "141720.577000", "141720.580000", "141720.583000", "141720.586000", "141720.589000", "141720.592000", "141720.595000", "141720.597000", "141720.600000", "141720.603000", "141720.606000", "141720.609000", "141749.789000", "141749.792000", "141749.795000", "141749.798000", "141749.801000", "141749.804000", "141749.807000", "141749.809000", "141749.813000", "141749.815000", "141749.818000", "141749.821000", "141749.824000", "141749.827000", "141749.830000", "141749.833000", "141749.836000", "141749.839000", "141749.842000", "141749.844000"],
