{
  "AcquisitionMatrixPE": 104,
  "AcquisitionNumber": 1,
  "AcquisitionTime": "14:36:26.325000",
  "BandwidthPerPixelPhaseEncode": 17.17,
  "BaseResolution": 104,
  "BodyPartExamined": "BRAIN",
  "CoilString": "HC1-7;NC1_2",
  "ConsistencyInfo": "N4_VE11C_LATEST_20160120",
  "ConversionSoftware": "dcm2niix",
  "ConversionSoftwareVersion": "v1.0.20200427",
  "DerivedVendorReportedEchoSpacing": 0.000560011,
  "DeviceSerialNumber": "167006",
  "DwellTime": 2.1e-06,
  "EchoTime": 0.037,
  "EchoTrainLength": 104,
  "EffectiveEchoSpacing": 0.000560011,
  "FlipAngle": 52,
  "ImageComments": "Unaliased_MB4_PE3_LB",
  "ImageOrientationPatientDICOM": [0.999873, -0.0141775, -0.00726169, 0.0115182, 0.958401, -0.285193],
  "ImageType": [
    "ORIGINAL",
    "PRIMARY",
    "M",
    "MB",
    "ND",
    "MOSAIC"
],
  "ImagingFrequency": 123.258,
  "InPlanePhaseEncodingDirectionDICOM": "COL",
  "InstitutionAddress": "Chemin_Queen-Mary_4565_Montreal_District_CA_H3W_1W5",
  "InstitutionName": "IUGM",
  "InstitutionalDepartmentName": "Department",
  "MRAcquisitionType": "2D",
  "MagneticFieldStrength": 3,
  "Manufacturer": "Siemens",
  "ManufacturersModelName": "Prisma_fit",
  "Modality": "MR",
  "MultibandAccelerationFactor": 4,
  "PartialFourier": 1,
  "PatientPosition": "HFS",
  "PercentPhaseFOV": 100,
  "PercentSampling": 100,
  "PhaseEncodingDirection": "j",
  "PhaseEncodingSteps": 104,
  "PhaseResolution": 1,
  "PixelBandwidth": 2290,
  "ProcedureStepDescription": "video_friends",
  "ProtocolName": "func_task-friends-s02e24b",
  "PulseSequenceDetails": "%CustomerSeq%_cmrr_mbep2d_bold",
  "ReceiveCoilActiveElements": "HC1-7;NC1,2",
  "ReceiveCoilName": "HeadNeck_64",
  "ReconMatrixPE": 104,
  "RepetitionTime": 1.49,
  "SAR": 0.0295143,
  "ScanOptions": "FS",
  "ScanningSequence": "EP",
  "SequenceName": "epfid2d1_104",
  "SequenceVariant": "SK_SS",
  "SeriesDescription": "func_task-friends-s02e24b",
  "SeriesNumber": 22,
  "ShimSetting": [614, -7220, -8800, 694, -8, -7, 44, 9],
  "SliceThickness": 2,
  "SliceTiming": [0, 0.7825, 0.0975, 0.88, 0.195, 0.98, 0.2925, 1.0775, 0.39, 1.175, 0.49, 1.2725, 0.5875, 1.37, 0.685, 0, 0.7825, 0.0975, 0.88, 0.195, 0.98, 0.2925, 1.0775, 0.39, 1.175, 0.49, 1.2725, 0.5875, 1.37, 0.685, 0, 0.7825, 0.0975, 0.88, 0.195, 0.98, 0.2925, 1.0775, 0.39, 1.175, 0.49, 1.2725, 0.5875, 1.37, 0.685, 0, 0.7825, 0.0975, 0.88, 0.195, 0.98, 0.2925, 1.0775, 0.39, 1.175, 0.49, 1.2725, 0.5875, 1.37, 0.685],
  "SoftwareVersions": "syngo_MR_E11",
  "SpacingBetweenSlices": 2,
  "StationName": "MRC35049",
  "TaskName": "s02e24b",
  "TotalReadoutTime": 0.0576811,
  "TxRefAmp": 208.137,
  "WipMemBlock": "ba04c6e2-c9c7-4625-9503-47819f35b397||Sequence: R016 ve11c/master r/e634e98; Dec 19 2017 11:00:25 by eja",
  "dcmmeta_affine": [
    [-1.9997462034225464, 0.023036470636725426, -0.022005876526236534, 104.15216064453125],
    [0.028355052694678307, 1.916801929473877, -0.5701459050178528, -82.99043273925781],
    [-0.014523377642035484, 0.5703855752944946, 1.9168853759765625, -64.1527099609375],
    [0.0, 0.0, 0.0, 1.0]
],
  "dcmmeta_reorient_transform": [
    [0.0, -1.0, 0.0, 103.0],
    [1.0, 0.0, 0.0, 0.0],
    [0.0, 0.0, 1.0, 0.0],
    [0.0, 0.0, 0.0, 1.0]
],
  "dcmmeta_shape": [104, 104, 60, 469],
  "dcmmeta_slice_dim": 2,
  "dcmmeta_version": 0.6,
  "global": {
    "const": {
      "AcquisitionMatrix": [104, 0, 0, 104],
      "AngioFlag": "N",
      "BitsAllocated": 16,
      "BitsStored": 16,
      "BodyPartExamined": "BRAIN",
      "Columns": 832,
      "EchoNumbers": 1,
      "EchoTime": 37.0,
      "EchoTrainLength": 104,
      "FlipAngle": 52.0,
      "HighBit": 15,
      "ImageOrientationPatient": [0.99987312475727, -0.0141775266384, -0.00726168896, 0.011518235257, 0.95840096274492, -0.2851927854385],
      "ImagePositionPatient": [-842.81782602276, -801.83482367582, 207.5038625067],
      "ImageType": [
        "ORIGINAL",
        "PRIMARY",
        "M",
        "MB",
        "ND",
        "MOSAIC"
],
      "ImagedNucleus": "1H",
      "ImagingFrequency": 123.258409,
      "InPlanePhaseEncodingDirection": "COL",
      "MRAcquisitionType": "2D",
      "MagneticFieldStrength": 3.0,
      "Manufacturer": "SIEMENS",
      "ManufacturerModelName": "Prisma_fit",
      "Modality": "MR",
      "NumberOfAverages": 1.0,
      "NumberOfPhaseEncodingSteps": 104,
      "PercentPhaseFieldOfView": 100.0,
      "PercentSampling": 100.0,
      "PerformedProcedureStepStartTime": "132907.304000",
      "PhotometricInterpretation": "MONOCHROME2",
      "PixelBandwidth": 2290.0,
      "PixelRepresentation": 0,
      "PixelSpacing": [2.0, 2.0],
      "ProtocolName": "func_task-friends-s02e24b",
      "RepetitionTime": 1490.0,
      "Rows": 832,
      "SAR": 0.02951431430463,
      "SamplesPerPixel": 1,
      "ScanOptions": "FS",
      "ScanningSequence": "EP",
      "SequenceName": "epfid2d1_104",
      "SequenceVariant": [
        "SK",
        "SS"
],
      "SeriesDescription": "func_task-friends-s02e24b",
      "SeriesNumber": 22,
      "SeriesTime": "143747.362000",
      "SliceLocation": -38.97434357989,
      "SliceThickness": 2.0,
      "SmallestImagePixelValue": 0,
      "SoftwareVersions": "syngo MR E11",
      "SpacingBetweenSlices": 2.0000000417948,
      "SpecificCharacterSet": "ISO_IR 100",
      "StudyID": "1",
      "StudyTime": "132907.226000",
      "TransmitCoilName": "Body",
      "VariableFlipAngleFlag": "N",
      "WindowCenterWidthExplanation": "Algo1",
      "dBdt": 0.0},
    "slices": {}
  },
  "time": {
    "samples": {
      "AcquisitionNumber": [1, 2, 3, 4, 5, 6, 7, 8, 9, 10, 11, 12, 13, 14, 15, 16, 17, 18, 19, 20, 21, 22, 23, 24, 25, 26, 27, 28, 29, 30, 31, 32, 33, 34, 35, 36, 37, 38, 39, 40, 41, 42, 43, 44, 45, 46, 47, 48, 49, 50, 51, 52, 53, 54, 55, 56, 57, 58, 59, 60, 61, 62, 63, 64, 65, 66, 67, 68, 69, 70, 71, 72, 73, 74, 75, 76, 77, 78, 79, 80, 81, 82, 83, 84, 85, 86, 87, 88, 89, 90, 91, 92, 93, 94, 95, 96, 97, 98, 99, 100, 101, 102, 103, 104, 105, 106, 107, 108, 109, 110, 111, 112, 113, 114, 115, 116, 117, 118, 119, 120, 121, 122, 123, 124, 125, 126, 127, 128, 129, 130, 131, 132, 133, 134, 135, 136, 137, 138, 139, 140, 141, 142, 143, 144, 145, 146, 147, 148, 149, 150, 151, 152, 153, 154, 155, 156, 157, 158, 159, 160, 161, 162, 163, 164, 165, 166, 167, 168, 169, 170, 171, 172, 173, 174, 175, 176, 177, 178, 179, 180, 181, 182, 183, 184, 185, 186, 187, 188, 189, 190, 191, 192, 193, 194, 195, 196, 197, 198, 199, 200, 201, 202, 203, 204, 205, 206, 207, 208, 209, 210, 211, 212, 213, 214, 215, 216, 217, 218, 219, 220, 221, 222, 223, 224, 225, 226, 227, 228, 229, 230, 231, 232, 233, 234, 235, 236, 237, 238, 239, 240, 241, 242, 243, 244, 245, 246, 247, 248, 249, 250, 251, 252, 253, 254, 255, 256, 257, 258, 259, 260, 261, 262, 263, 264, 265, 266, 267, 268, 269, 270, 271, 272, 273, 274, 275, 276, 277, 278, 279, 280, 281, 282, 283, 284, 285, 286, 287, 288, 289, 290, 291, 292, 293, 294, 295, 296, 297, 298, 299, 300, 301, 302, 303, 304, 305, 306, 307, 308, 309, 310, 311, 312, 313, 314, 315, 316, 317, 318, 319, 320, 321, 322, 323, 324, 325, 326, 327, 328, 329, 330, 331, 332, 333, 334, 335, 336, 337, 338, 339, 340, 341, 342, 343, 344, 345, 346, 347, 348, 349, 350, 351, 352, 353, 354, 355, 356, 357, 358, 359, 360, 361, 362, 363, 364, 365, 366, 367, 368, 369, 370, 371, 372, 373, 374, 375, 376, 377, 378, 379, 380, 381, 382, 383, 384, 385, 386, 387, 388, 389, 390, 391, 392, 393, 394, 395, 396, 397, 398, 399, 400, 401, 402, 403, 404, 405, 406, 407, 408, 409, 410, 411, 412, 413, 414, 415, 416, 417, 418, 419, 420, 421, 422, 423, 424, 425, 426, 427, 428, 429, 430, 431, 432, 433, 434, 435, 436, 437, 438, 439, 440, 441, 442, 443, 444, 445, 446, 447, 448, 449, 450, 451, 452, 453, 454, 455, 456, 457, 458, 459, 460, 461, 462, 463, 464, 465, 466, 467, 468, 469],
      "AcquisitionTime": ["143626.325000", "143627.815000", "143629.305000", "143630.795000", "143632.285000", "143633.775000", "143635.265000", "143636.755000", "143638.245000", "143639.735000", "143641.225000", "143642.715000", "143644.205000", "143645.695000", "143647.185000", "143648.675000", "143650.165000", "143651.655000", "143653.145000", "143654.635000", "143656.125000", "143657.615000", "143659.105000", "143700.595000", "143702.085000", "143703.575000", "143705.065000", "143706.555000", "143708.045000", "143709.535000", "143711.025000", "143712.515000", "143714.005000", "143715.495000", "143716.985000", "143718.475000", "143719.965000", "143721.455000", "143722.945000", "143724.435000", "143725.925000", "143727.415000", "143728.905000", "143730.395000", "143731.885000", "143733.375000", "143734.865000", "143736.355000", "143737.845000", "143739.335000", "143740.825000", "143742.315000", "143743.805000", "143745.295000", "143746.785000", "143748.275000", "143749.765000", "143751.255000", "143752.745000", "143754.235000", "143755.725000", "143757.215000", "143758.705000", "143800.195000", "143801.685000", "143803.175000", "143804.665000", "143806.155000", "143807.645000", "143809.135000", "143810.625000", "143812.115000", "143813.605000", "143815.095000", "143816.585000", "143818.075000", "143819.565000", "143821.055000", "143822.545000", "143824.035000", "143825.525000", "143827.015000", "143828.505000", "143829.995000", "143831.485000", "143832.975000", "143834.465000", "143835.955000", "143837.445000", "143838.935000", "143840.425000", "143841.915000", "143843.405000", "143844.895000", "143846.385000", "143847.875000", "143849.365000", "143850.855000", "143852.345000", "143853.835000", "143855.325000", "143856.815000", "143858.305000", "143859.795000", "143901.285000", "143902.775000", "143904.265000", "143905.755000", "143907.245000", "143908.735000", "143910.225000", "143911.715000", "143913.205000", "143914.695000", "143916.185000", "143917.675000", "143919.165000", "143920.655000", "143922.145000", "143923.635000", "143925.125000", "143926.615000", "143928.105000", "143929.595000", "143931.085000", "143932.575000", "143934.065000", "143935.555000", "143937.045000", "143938.535000", "143940.025000", "143941.515000", "143943.005000", "143944.495000", "143945.985000", "143947.475000", "143948.965000", "143950.455000", "143951.945000", "143953.435000", "143954.925000", "143956.415000", "143957.905000", "143959.395000", "144000.885000", "144002.375000", "144003.865000", "144005.355000", "144006.845000", "144008.335000", "144009.825000", "144011.315000", "144012.805000", "144014.295000", "144015.785000", "144017.275000", "144018.765000", "144020.255000", "144021.745000", "144023.235000", "144024.725000", "144026.215000", "144027.705000", "144029.195000", "144030.685000", "144032.175000", "144033.665000", "144035.155000", "144036.645000", "144038.135000", "144039.625000", "144041.115000", "144042.605000", "144044.095000", "144045.585000", "144047.075000", "144048.565000", "144050.055000", "144051.545000", "144053.035000", "144054.525000", "144056.015000", "144057.505000", "144058.995000", "144100.485000", "144101.975000", "144103.465000", "144104.955000", "144106.445000", "144107.935000", "144109.425000", "144110.915000", "144112.405000", "144113.895000", "144115.385000", "144116.875000", "144118.365000", "144119.855000", "144121.345000", "144122.835000", "144124.325000", "144125.815000", "144127.305000", "144128.795000", "144130.285000", "144131.775000", "144133.265000", "144134.755000", "144136.245000", "144137.735000", "144139.225000", "144140.715000", "144142.205000", "144143.695000", "144145.185000", "144146.675000", "144148.165000", "144149.655000", "144151.145000", "144152.635000", "144154.125000", "144155.615000", "144157.105000", "144158.595000", "144200.085000", "144201.575000", "144203.065000", "144204.555000", "144206.045000", "144207.535000", "144209.025000", "144210.515000", "144212.005000", "144213.495000", "144214.985000", "144216.475000", "144217.965000", "144219.455000", "144220.945000", "144222.435000", "144223.925000", "144225.415000", "144226.905000", "144228.395000", "144229.885000", "144231.375000", "144232.865000", "144234.355000", "144235.845000", "144237.335000", "144238.825000", "144240.315000", "144241.805000", "144243.295000", "144244.785000", "144246.275000", "144247.765000", "144249.255000", "144250.745000", "144252.235000", "144253.725000", "144255.215000", "144256.705000", "144258.195000", "144259.685000", "144301.175000", "144302.665000", "144304.155000", "144305.645000", "144307.135000", "144308.625000", "144310.115000", "144311.605000", "144313.095000", "144314.585000", "144316.075000", "144317.565000", "144319.055000", "144320.545000", "144322.035000", "144323.525000", "144325.015000", "144326.505000", "144327.995000", "144329.485000", "144330.975000", "144332.465000", "144333.955000", "144335.445000", "144336.935000", "144338.425000", "144339.915000", "144341.405000", "144342.895000", "144344.385000", "144345.875000", "144347.365000", "144348.855000", "144350.345000", "144351.835000", "144353.325000", "144354.815000", "144356.305000", "144357.795000", "144359.285000", "144400.775000", "144402.265000", "144403.755000", "144405.245000", "144406.735000", "144408.225000", "144409.715000", "144411.205000", "144412.695000", "144414.185000", "144415.675000", "144417.165000", "144418.655000", "144420.145000", "144421.635000", "144423.125000", "144424.615000", "144426.105000", "144427.595000", "144429.085000", "144430.575000", "144432.065000", "144433.555000", "144435.045000", "144436.535000", "144438.025000", "144439.515000", "144441.005000", "144442.495000", "144443.985000", "144445.475000", "144446.965000", "144448.455000", "144449.945000", "144451.435000", "144452.925000", "144454.415000", "144455.905000", "144457.395000", "144458.885000", "144500.375000", "144501.865000", "144503.355000", "144504.845000", "144506.335000", "144507.825000", "144509.315000", "144510.805000", "144512.295000", "144513.785000", "144515.275000", "144516.765000", "144518.255000", "144519.745000", "144521.235000", "144522.725000", "144524.215000", "144525.705000", "144527.195000", "144528.685000", "144530.175000", "144531.665000", "144533.155000", "144534.645000", "144536.135000", "144537.625000", "144539.115000", "144540.605000", "144542.095000", "144543.585000", "144545.075000", "144546.565000", "144548.055000", "144549.545000", "144551.035000", "144552.525000", "144554.015000", "144555.505000", "144556.995000", "144558.485000", "144559.975000", "144601.465000", "144602.955000", "144604.445000", "144605.935000", "144607.425000", "144608.915000", "144610.405000", "144611.895000", "144613.385000", "144614.875000", "144616.365000", "144617.855000", "144619.345000", "144620.835000", "144622.325000", "144623.815000", "144625.305000", "144626.795000", "144628.285000", "144629.775000", "144631.265000", "144632.755000", "144634.245000", "144635.735000", "144637.225000", "144638.715000", "144640.205000", "144641.695000", "144643.185000", "144644.675000", "144646.165000", "144647.655000", "144649.145000", "144650.635000", "144652.125000", "144653.615000", "144655.105000", "144656.595000", "144658.085000", "144659.575000", "144701.065000", "144702.555000", "144704.045000", "144705.535000", "144707.025000", "144708.515000", "144710.005000", "144711.495000", "144712.985000", "144714.475000", "144715.965000", "144717.455000", "144718.945000", "144720.435000", "144721.925000", "144723.415000", "144724.905000", "144726.395000", "144727.885000", "144729.375000", "144730.865000", "144732.355000", "144733.845000", "144735.335000", "144736.825000", "144738.315000", "144739.805000", "144741.295000", "144742.785000", "144744.275000", "144745.765000", "144747.255000", "144748.745000", "144750.235000", "144751.725000", "144753.215000", "144754.705000", "144756.195000", "144757.685000", "144759.175000", "144800.665000", "144802.155000", "144803.645000"],
      "ContentTime": ["143747.365000", "143747.368000", "143747.371000", "143747.374000", "143747.377000", "143747.386000", "143747.388000", "143747.391000", "143747.394000", "143747.400000", "143747.403000", "143747.406000", "143747.409000", "143747.412000", "143747.415000", "143747.418000", "143747.421000", "143747.424000", "143747.432000", "143747.435000", "143747.438000", "143747.441000", "143747.444000", "143747.446000", "143747.449000", "143747.452000", "143747.455000", "143747.458000", "143807.327000", "143807.330000", "143807.333000", "143807.336000", "143807.339000", "143807.342000", "143807.344000", "143807.347000", "143807.350000", "143807.353000", "143807.357000", "143807.359000", "143807.362000", "143807.365000", "143807.371000", "143807.374000", "143807.377000", "143807.380000", "143807.383000", "143807.386000", "143827.327000", "143827.330000", "143827.333000", "143827.336000", "143827.344000", "143827.347000", "143827.350000", "143827.353000", "143827.356000", "143827.359000", "143827.361000", "143827.364000", "143827.367000", "143827.370000", "143827.373000", "143827.376000", "143827.379000", "143827.382000", "143827.385000", "143827.387000", "143827.390000", "143847.327000", "143847.330000", "143847.333000", "143847.336000", "143847.339000", "143847.341000", "143847.344000", "143847.347000", "143847.350000", "143847.353000", "143847.356000", "143847.359000", "143847.362000", "143847.364000", "143847.367000", "143847.370000", "143847.373000", "143847.376000", "143847.385000", "143847.388000", "143927.327000", "143927.330000", "143927.333000", "143927.336000", "143927.339000", "143927.342000", "143927.345000", "143927.348000", "143927.351000", "143927.353000", "143927.356000", "143927.359000", "143927.362000", "143927.365000", "143927.368000", "143927.371000", "143927.374000", "143927.377000", "143927.380000", "143927.383000", "143927.385000", "143927.388000", "143927.391000", "143927.394000", "143927.397000", "143927.400000", "143927.403000", "143927.406000", "143927.409000", "143927.411000", "143927.414000", "143927.417000", "144007.327000", "144007.330000", "144007.333000", "144007.336000", "144007.339000", "144007.342000", "144007.345000", "144007.348000", "144007.351000", "144007.354000", "144007.357000", "144007.360000", "144007.363000", "144007.365000", "144007.368000", "144007.371000", "144007.374000", "144007.377000", "144007.380000", "144007.383000", "144007.386000", "144007.389000", "144007.391000", "144007.394000", "144007.397000", "144007.400000", "144007.403000", "144027.327000", "144027.337000", "144027.340000", "144027.343000", "144027.346000", "144027.349000", "144027.352000", "144027.354000", "144027.357000", "144027.360000", "144027.363000", "144027.366000", "144027.369000", "144107.327000", "144107.330000", "144107.333000", "144107.336000", "144107.339000", "144107.342000", "144107.345000", "144107.348000", "144107.351000", "144107.354000", "144107.357000", "144107.360000", "144107.362000", "144107.365000", "144107.368000", "144107.371000", "144107.374000", "144107.377000", "144107.380000", "144107.383000", "144107.386000", "144107.389000", "144107.391000", "144107.394000", "144107.397000", "144107.400000", "144107.403000", "144147.327000", "144147.330000", "144147.333000", "144147.336000", "144147.339000", "144147.342000", "144147.345000", "144147.348000", "144147.350000", "144147.353000", "144147.356000", "144147.359000", "144147.362000", "144147.365000", "144147.368000", "144147.371000", "144147.374000", "144147.376000", "144147.379000", "144147.382000", "144147.400000", "144147.403000", "144147.406000", "144147.409000", "144147.412000", "144147.415000", "144147.418000", "144227.327000", "144227.330000", "144227.333000", "144227.336000", "144227.339000", "144227.342000", "144227.345000", "144227.348000", "144227.351000", "144227.354000", "144227.357000", "144227.359000", "144227.363000", "144227.365000", "144227.368000", "144227.371000", "144227.374000", "144227.377000", "144227.380000", "144227.383000", "144227.386000", "144227.389000", "144227.392000", "144227.395000", "144227.398000", "144227.401000", "144227.404000", "144307.327000", "144307.330000", "144307.343000", "144307.346000", "144307.349000", "144307.352000", "144307.355000", "144307.358000", "144307.361000", "144307.364000", "144307.367000", "144307.369000", "144307.372000", "144307.375000", "144307.378000", "144307.381000", "144307.384000", "144307.387000", "144307.390000", "144307.393000", "144307.396000", "144307.399000", "144307.402000", "144307.404000", "144307.407000", "144307.410000", "144347.327000", "144347.330000", "144347.333000", "144347.336000", "144347.339000", "144347.342000", "144347.345000", "144347.348000", "144347.351000", "144347.354000", "144347.357000", "144347.360000", "144347.363000", "144347.366000", "144347.368000", "144347.371000", "144347.374000", "144347.377000", "144347.380000", "144347.383000", "144347.386000", "144347.389000", "144347.392000", "144347.395000", "144347.398000", "144347.401000", "144347.404000", "144427.327000", "144427.330000", "144427.333000", "144427.336000", "144427.339000", "144427.342000", "144427.345000", "144427.348000", "144427.351000", "144427.354000", "144427.357000", "144427.360000", "144427.363000", "144427.366000", "144427.368000", "144427.371000", "144427.374000", "144427.377000", "144427.380000", "144427.383000", "144427.386000", "144427.389000", "144427.392000", "144427.395000", "144427.398000", "144427.401000", "144427.404000", "144507.327000", "144507.330000", "144507.333000", "144507.336000", "144507.339000", "144507.342000", "144507.345000", "144507.348000", "144507.351000", "144507.354000", "144507.357000", "144507.360000", "144507.363000", "144507.366000", "144507.368000", "144507.372000", "144507.374000", "144507.377000", "144507.380000", "144507.383000", "144507.386000", "144507.389000", "144507.392000", "144507.395000", "144507.398000", "144507.401000", "144507.404000", "144547.327000", "144547.330000", "144547.333000", "144547.336000", "144547.339000", "144547.342000", "144547.345000", "144547.348000", "144547.351000", "144547.354000", "144547.357000", "144547.360000", "144547.363000", "144547.366000", "144547.369000", "144547.372000", "144547.374000", "144547.377000", "144547.380000", "144547.383000", "144547.386000", "144547.389000", "144547.392000", "144547.395000", "144547.398000", "144547.401000", "144547.404000", "144627.327000", "144627.330000", "144627.333000", "144627.336000", "144627.339000", "144627.342000", "144627.345000", "144627.348000", "144627.351000", "144627.354000", "144627.357000", "144627.360000", "144627.363000", "144627.366000", "144627.369000", "144627.371000", "144627.386000", "144627.389000", "144627.392000", "144627.395000", "144627.398000", "144627.401000", "144627.403000", "144627.406000", "144627.409000", "144627.412000", "144627.415000", "144707.327000", "144707.330000", "144707.333000", "144707.336000", "144707.339000", "144707.342000", "144707.345000", "144707.348000", "144707.351000", "144707.354000", "144707.356000", "144707.359000", "144707.362000", "144707.365000", "144707.368000", "144707.371000", "144707.374000", "144707.377000", "144707.380000", "144707.383000", "144707.386000", "144707.389000", "144707.392000", "144707.395000", "144707.398000", "144707.401000", "144707.404000", "144747.327000", "144747.330000", "144747.333000", "144747.336000", "144747.339000", "144747.342000", "144747.345000", "144747.348000", "144747.351000", "144747.354000", "144747.357000", "144747.360000", "144747.363000", "144747.366000", "144747.369000", "144747.371000", "144747.374000", "144747.377000", "144747.380000", "144747.383000", "144747.386000", "144747.390000", "144747.393000", "144747.396000", "144747.399000", "144747.402000", "144805.450000", "144805.454000", "144805.457000", "144805.459000", "144805.462000", "144805.465000", "144805.468000", "144805.471000", "144805.474000", "144805.477000", "144805.480000", "144805.483000", "144805.486000"],
