{
  "AcquisitionMatrixPE": 104,
  "AcquisitionNumber": 1,
  "AcquisitionTime": "18:51:35.002500",
  "BandwidthPerPixelPhaseEncode": 17.17,
  "BaseResolution": 104,
  "BodyPartExamined": "BRAIN",
  "CoilString": "HC1-7;NC1_2",
  "ConsistencyInfo": "N4_VE11C_LATEST_20160120",
  "ConversionSoftware": "dcm2niix",
  "ConversionSoftwareVersion": "v1.0.20190902",
  "DerivedVendorReportedEchoSpacing": 0.000560011,
  "DeviceSerialNumber": "167006",
  "DwellTime": 2.1e-06,
  "EchoTime": 0.037,
  "EchoTrainLength": 104,
  "EffectiveEchoSpacing": 0.000560011,
  "FlipAngle": 52,
  "ImageComments": "Unaliased_MB4_PE3_LB",
  "ImageOrientationPatientDICOM": [0.99998, 0.00567842, -0.00266717, -0.00610858, 0.978173, -0.207703],
  "ImageType": [
    "ORIGINAL",
    "PRIMARY",
    "M",
    "MB",
    "ND",
    "MOSAIC"
],
  "ImagingFrequency": 123.259,
  "InPlanePhaseEncodingDirectionDICOM": "COL",
  "InstitutionAddress": "Chemin_Queen-Mary_4565_Montreal_District_CA_H3W_1W5",
  "InstitutionName": "IUGM",
  "InstitutionalDepartmentName": "Department",
  "MRAcquisitionType": "2D",
  "MagneticFieldStrength": 3,
  "Manufacturer": "Siemens",
  "ManufacturersModelName": "Prisma_fit",
  "Modality": "MR",
  "MultibandAccelerationFactor": 4,
  "PartialFourier": 1,
  "PatientPosition": "HFS",
  "PercentPhaseFOV": 100,
  "PhaseEncodingDirection": "j",
  "PhaseEncodingSteps": 104,
  "PhaseResolution": 1,
  "PixelBandwidth": 2290,
  "ProcedureStepDescription": "video_friends",
  "ProtocolName": "func_task-friends-s05e10b",
  "PulseSequenceDetails": "%CustomerSeq%_cmrr_mbep2d_bold",
  "ReceiveCoilActiveElements": "HC1-7;NC1,2",
  "ReceiveCoilName": "HeadNeck_64",
  "ReconMatrixPE": 104,
  "RepetitionTime": 1.49,
  "SAR": 0.0291613,
  "ScanOptions": "FS",
  "ScanningSequence": "EP",
  "SequenceName": "epfid2d1_104",
  "SequenceVariant": "SK_SS",
  "SeriesDescription": "func_task-friends-s05e10b",
  "SeriesNumber": 15,
  "ShimSetting": [629, -7245, -8738, 726, 1, -83, 167, 0],
  "SliceThickness": 2,
  "SliceTiming": [0, 0.7825, 0.0975, 0.8825, 0.195, 0.98, 0.2925, 1.0775, 0.3925, 1.175, 0.49, 1.2725, 0.5875, 1.3725, 0.685, 0, 0.7825, 0.0975, 0.8825, 0.195, 0.98, 0.2925, 1.0775, 0.3925, 1.175, 0.49, 1.2725, 0.5875, 1.3725, 0.685, 0, 0.7825, 0.0975, 0.8825, 0.195, 0.98, 0.2925, 1.0775, 0.3925, 1.175, 0.49, 1.2725, 0.5875, 1.3725, 0.685, 0, 0.7825, 0.0975, 0.8825, 0.195, 0.98, 0.2925, 1.0775, 0.3925, 1.175, 0.49, 1.2725, 0.5875, 1.3725, 0.685],
  "SoftwareVersions": "syngo_MR_E11",
  "SpacingBetweenSlices": 2,
  "StationName": "MRC35049",
  "TaskName": "s05e10b",
  "TotalReadoutTime": 0.0576811,
  "TxRefAmp": 205.073,
  "WipMemBlock": "da296aad-5e5a-4fcc-8414-ac3de6d131b6||Sequence: R016 ve11c/master r/e634e98; Dec 19 2017 11:00:25 by eja",
  "dcmmeta_affine": [
    [-1.9999606609344482, -0.012217162176966667, -0.0028590569272637367, 105.40727233886719],
    [-0.01135684922337532, 1.956345558166504, -0.41543105244636536, -86.53044128417969],
    [-0.00533434608951211, 0.4154066741466522, 1.9563764333724976, -41.5517692565918],
    [0.0, 0.0, 0.0, 1.0]
],
  "dcmmeta_reorient_transform": [
    [0.0, -1.0, 0.0, 103.0],
    [1.0, 0.0, 0.0, 0.0],
    [0.0, 0.0, 1.0, 0.0],
    [0.0, 0.0, 0.0, 1.0]
],
  "dcmmeta_shape": [104, 104, 60, 484],
  "dcmmeta_slice_dim": 2,
  "dcmmeta_version": 0.6,
  "global": {
    "const": {
      "AcquisitionMatrix": [104, 0, 0, 104],
      "AngioFlag": "N",
      "BitsAllocated": 16,
      "BitsStored": 16,
      "BodyPartExamined": "BRAIN",
      "Columns": 832,
      "EchoNumbers": 1,
      "EchoTime": 37.0,
      "EchoTrainLength": 104,
      "FlipAngle": 52.0,
      "HighBit": 15,
      "ImageOrientationPatient": [0.9999803206484, 0.00567842438709, -0.0026671731106, -0.0061085811896, 0.97817279242504, -0.207703330246],
      "ImagePositionPatient": [-827.68752935713, -831.21683747161, 154.38484143421],
      "ImageType": [
        "ORIGINAL",
        "PRIMARY",
        "M",
        "MB",
        "ND",
        "MOSAIC"
],
      "ImagedNucleus": "1H",
      "ImagingFrequency": 123.258942,
      "InPlanePhaseEncodingDirection": "COL",
      "MRAcquisitionType": "2D",
      "MagneticFieldStrength": 3.0,
      "Manufacturer": "SIEMENS",
      "ManufacturerModelName": "Prisma_fit",
      "Modality": "MR",
      "NumberOfAverages": 1.0,
      "NumberOfPhaseEncodingSteps": 104,
      "PercentPhaseFieldOfView": 100.0,
      "PercentSampling": 100.0,
      "PerformedProcedureStepStartTime": "175615.827000",
      "PhotometricInterpretation": "MONOCHROME2",
      "PixelBandwidth": 2290.0,
      "PixelRepresentation": 0,
      "PixelSpacing": [2.0, 2.0],
      "ProtocolName": "func_task-friends-s05e10b",
      "RepetitionTime": 1490.0,
      "Rows": 832,
      "SAR": 0.02916132025167,
      "SamplesPerPixel": 1,
      "ScanOptions": "FS",
      "ScanningSequence": "EP",
      "SequenceName": "epfid2d1_104",
      "SequenceVariant": [
        "SK",
        "SS"
],
      "SeriesDescription": "func_task-friends-s05e10b",
      "SeriesNumber": 15,
      "SeriesTime": "185246.706000",
      "SliceLocation": -22.822418630843,
      "SliceThickness": 2.0,
      "SmallestImagePixelValue": 0,
      "SoftwareVersions": "syngo MR E11",
      "SpacingBetweenSlices": 1.9999999533995,
      "SpecificCharacterSet": "ISO_IR 100",
      "StudyID": "1",
      "StudyTime": "175615.703000",
      "TransmitCoilName": "Body",
      "VariableFlipAngleFlag": "N",
      "WindowCenterWidthExplanation": "Algo1",
      "dBdt": 0.0},
    "slices": {}
  },
  "time": {
    "samples": {
      "AcquisitionNumber": [1, 2, 3, 4, 5, 6, 7, 8, 9, 10, 11, 12, 13, 14, 15, 16, 17, 18, 19, 20, 21, 22, 23, 24, 25, 26, 27, 28, 29, 30, 31, 32, 33, 34, 35, 36, 37, 38, 39, 40, 41, 42, 43, 44, 45, 46, 47, 48, 49, 50, 51, 52, 53, 54, 55, 56, 57, 58, 59, 60, 61, 62, 63, 64, 65, 66, 67, 68, 69, 70, 71, 72, 73, 74, 75, 76, 77, 78, 79, 80, 81, 82, 83, 84, 85, 86, 87, 88, 89, 90, 91, 92, 93, 94, 95, 96, 97, 98, 99, 100, 101, 102, 103, 104, 105, 106, 107, 108, 109, 110, 111, 112, 113, 114, 115, 116, 117, 118, 119, 120, 121, 122, 123, 124, 125, 126, 127, 128, 129, 130, 131, 132, 133, 134, 135, 136, 137, 138, 139, 140, 141, 142, 143, 144, 145, 146, 147, 148, 149, 150, 151, 152, 153, 154, 155, 156, 157, 158, 159, 160, 161, 162, 163, 164, 165, 166, 167, 168, 169, 170, 171, 172, 173, 174, 175, 176, 177, 178, 179, 180, 181, 182, 183, 184, 185, 186, 187, 188, 189, 190, 191, 192, 193, 194, 195, 196, 197, 198, 199, 200, 201, 202, 203, 204, 205, 206, 207, 208, 209, 210, 211, 212, 213, 214, 215, 216, 217, 218, 219, 220, 221, 222, 223, 224, 225, 226, 227, 228, 229, 230, 231, 232, 233, 234, 235, 236, 237, 238, 239, 240, 241, 242, 243, 244, 245, 246, 247, 248, 249, 250, 251, 252, 253, 254, 255, 256, 257, 258, 259, 260, 261, 262, 263, 264, 265, 266, 267, 268, 269, 270, 271, 272, 273, 274, 275, 276, 277, 278, 279, 280, 281, 282, 283, 284, 285, 286, 287, 288, 289, 290, 291, 292, 293, 294, 295, 296, 297, 298, 299, 300, 301, 302, 303, 304, 305, 306, 307, 308, 309, 310, 311, 312, 313, 314, 315, 316, 317, 318, 319, 320, 321, 322, 323, 324, 325, 326, 327, 328, 329, 330, 331, 332, 333, 334, 335, 336, 337, 338, 339, 340, 341, 342, 343, 344, 345, 346, 347, 348, 349, 350, 351, 352, 353, 354, 355, 356, 357, 358, 359, 360, 361, 362, 363, 364, 365, 366, 367, 368, 369, 370, 371, 372, 373, 374, 375, 376, 377, 378, 379, 380, 381, 382, 383, 384, 385, 386, 387, 388, 389, 390, 391, 392, 393, 394, 395, 396, 397, 398, 399, 400, 401, 402, 403, 404, 405, 406, 407, 408, 409, 410, 411, 412, 413, 414, 415, 416, 417, 418, 419, 420, 421, 422, 423, 424, 425, 426, 427, 428, 429, 430, 431, 432, 433, 434, 435, 436, 437, 438, 439, 440, 441, 442, 443, 444, 445, 446, 447, 448, 449, 450, 451, 452, 453, 454, 455, 456, 457, 458, 459, 460, 461, 462, 463, 464, 465, 466, 467, 468, 469, 470, 471, 472, 473, 474, 475, 476, 477, 478, 479, 480, 481, 482, 483, 484],
      "AcquisitionTime": ["185135.002500", "185136.492500", "185137.982500", "185139.472500", "185140.962500", "185142.452500", "185143.942500", "185145.432500", "185146.922500", "185148.412500", "185149.902500", "185151.392500", "185152.882500", "185154.372500", "185155.862500", "185157.352500", "185158.842500", "185200.332500", "185201.822500", "185203.312500", "185204.802500", "185206.292500", "185207.782500", "185209.272500", "185210.762500", "185212.252500", "185213.742500", "185215.232500", "185216.722500", "185218.212500", "185219.702500", "185221.192500", "185222.682500", "185224.172500", "185225.662500", "185227.152500", "185228.642500", "185230.132500", "185231.622500", "185233.112500", "185234.602500", "185236.092500", "185237.582500", "185239.072500", "185240.562500", "185242.052500", "185243.542500", "185245.032500", "185246.522500", "185248.012500", "185249.502500", "185250.992500", "185252.482500", "185253.972500", "185255.462500", "185256.952500", "185258.442500", "185259.932500", "185301.422500", "185302.912500", "185304.402500", "185305.892500", "185307.382500", "185308.872500", "185310.362500", "185311.852500", "185313.342500", "185314.832500", "185316.322500", "185317.812500", "185319.302500", "185320.792500", "185322.282500", "185323.772500", "185325.262500", "185326.752500", "185328.242500", "185329.732500", "185331.222500", "185332.712500", "185334.202500", "185335.692500", "185337.182500", "185338.672500", "185340.162500", "185341.652500", "185343.142500", "185344.632500", "185346.122500", "185347.612500", "185349.102500", "185350.592500", "185352.082500", "185353.572500", "185355.062500", "185356.552500", "185358.042500", "185359.532500", "185401.022500", "185402.512500", "185404.002500", "185405.492500", "185406.982500", "185408.472500", "185409.962500", "185411.452500", "185412.942500", "185414.432500", "185415.922500", "185417.412500", "185418.902500", "185420.392500", "185421.882500", "185423.372500", "185424.862500", "185426.352500", "185427.842500", "185429.332500", "185430.822500", "185432.312500", "185433.802500", "185435.292500", "185436.782500", "185438.272500", "185439.762500", "185441.252500", "185442.742500", "185444.232500", "185445.722500", "185447.212500", "185448.702500", "185450.192500", "185451.682500", "185453.172500", "185454.662500", "185456.152500", "185457.642500", "185459.132500", "185500.622500", "185502.112500", "185503.602500", "185505.092500", "185506.582500", "185508.072500", "185509.562500", "185511.052500", "185512.542500", "185514.032500", "185515.522500", "185517.012500", "185518.502500", "185519.992500", "185521.482500", "185522.972500", "185524.462500", "185525.952500", "185527.442500", "185528.932500", "185530.422500", "185531.912500", "185533.402500", "185534.892500", "185536.382500", "185537.872500", "185539.362500", "185540.852500", "185542.342500", "185543.832500", "185545.322500", "185546.812500", "185548.302500", "185549.792500", "185551.282500", "185552.772500", "185554.262500", "185555.752500", "185557.242500", "185558.732500", "185600.222500", "185601.712500", "185603.202500", "185604.692500", "185606.182500", "185607.672500", "185609.162500", "185610.652500", "185612.142500", "185613.632500", "185615.122500", "185616.612500", "185618.102500", "185619.592500", "185621.082500", "185622.572500", "185624.062500", "185625.552500", "185627.042500", "185628.532500", "185630.022500", "185631.512500", "185633.002500", "185634.492500", "185635.982500", "185637.472500", "185638.962500", "185640.452500", "185641.942500", "185643.432500", "185644.922500", "185646.412500", "185647.902500", "185649.392500", "185650.882500", "185652.372500", "185653.862500", "185655.352500", "185656.842500", "185658.332500", "185659.822500", "185701.312500", "185702.802500", "185704.292500", "185705.782500", "185707.272500", "185708.762500", "185710.252500", "185711.742500", "185713.232500", "185714.722500", "185716.212500", "185717.702500", "185719.192500", "185720.682500", "185722.172500", "185723.662500", "185725.152500", "185726.642500", "185728.132500", "185729.622500", "185731.112500", "185732.602500", "185734.092500", "185735.582500", "185737.072500", "185738.562500", "185740.052500", "185741.542500", "185743.032500", "185744.522500", "185746.012500", "185747.502500", "185748.992500", "185750.482500", "185751.972500", "185753.462500", "185754.952500", "185756.442500", "185757.932500", "185759.422500", "185800.912500", "185802.402500", "185803.892500", "185805.382500", "185806.872500", "185808.362500", "185809.852500", "185811.342500", "185812.832500", "185814.322500", "185815.812500", "185817.302500", "185818.792500", "185820.282500", "185821.772500", "185823.262500", "185824.752500", "185826.242500", "185827.732500", "185829.222500", "185830.712500", "185832.202500", "185833.692500", "185835.182500", "185836.672500", "185838.162500", "185839.652500", "185841.142500", "185842.632500", "185844.122500", "185845.612500", "185847.102500", "185848.592500", "185850.082500", "185851.572500", "185853.062500", "185854.552500", "185856.042500", "185857.532500", "185859.022500", "185900.512500", "185902.002500", "185903.492500", "185904.982500", "185906.472500", "185907.962500", "185909.452500", "185910.942500", "185912.432500", "185913.922500", "185915.412500", "185916.902500", "185918.392500", "185919.882500", "185921.372500", "185922.862500", "185924.352500", "185925.842500", "185927.332500", "185928.822500", "185930.312500", "185931.802500", "185933.292500", "185934.782500", "185936.272500", "185937.762500", "185939.252500", "185940.742500", "185942.232500", "185943.722500", "185945.212500", "185946.702500", "185948.192500", "185949.682500", "185951.172500", "185952.662500", "185954.152500", "185955.642500", "185957.132500", "185958.622500", "190000.112500", "190001.602500", "190003.092500", "190004.582500", "190006.072500", "190007.562500", "190009.052500", "190010.542500", "190012.032500", "190013.522500", "190015.012500", "190016.502500", "190017.992500", "190019.482500", "190020.972500", "190022.462500", "190023.952500", "190025.442500", "190026.932500", "190028.422500", "190029.912500", "190031.402500", "190032.892500", "190034.382500", "190035.872500", "190037.362500", "190038.852500", "190040.342500", "190041.832500", "190043.322500", "190044.812500", "190046.302500", "190047.792500", "190049.282500", "190050.772500", "190052.262500", "190053.752500", "190055.242500", "190056.732500", "190058.222500", "190059.712500", "190101.202500", "190102.692500", "190104.182500", "190105.672500", "190107.162500", "190108.652500", "190110.142500", "190111.632500", "190113.122500", "190114.612500", "190116.102500", "190117.592500", "190119.082500", "190120.572500", "190122.062500", "190123.552500", "190125.042500", "190126.532500", "190128.022500", "190129.512500", "190131.002500", "190132.492500", "190133.982500", "190135.472500", "190136.962500", "190138.452500", "190139.942500", "190141.432500", "190142.922500", "190144.412500", "190145.902500", "190147.392500", "190148.882500", "190150.372500", "190151.862500", "190153.352500", "190154.842500", "190156.332500", "190157.822500", "190159.312500", "190200.802500", "190202.292500", "190203.782500", "190205.272500", "190206.762500", "190208.252500", "190209.742500", "190211.232500", "190212.722500", "190214.212500", "190215.702500", "190217.192500", "190218.682500", "190220.172500", "190221.662500", "190223.152500", "190224.642500", "190226.132500", "190227.622500", "190229.112500", "190230.602500", "190232.092500", "190233.582500", "190235.072500", "190236.562500", "190238.052500", "190239.542500", "190241.032500", "190242.522500", "190244.012500", "190245.502500", "190246.992500", "190248.482500", "190249.972500", "190251.462500", "190252.952500", "190254.442500", "190255.932500", "190257.422500", "190258.912500", "190300.402500", "190301.892500", "190303.382500", "190304.872500", "190306.362500", "190307.852500", "190309.342500", "190310.832500", "190312.322500", "190313.812500", "190315.302500", "190316.792500", "190318.282500", "190319.772500", "190321.262500", "190322.752500", "190324.242500", "190325.732500", "190327.222500", "190328.712500", "190330.202500", "190331.692500", "190333.182500", "190334.672500"],
      "ContentTime": ["185246.709000", "185246.712000", "185246.715000", "185246.718000", "185246.720000", "185246.723000", "185246.731000", "185246.734000", "185246.737000", "185246.740000", "185246.743000", "185246.746000", "185246.750000", "185246.753000", "185246.762000", "185246.765000", "185246.768000", "185306.671000", "185306.674000", "185306.677000", "185306.680000", "185306.682000", "185306.685000", "185306.694000", "185306.697000", "185306.700000", "185306.703000", "185306.706000", "185306.708000", "185306.711000", "185306.714000", "185306.717000", "185306.720000", "185306.722000", "185306.725000", "185306.728000", "185306.731000", "185326.671000", "185326.674000", "185326.677000", "185326.680000", "185326.682000", "185326.685000", "185326.696000", "185326.699000", "185326.701000", "185326.704000", "185326.707000", "185326.710000", "185326.713000", "185326.715000", "185326.718000", "185326.721000", "185326.724000", "185326.726000", "185326.729000", "185326.732000", "185346.671000", "185346.674000", "185346.677000", "185346.680000", "185346.682000", "185346.685000", "185346.688000", "185346.691000", "185347.044000", "185347.047000", "185347.050000", "185347.054000", "185347.057000", "185347.060000", "185347.063000", "185347.065000", "185347.068000", "185347.071000", "185347.074000", "185347.077000", "185406.672000", "185406.675000", "185406.678000", "185406.680000", "185406.683000", "185406.686000", "185406.689000", "185406.692000", "185406.694000", "185406.697000", "185406.700000", "185406.703000", "185406.706000", "185406.709000", "185406.711000", "185406.714000", "185406.717000", "185406.720000", "185406.723000", "185406.725000", "185446.671000", "185446.674000", "185446.678000", "185446.680000", "185446.683000", "185446.686000", "185446.689000", "185446.692000", "185446.695000", "185446.698000", "185446.701000", "185446.704000", "185446.707000", "185446.711000", "185446.714000", "185446.717000", "185446.719000", "185446.722000", "185446.725000", "185446.728000", "185446.731000", "185446.734000", "185446.737000", "185446.740000", "185446.742000", "185446.745000", "185446.748000", "185446.751000", "185446.754000", "185446.757000", "185526.671000", "185526.674000", "185526.677000", "185526.680000", "185526.682000", "185526.685000", "185526.688000", "185526.691000", "185526.694000", "185526.696000", "185526.699000", "185526.702000", "185526.705000", "185526.708000", "185526.710000", "185526.713000", "185526.716000", "185526.719000", "185526.722000", "185526.725000", "185526.728000", "185526.730000", "185526.733000", "185526.736000", "185526.739000", "185526.742000", "185526.744000", "185606.671000", "185606.674000", "185606.677000", "185606.680000", "185606.683000", "185606.686000", "185606.689000", "185606.691000", "185606.694000", "185606.697000", "185606.700000", "185606.703000", "185606.706000", "185606.708000", "185606.711000", "185606.714000", "185606.717000", "185606.720000", "185606.736000", "185606.748000", "185606.751000", "185606.754000", "185606.757000", "185606.760000", "185606.762000", "185606.765000", "185606.768000", "185646.671000", "185646.674000", "185646.677000", "185646.680000", "185646.682000", "185646.685000", "185646.688000", "185646.691000", "185646.694000", "185646.696000", "185646.699000", "185646.702000", "185646.705000", "185646.708000", "185646.710000", "185646.713000", "185646.716000", "185646.719000", "185646.722000", "185646.725000", "185646.727000", "185646.730000", "185646.733000", "185646.736000", "185646.739000", "185646.741000", "185646.744000", "185726.671000", "185726.674000", "185726.677000", "185726.680000", "185726.682000", "185726.685000", "185726.688000", "185726.691000", "185726.694000", "185726.696000", "185726.699000", "185726.702000", "185726.705000", "185726.708000", "185726.711000", "185726.713000", "185726.716000", "185726.719000", "185726.722000", "185726.725000", "185726.728000", "185726.730000", "185726.733000", "185726.736000", "185726.739000", "185726.742000", "185726.745000", "185806.671000", "185806.674000", "185806.677000", "185806.679000", "185806.682000", "185806.685000", "185806.688000", "185806.691000", "185806.694000", "185806.696000", "185806.699000", "185806.702000", "185806.705000", "185806.708000", "185806.711000", "185806.713000", "185806.716000", "185806.719000", "185806.722000", "185806.725000", "185806.728000", "185806.730000", "185806.733000", "185806.736000", "185806.739000", "185806.742000", "185806.744000", "185846.671000", "185846.675000", "185846.677000", "185846.680000", "185846.683000", "185846.686000", "185846.689000", "185846.692000", "185846.694000", "185846.697000", "185846.700000", "185846.703000", "185846.706000", "185846.709000", "185846.712000", "185846.714000", "185846.717000", "185846.720000", "185846.723000", "185846.726000", "185846.729000", "185846.731000", "185846.734000", "185846.737000", "185846.740000", "185846.743000", "185926.671000", "185926.674000", "185926.677000", "185926.680000", "185926.682000", "185926.685000", "185926.688000", "185926.691000", "185926.694000", "185926.697000", "185926.699000", "185926.702000", "185926.705000", "185926.708000", "185926.711000", "185926.714000", "185926.716000", "185926.719000", "185926.722000", "185926.725000", "185926.756000", "185926.759000", "185926.762000", "185926.765000", "185926.769000", "185926.772000", "185926.775000", "190006.671000", "190008.635000", "190008.638000", "190008.641000", "190008.644000", "190008.647000", "190008.650000", "190008.654000", "190008.657000", "190008.660000", "190008.663000", "190008.666000", "190008.668000", "190008.671000", "190008.674000", "190008.677000", "190008.680000", "190008.682000", "190008.688000", "190008.690000", "190008.693000", "190008.696000", "190008.699000", "190008.702000", "190008.705000", "190008.708000", "190046.671000", "190046.846000", "190046.849000", "190046.852000", "190046.855000", "190046.857000", "190046.860000", "190046.863000", "190046.866000", "190046.869000", "190046.872000", "190046.874000", "190046.877000", "190046.880000", "190046.883000", "190046.886000", "190046.889000", "190046.892000", "190046.895000", "190046.897000", "190046.900000", "190046.903000", "190046.906000", "190046.909000", "190046.911000", "190046.914000", "190046.917000", "190046.920000", "190126.671000", "190126.674000", "190126.677000", "190126.680000", "190126.683000", "190126.686000", "190126.689000", "190126.692000", "190126.694000", "190126.697000", "190126.700000", "190126.703000", "190126.706000", "190126.709000", "190126.711000", "190126.714000", "190126.717000", "190126.720000", "190126.723000", "190126.726000", "190126.729000", "190126.732000", "190126.735000", "190126.738000", "190126.740000", "190126.743000", "190126.746000", "190206.967000", "190206.971000", "190206.973000", "190206.976000", "190206.979000", "190206.982000", "190207.007000", "190207.010000", "190207.013000", "190207.016000", "190207.018000", "190207.021000", "190207.024000", "190207.027000", "190207.030000", "190207.033000", "190207.035000", "190207.038000", "190207.041000", "190207.044000", "190207.047000", "190207.050000", "190207.052000", "190207.055000", "190207.058000", "190207.061000", "190207.064000", "190246.671000", "190246.674000", "190246.677000", "190246.680000", "190246.683000", "190246.685000", "190246.688000", "190246.691000", "190246.694000", "190246.697000", "190246.700000", "190246.703000", "190246.705000", "190246.708000", "190246.711000", "190246.714000", "190246.717000", "190246.719000", "190246.722000", "190246.725000", "190246.728000", "190246.731000", "190246.734000", "190246.736000", "190246.739000", "190246.742000", "190246.745000", "190326.671000", "190326.674000", "190326.677000", "190326.680000", "190326.683000", "190326.686000", "190326.689000", "190326.691000", "190326.694000", "190326.697000", "190326.700000", "190326.712000", "190326.715000", "190326.718000", "190326.720000", "190326.723000", "190326.726000", "190326.729000", "190326.732000", "190326.735000", "190326.738000", "190326.740000", "190326.743000", "190326.746000", "190326.749000", "190326.752000", "190337.430000", "190337.626000", "190337.629000", "190337.632000", "190337.635000", "190337.638000", "190337.641000", "190337.653000"],
