{
  "AcquisitionMatrixPE": 104,
  "AcquisitionNumber": 1,
  "AcquisitionTime": "18:23:49.537500",
  "BandwidthPerPixelPhaseEncode": 17.17,
  "BaseResolution": 104,
  "BodyPartExamined": "BRAIN",
  "CoilString": "HC1-7;NC1_2",
  "ConsistencyInfo": "N4_VE11C_LATEST_20160120",
  "ConversionSoftware": "dcm2niix",
  "ConversionSoftwareVersion": "v1.0.20190902",
  "DerivedVendorReportedEchoSpacing": 0.000560011,
  "DeviceSerialNumber": "167006",
  "DwellTime": 2.1e-06,
  "EchoTime": 0.037,
  "EchoTrainLength": 104,
  "EffectiveEchoSpacing": 0.000560011,
  "FlipAngle": 52,
  "ImageComments": "Unaliased_MB4_PE3_LB",
  "ImageOrientationPatientDICOM": [0.99998, 0.00567842, -0.00266717, -0.00610858, 0.978173, -0.207703],
  "ImageType": [
    "ORIGINAL",
    "PRIMARY",
    "M",
    "MB",
    "ND",
    "MOSAIC"
],
  "ImagingFrequency": 123.259,
  "InPlanePhaseEncodingDirectionDICOM": "COL",
  "InstitutionAddress": "Chemin_Queen-Mary_4565_Montreal_District_CA_H3W_1W5",
  "InstitutionName": "IUGM",
  "InstitutionalDepartmentName": "Department",
  "MRAcquisitionType": "2D",
  "MagneticFieldStrength": 3,
  "Manufacturer": "Siemens",
  "ManufacturersModelName": "Prisma_fit",
  "Modality": "MR",
  "MultibandAccelerationFactor": 4,
  "PartialFourier": 1,
  "PatientPosition": "HFS",
  "PercentPhaseFOV": 100,
  "PhaseEncodingDirection": "j",
  "PhaseEncodingSteps": 104,
  "PhaseResolution": 1,
  "PixelBandwidth": 2290,
  "ProcedureStepDescription": "video_friends",
  "ProtocolName": "func_task-friends-s05e09b",
  "PulseSequenceDetails": "%CustomerSeq%_cmrr_mbep2d_bold",
  "ReceiveCoilActiveElements": "HC1-7;NC1,2",
  "ReceiveCoilName": "HeadNeck_64",
  "ReconMatrixPE": 104,
  "RepetitionTime": 1.49,
  "SAR": 0.0291628,
  "ScanOptions": "FS",
  "ScanningSequence": "EP",
  "SequenceName": "epfid2d1_104",
  "SequenceVariant": "SK_SS",
  "SeriesDescription": "func_task-friends-s05e09b",
  "SeriesNumber": 11,
  "ShimSetting": [629, -7245, -8738, 726, 1, -83, 167, 0],
  "SliceThickness": 2,
  "SliceTiming": [0, 0.785, 0.0975, 0.8825, 0.195, 0.98, 0.295, 1.0775, 0.3925, 1.175, 0.49, 1.275, 0.5875, 1.3725, 0.685, 0, 0.785, 0.0975, 0.8825, 0.195, 0.98, 0.295, 1.0775, 0.3925, 1.175, 0.49, 1.275, 0.5875, 1.3725, 0.685, 0, 0.785, 0.0975, 0.8825, 0.195, 0.98, 0.295, 1.0775, 0.3925, 1.175, 0.49, 1.275, 0.5875, 1.3725, 0.685, 0, 0.785, 0.0975, 0.8825, 0.195, 0.98, 0.295, 1.0775, 0.3925, 1.175, 0.49, 1.275, 0.5875, 1.3725, 0.685],
  "SoftwareVersions": "syngo_MR_E11",
  "SpacingBetweenSlices": 2,
  "StationName": "MRC35049",
  "TaskName": "s05e09b",
  "TotalReadoutTime": 0.0576811,
  "TxRefAmp": 205.073,
  "WipMemBlock": "7376b272-9234-498e-812b-6acd9fa0dcbf||Sequence: R016 ve11c/master r/e634e98; Dec 19 2017 11:00:25 by eja",
  "dcmmeta_affine": [
    [-1.9999606609344482, -0.012217162176966667, -0.0028590569272637367, 105.40727233886719],
    [-0.01135684922337532, 1.956345558166504, -0.41543105244636536, -86.53044128417969],
    [-0.00533434608951211, 0.4154066741466522, 1.9563764333724976, -41.5517692565918],
    [0.0, 0.0, 0.0, 1.0]
],
  "dcmmeta_reorient_transform": [
    [0.0, -1.0, 0.0, 103.0],
    [1.0, 0.0, 0.0, 0.0],
    [0.0, 0.0, 1.0, 0.0],
    [0.0, 0.0, 0.0, 1.0]
],
  "dcmmeta_shape": [104, 104, 60, 490],
  "dcmmeta_slice_dim": 2,
  "dcmmeta_version": 0.6,
  "global": {
    "const": {
      "AcquisitionMatrix": [104, 0, 0, 104],
      "AngioFlag": "N",
      "BitsAllocated": 16,
      "BitsStored": 16,
      "BodyPartExamined": "BRAIN",
      "Columns": 832,
      "EchoNumbers": 1,
      "EchoTime": 37.0,
      "EchoTrainLength": 104,
      "FlipAngle": 52.0,
      "HighBit": 15,
      "ImageOrientationPatient": [0.9999803206484, 0.00567842438709, -0.0026671731106, -0.0061085811896, 0.97817279242504, -0.207703330246],
      "ImagePositionPatient": [-827.68752935713, -831.21683747161, 154.38484143421],
      "ImageType": [
        "ORIGINAL",
        "PRIMARY",
        "M",
        "MB",
        "ND",
        "MOSAIC"
],
      "ImagedNucleus": "1H",
      "ImagingFrequency": 123.258931,
      "InPlanePhaseEncodingDirection": "COL",
      "MRAcquisitionType": "2D",
      "MagneticFieldStrength": 3.0,
      "Manufacturer": "SIEMENS",
      "ManufacturerModelName": "Prisma_fit",
      "Modality": "MR",
      "NumberOfAverages": 1.0,
      "NumberOfPhaseEncodingSteps": 104,
      "PercentPhaseFieldOfView": 100.0,
      "PercentSampling": 100.0,
      "PerformedProcedureStepStartTime": "175615.827000",
      "PhotometricInterpretation": "MONOCHROME2",
      "PixelBandwidth": 2290.0,
      "PixelRepresentation": 0,
      "PixelSpacing": [2.0, 2.0],
      "ProtocolName": "func_task-friends-s05e09b",
      "RepetitionTime": 1490.0,
      "Rows": 832,
      "SAR": 0.02916277951088,
      "SamplesPerPixel": 1,
      "ScanOptions": "FS",
      "ScanningSequence": "EP",
      "SequenceName": "epfid2d1_104",
      "SequenceVariant": [
        "SK",
        "SS"
],
      "SeriesDescription": "func_task-friends-s05e09b",
      "SeriesNumber": 11,
      "SeriesTime": "182516.813000",
      "SliceLocation": -22.822418630843,
      "SliceThickness": 2.0,
      "SmallestImagePixelValue": 0,
      "SoftwareVersions": "syngo MR E11",
      "SpacingBetweenSlices": 1.9999999533995,
      "SpecificCharacterSet": "ISO_IR 100",
      "StudyID": "1",
      "StudyTime": "175615.703000",
      "TransmitCoilName": "Body",
      "VariableFlipAngleFlag": "N",
      "WindowCenterWidthExplanation": "Algo1",
      "dBdt": 0.0},
    "slices": {}
  },
  "time": {
    "samples": {
      "AcquisitionNumber": [1, 2, 3, 4, 5, 6, 7, 8, 9, 10, 11, 12, 13, 14, 15, 16, 17, 18, 19, 20, 21, 22, 23, 24, 25, 26, 27, 28, 29, 30, 31, 32, 33, 34, 35, 36, 37, 38, 39, 40, 41, 42, 43, 44, 45, 46, 47, 48, 49, 50, 51, 52, 53, 54, 55, 56, 57, 58, 59, 60, 61, 62, 63, 64, 65, 66, 67, 68, 69, 70, 71, 72, 73, 74, 75, 76, 77, 78, 79, 80, 81, 82, 83, 84, 85, 86, 87, 88, 89, 90, 91, 92, 93, 94, 95, 96, 97, 98, 99, 100, 101, 102, 103, 104, 105, 106, 107, 108, 109, 110, 111, 112, 113, 114, 115, 116, 117, 118, 119, 120, 121, 122, 123, 124, 125, 126, 127, 128, 129, 130, 131, 132, 133, 134, 135, 136, 137, 138, 139, 140, 141, 142, 143, 144, 145, 146, 147, 148, 149, 150, 151, 152, 153, 154, 155, 156, 157, 158, 159, 160, 161, 162, 163, 164, 165, 166, 167, 168, 169, 170, 171, 172, 173, 174, 175, 176, 177, 178, 179, 180, 181, 182, 183, 184, 185, 186, 187, 188, 189, 190, 191, 192, 193, 194, 195, 196, 197, 198, 199, 200, 201, 202, 203, 204, 205, 206, 207, 208, 209, 210, 211, 212, 213, 214, 215, 216, 217, 218, 219, 220, 221, 222, 223, 224, 225, 226, 227, 228, 229, 230, 231, 232, 233, 234, 235, 236, 237, 238, 239, 240, 241, 242, 243, 244, 245, 246, 247, 248, 249, 250, 251, 252, 253, 254, 255, 256, 257, 258, 259, 260, 261, 262, 263, 264, 265, 266, 267, 268, 269, 270, 271, 272, 273, 274, 275, 276, 277, 278, 279, 280, 281, 282, 283, 284, 285, 286, 287, 288, 289, 290, 291, 292, 293, 294, 295, 296, 297, 298, 299, 300, 301, 302, 303, 304, 305, 306, 307, 308, 309, 310, 311, 312, 313, 314, 315, 316, 317, 318, 319, 320, 321, 322, 323, 324, 325, 326, 327, 328, 329, 330, 331, 332, 333, 334, 335, 336, 337, 338, 339, 340, 341, 342, 343, 344, 345, 346, 347, 348, 349, 350, 351, 352, 353, 354, 355, 356, 357, 358, 359, 360, 361, 362, 363, 364, 365, 366, 367, 368, 369, 370, 371, 372, 373, 374, 375, 376, 377, 378, 379, 380, 381, 382, 383, 384, 385, 386, 387, 388, 389, 390, 391, 392, 393, 394, 395, 396, 397, 398, 399, 400, 401, 402, 403, 404, 405, 406, 407, 408, 409, 410, 411, 412, 413, 414, 415, 416, 417, 418, 419, 420, 421, 422, 423, 424, 425, 426, 427, 428, 429, 430, 431, 432, 433, 434, 435, 436, 437, 438, 439, 440, 441, 442, 443, 444, 445, 446, 447, 448, 449, 450, 451, 452, 453, 454, 455, 456, 457, 458, 459, 460, 461, 462, 463, 464, 465, 466, 467, 468, 469, 470, 471, 472, 473, 474, 475, 476, 477, 478, 479, 480, 481, 482, 483, 484, 485, 486, 487, 488, 489, 490],
      "AcquisitionTime": ["182349.537500", "182351.027500", "182352.517500", "182354.007500", "182355.497500", "182356.987500", "182358.477500", "182359.967500", "182401.457500", "182402.947500", "182404.437500", "182405.927500", "182407.417500", "182408.907500", "182410.397500", "182411.887500", "182413.377500", "182414.867500", "182416.357500", "182417.847500", "182419.337500", "182420.827500", "182422.317500", "182423.807500", "182425.297500", "182426.787500", "182428.277500", "182429.767500", "182431.257500", "182432.747500", "182434.237500", "182435.727500", "182437.217500", "182438.707500", "182440.197500", "182441.687500", "182443.177500", "182444.667500", "182446.157500", "182447.647500", "182449.137500", "182450.627500", "182452.117500", "182453.607500", "182455.097500", "182456.587500", "182458.077500", "182459.567500", "182501.057500", "182502.547500", "182504.037500", "182505.527500", "182507.017500", "182508.507500", "182509.997500", "182511.487500", "182512.977500", "182514.467500", "182515.957500", "182517.447500", "182518.937500", "182520.427500", "182521.917500", "182523.407500", "182524.897500", "182526.387500", "182527.877500", "182529.367500", "182530.857500", "182532.347500", "182533.837500", "182535.327500", "182536.817500", "182538.307500", "182539.797500", "182541.287500", "182542.777500", "182544.267500", "182545.757500", "182547.247500", "182548.737500", "182550.227500", "182551.717500", "182553.207500", "182554.697500", "182556.187500", "182557.677500", "182559.167500", "182600.657500", "182602.147500", "182603.637500", "182605.127500", "182606.617500", "182608.107500", "182609.597500", "182611.087500", "182612.577500", "182614.067500", "182615.557500", "182617.047500", "182618.537500", "182620.027500", "182621.517500", "182623.007500", "182624.497500", "182625.987500", "182627.477500", "182628.967500", "182630.457500", "182631.947500", "182633.437500", "182634.927500", "182636.417500", "182637.907500", "182639.397500", "182640.887500", "182642.377500", "182643.867500", "182645.357500", "182646.847500", "182648.337500", "182649.827500", "182651.317500", "182652.807500", "182654.297500", "182655.787500", "182657.277500", "182658.767500", "182700.257500", "182701.747500", "182703.237500", "182704.727500", "182706.217500", "182707.707500", "182709.197500", "182710.687500", "182712.177500", "182713.667500", "182715.157500", "182716.647500", "182718.137500", "182719.627500", "182721.117500", "182722.607500", "182724.097500", "182725.587500", "182727.077500", "182728.567500", "182730.057500", "182731.547500", "182733.037500", "182734.527500", "182736.017500", "182737.507500", "182738.997500", "182740.487500", "182741.977500", "182743.467500", "182744.957500", "182746.447500", "182747.937500", "182749.427500", "182750.917500", "182752.407500", "182753.897500", "182755.387500", "182756.877500", "182758.367500", "182759.857500", "182801.347500", "182802.837500", "182804.327500", "182805.817500", "182807.307500", "182808.797500", "182810.287500", "182811.777500", "182813.267500", "182814.757500", "182816.247500", "182817.737500", "182819.227500", "182820.717500", "182822.207500", "182823.697500", "182825.187500", "182826.677500", "182828.167500", "182829.657500", "182831.147500", "182832.637500", "182834.127500", "182835.617500", "182837.107500", "182838.597500", "182840.087500", "182841.577500", "182843.067500", "182844.557500", "182846.047500", "182847.537500", "182849.027500", "182850.517500", "182852.007500", "182853.497500", "182854.987500", "182856.477500", "182857.967500", "182859.457500", "182900.947500", "182902.437500", "182903.927500", "182905.417500", "182906.907500", "182908.397500", "182909.887500", "182911.377500", "182912.867500", "182914.357500", "182915.847500", "182917.337500", "182918.827500", "182920.317500", "182921.807500", "182923.297500", "182924.787500", "182926.277500", "182927.767500", "182929.257500", "182930.747500", "182932.237500", "182933.727500", "182935.217500", "182936.707500", "182938.197500", "182939.687500", "182941.177500", "182942.667500", "182944.157500", "182945.647500", "182947.137500", "182948.627500", "182950.117500", "182951.607500", "182953.097500", "182954.587500", "182956.077500", "182957.567500", "182959.057500", "183000.547500", "183002.037500", "183003.527500", "183005.017500", "183006.507500", "183007.997500", "183009.487500", "183010.977500", "183012.467500", "183013.957500", "183015.447500", "183016.937500", "183018.427500", "183019.917500", "183021.407500", "183022.897500", "183024.387500", "183025.877500", "183027.367500", "183028.857500", "183030.347500", "183031.837500", "183033.327500", "183034.817500", "183036.307500", "183037.797500", "183039.287500", "183040.777500", "183042.267500", "183043.757500", "183045.247500", "183046.737500", "183048.227500", "183049.717500", "183051.207500", "183052.697500", "183054.187500", "183055.677500", "183057.167500", "183058.657500", "183100.147500", "183101.637500", "183103.127500", "183104.617500", "183106.107500", "183107.597500", "183109.087500", "183110.577500", "183112.067500", "183113.557500", "183115.047500", "183116.537500", "183118.027500", "183119.517500", "183121.007500", "183122.497500", "183123.987500", "183125.477500", "183126.967500", "183128.457500", "183129.947500", "183131.437500", "183132.927500", "183134.417500", "183135.907500", "183137.397500", "183138.887500", "183140.377500", "183141.867500", "183143.357500", "183144.847500", "183146.337500", "183147.827500", "183149.317500", "183150.807500", "183152.297500", "183153.787500", "183155.277500", "183156.767500", "183158.257500", "183159.747500", "183201.237500", "183202.727500", "183204.217500", "183205.707500", "183207.197500", "183208.687500", "183210.177500", "183211.667500", "183213.157500", "183214.647500", "183216.137500", "183217.627500", "183219.117500", "183220.607500", "183222.097500", "183223.587500", "183225.077500", "183226.567500", "183228.057500", "183229.547500", "183231.037500", "183232.527500", "183234.017500", "183235.507500", "183236.997500", "183238.487500", "183239.977500", "183241.467500", "183242.957500", "183244.447500", "183245.937500", "183247.427500", "183248.917500", "183250.407500", "183251.897500", "183253.387500", "183254.877500", "183256.367500", "183257.857500", "183259.347500", "183300.837500", "183302.327500", "183303.817500", "183305.307500", "183306.797500", "183308.287500", "183309.777500", "183311.267500", "183312.757500", "183314.247500", "183315.737500", "183317.227500", "183318.717500", "183320.207500", "183321.697500", "183323.187500", "183324.677500", "183326.167500", "183327.657500", "183329.147500", "183330.637500", "183332.127500", "183333.617500", "183335.107500", "183336.597500", "183338.087500", "183339.577500", "183341.067500", "183342.557500", "183344.047500", "183345.537500", "183347.027500", "183348.517500", "183350.007500", "183351.497500", "183352.987500", "183354.477500", "183355.967500", "183357.457500", "183358.947500", "183400.437500", "183401.927500", "183403.417500", "183404.907500", "183406.397500", "183407.887500", "183409.377500", "183410.867500", "183412.357500", "183413.847500", "183415.337500", "183416.827500", "183418.317500", "183419.807500", "183421.297500", "183422.787500", "183424.277500", "183425.767500", "183427.257500", "183428.747500", "183430.237500", "183431.727500", "183433.217500", "183434.707500", "183436.197500", "183437.687500", "183439.177500", "183440.667500", "183442.157500", "183443.647500", "183445.137500", "183446.627500", "183448.117500", "183449.607500", "183451.097500", "183452.587500", "183454.077500", "183455.567500", "183457.057500", "183458.547500", "183500.037500", "183501.527500", "183503.017500", "183504.507500", "183505.997500", "183507.487500", "183508.977500", "183510.467500", "183511.957500", "183513.447500", "183514.937500", "183516.427500", "183517.917500", "183519.407500", "183520.897500", "183522.387500", "183523.877500", "183525.367500", "183526.857500", "183528.347500", "183529.837500", "183531.327500", "183532.817500", "183534.307500", "183535.797500", "183537.287500", "183538.777500", "183540.267500", "183541.757500", "183543.247500", "183544.737500", "183546.227500", "183547.717500", "183549.207500", "183550.697500", "183552.187500", "183553.677500", "183555.167500", "183556.657500", "183558.147500"],
      "ContentTime": ["182516.816000", "182516.819000", "182516.822000", "182516.825000", "182516.828000", "182516.831000", "182516.833000", "182516.836000", "182516.839000", "182516.842000", "182516.845000", "182516.855000", "182516.867000", "182516.870000", "182516.873000", "182516.876000", "182516.879000", "182516.882000", "182516.884000", "182516.887000", "182516.890000", "182516.893000", "182516.895000", "182516.898000", "182516.901000", "182516.904000", "182516.907000", "182516.910000", "182516.912000", "182516.915000", "182516.918000", "182516.921000", "182516.924000", "182536.786000", "182536.789000", "182536.792000", "182536.794000", "182536.797000", "182536.800000", "182536.803000", "182536.806000", "182536.808000", "182536.811000", "182536.814000", "182536.817000", "182536.820000", "182536.823000", "182536.825000", "182536.828000", "182536.831000", "182536.834000", "182536.837000", "182536.839000", "182556.786000", "182556.789000", "182556.792000", "182556.794000", "182556.797000", "182556.802000", "182556.805000", "182556.807000", "182556.810000", "182556.813000", "182556.816000", "182556.818000", "182556.821000", "182556.824000", "182556.827000", "182556.830000", "182556.833000", "182556.835000", "182556.838000", "182556.841000", "182616.785000", "182616.788000", "182616.791000", "182616.793000", "182616.796000", "182616.799000", "182616.802000", "182616.805000", "182616.808000", "182616.810000", "182616.813000", "182616.816000", "182616.826000", "182616.828000", "182616.831000", "182616.834000", "182616.837000", "182616.840000", "182616.842000", "182616.845000", "182656.785000", "182656.788000", "182656.801000", "182656.804000", "182656.807000", "182656.810000", "182656.812000", "182656.815000", "182656.818000", "182656.821000", "182656.824000", "182656.826000", "182656.829000", "182656.832000", "182656.835000", "182656.838000", "182656.840000", "182656.843000", "182656.846000", "182656.849000", "182656.852000", "182656.854000", "182656.857000", "182656.860000", "182656.863000", "182656.866000", "182656.869000", "182656.871000", "182656.874000", "182656.884000", "182656.886000", "182736.786000", "182736.789000", "182736.792000", "182736.794000", "182736.797000", "182736.800000", "182736.803000", "182736.806000", "182736.808000", "182736.811000", "182736.814000", "182736.817000", "182736.820000", "182736.823000", "182736.825000", "182736.828000", "182736.831000", "182736.834000", "182736.837000", "182736.839000", "182736.842000", "182736.845000", "182736.848000", "182736.851000", "182736.854000", "182736.856000", "182736.859000", "182816.786000", "182816.789000", "182816.792000", "182816.794000", "182816.797000", "182816.800000", "182816.803000", "182816.806000", "182816.808000", "182816.811000", "182816.814000", "182816.817000", "182816.820000", "182816.823000", "182816.825000", "182816.828000", "182816.831000", "182816.834000", "182816.837000", "182816.839000", "182816.842000", "182816.845000", "182816.848000", "182816.851000", "182816.853000", "182816.856000", "182816.859000", "182856.785000", "182856.788000", "182856.791000", "182856.794000", "182856.796000", "182856.799000", "182856.802000", "182856.805000", "182856.808000", "182856.811000", "182856.813000", "182856.816000", "182856.819000", "182856.822000", "182856.825000", "182856.827000", "182856.830000", "182856.833000", "182856.836000", "182856.839000", "182856.842000", "182856.844000", "182856.847000", "182856.850000", "182856.853000", "182856.856000", "182856.858000", "182936.786000", "182936.789000", "182936.792000", "182936.794000", "182936.797000", "182936.800000", "182936.803000", "182936.806000", "182936.820000", "182936.822000", "182936.825000", "182936.828000", "182936.831000", "182936.834000", "182936.836000", "182936.839000", "182936.842000", "182936.845000", "182936.848000", "182936.851000", "182936.854000", "182936.857000", "182936.860000", "182936.863000", "182936.866000", "182936.869000", "183016.786000", "183016.789000", "183016.792000", "183016.795000", "183016.798000", "183016.800000", "183016.803000", "183016.806000", "183016.809000", "183016.812000", "183016.814000", "183016.817000", "183016.820000", "183016.831000", "183016.834000", "183016.837000", "183016.839000", "183016.842000", "183016.845000", "183016.848000", "183016.851000", "183016.853000", "183016.856000", "183016.859000", "183016.862000", "183016.865000", "183016.868000", "183056.785000", "183056.788000", "183056.791000", "183056.794000", "183056.796000", "183056.799000", "183056.802000", "183056.805000", "183056.808000", "183056.811000", "183056.814000", "183056.816000", "183056.819000", "183056.822000", "183056.825000", "183056.828000", "183056.830000", "183056.833000", "183056.836000", "183056.839000", "183056.842000", "183056.845000", "183056.847000", "183056.850000", "183056.853000", "183056.856000", "183056.859000", "183136.785000", "183136.788000", "183136.791000", "183136.794000", "183136.796000", "183136.799000", "183136.802000", "183136.805000", "183136.808000", "183136.811000", "183136.814000", "183136.816000", "183136.819000", "183136.822000", "183136.825000", "183136.828000", "183136.830000", "183136.833000", "183136.836000", "183136.839000", "183136.842000", "183136.845000", "183136.847000", "183136.850000", "183136.853000", "183136.856000", "183136.859000", "183216.786000", "183216.789000", "183216.792000", "183216.801000", "183216.804000", "183216.806000", "183216.809000", "183216.812000", "183216.815000", "183216.818000", "183216.821000", "183216.823000", "183216.826000", "183216.829000", "183216.832000", "183216.835000", "183216.838000", "183216.840000", "183216.843000", "183216.846000", "183216.849000", "183216.852000", "183216.854000", "183216.857000", "183216.860000", "183216.863000", "183216.866000", "183256.786000", "183256.789000", "183256.792000", "183256.795000", "183256.797000", "183256.800000", "183256.803000", "183256.806000", "183256.809000", "183256.811000", "183256.814000", "183256.817000", "183256.820000", "183256.823000", "183256.826000", "183256.828000", "183256.831000", "183256.834000", "183256.837000", "183256.840000", "183256.842000", "183256.845000", "183256.848000", "183256.851000", "183256.854000", "183256.857000", "183256.859000", "183336.785000", "183336.788000", "183336.791000", "183336.794000", "183336.797000", "183336.799000", "183336.802000", "183336.805000", "183336.808000", "183336.811000", "183336.814000", "183336.816000", "183336.819000", "183336.822000", "183336.825000", "183336.828000", "183336.831000", "183336.833000", "183336.836000", "183336.839000", "183336.842000", "183336.845000", "183336.848000", "183336.850000", "183336.853000", "183336.856000", "183416.786000", "183416.789000", "183416.792000", "183416.795000", "183416.798000", "183416.800000", "183416.803000", "183416.806000", "183416.809000", "183416.812000", "183416.824000", "183416.827000", "183416.830000", "183416.833000", "183416.836000", "183416.839000", "183416.842000", "183416.844000", "183416.847000", "183416.850000", "183416.853000", "183416.856000", "183416.858000", "183416.861000", "183416.864000", "183416.867000", "183416.870000", "183456.786000", "183456.789000", "183456.792000", "183456.795000", "183456.798000", "183456.800000", "183456.803000", "183456.806000", "183456.809000", "183456.812000", "183456.814000", "183456.817000", "183456.820000", "183456.823000", "183456.826000", "183456.829000", "183456.831000", "183456.834000", "183456.837000", "183456.840000", "183456.843000", "183456.845000", "183456.848000", "183456.851000", "183456.854000", "183456.857000", "183456.860000", "183536.785000", "183536.788000", "183536.791000", "183536.794000", "183536.796000", "183536.799000", "183536.807000", "183536.810000", "183536.813000", "183536.815000", "183536.818000", "183536.821000", "183536.824000", "183536.827000", "183536.830000", "183536.832000", "183536.835000", "183536.838000", "183536.841000", "183536.844000", "183536.847000", "183536.849000", "183536.852000", "183536.855000", "183536.858000", "183536.861000", "183536.864000", "183601.452000", "183601.455000", "183601.458000", "183601.461000", "183601.464000", "183601.467000", "183601.469000", "183601.472000", "183601.475000", "183601.478000", "183601.481000", "183601.484000", "183601.487000", "183601.490000", "183601.493000", "183601.496000", "183601.498000"],
