{
  "AcquisitionMatrixPE": 104,
  "AcquisitionNumber": 1,
  "AcquisitionTime": "15:38:30.985000",
  "BandwidthPerPixelPhaseEncode": 17.17,
  "BaseResolution": 104,
  "BodyPartExamined": "BRAIN",
  "CoilCombinationMethod": "Sum of Squares",
  "ConsistencyInfo": "N4_VE11C_LATEST_20160120",
  "ConversionSoftware": "dcm2niix",
  "ConversionSoftwareVersion": "v1.0.20211006",
  "DerivedVendorReportedEchoSpacing": 0.000560011,
  "DeviceSerialNumber": "167006",
  "DwellTime": 2.1e-06,
  "EchoTime": 0.037,
  "EchoTrainLength": 104,
  "EffectiveEchoSpacing": 0.000560011,
  "FlipAngle": 52,
  "HeudiconvVersion": "0.11.3.post9+gc939bf8",
  "ImageComments": "Unaliased MB4/PE3/LB",
  "ImageOrientationPatientDICOM": [0.998783, -0.0439548, -0.0223738, 0.0341801, 0.943885, -0.3285],
  "ImageOrientationText": "Tra>Cor(-19.1)>Sag(-2.0)",
  "ImageType": [
    "ORIGINAL",
    "PRIMARY",
    "M",
    "MB",
    "ND",
    "MOSAIC"
],
  "ImagingFrequency": 123.259,
  "InPlanePhaseEncodingDirectionDICOM": "COL",
  "InstitutionAddress": "Chemin Queen-Mary 4565,Montreal,District,CA,H3W 1W5",
  "InstitutionName": "IUGM",
  "InstitutionalDepartmentName": "Department",
  "MRAcquisitionType": "2D",
  "MagneticFieldStrength": 3,
  "Manufacturer": "Siemens",
  "ManufacturersModelName": "Prisma_fit",
  "MatrixCoilMode": "SENSE",
  "Modality": "MR",
  "MultibandAccelerationFactor": 4,
  "PartialFourier": 1,
  "PatientPosition": "HFS",
  "PercentPhaseFOV": 100,
  "PercentSampling": 100,
  "PhaseEncodingDirection": "j",
  "PhaseEncodingSteps": 104,
  "PhaseResolution": 1,
  "PixelBandwidth": 2290,
  "ProcedureStepDescription": "video^friends",
  "ProtocolName": "func_task-friends-s06e01b",
  "PulseSequenceDetails": "%CustomerSeq%\\cmrr_mbep2d_bold",
  "ReceiveCoilActiveElements": "HC1-7;NC1,2",
  "ReceiveCoilName": "HeadNeck_64",
  "ReconMatrixPE": 104,
  "RepetitionTime": 1.49,
  "SAR": 0.0358238,
  "ScanOptions": "FS",
  "ScanningSequence": "EP",
  "SequenceName": "epfid2d1_104",
  "SequenceVariant": "SK\\SS",
  "SeriesDescription": "func_task-friends-s06e01b",
  "SeriesNumber": 14,
  "ShimSetting": [617, -7267, -8823, 582, -20, -261, 0, -41],
  "SliceThickness": 2,
  "SliceTiming": [0, 0.785, 0.0975, 0.8825, 0.1975, 0.98, 0.295, 1.0775, 0.3925, 1.175, 0.49, 1.275, 0.5875, 1.3725, 0.6875, 0, 0.785, 0.0975, 0.8825, 0.1975, 0.98, 0.295, 1.0775, 0.3925, 1.175, 0.49, 1.275, 0.5875, 1.3725, 0.6875, 0, 0.785, 0.0975, 0.8825, 0.1975, 0.98, 0.295, 1.0775, 0.3925, 1.175, 0.49, 1.275, 0.5875, 1.3725, 0.6875, 0, 0.785, 0.0975, 0.8825, 0.1975, 0.98, 0.295, 1.0775, 0.3925, 1.175, 0.49, 1.275, 0.5875, 1.3725, 0.6875],
  "SoftwareVersions": "syngo MR E11",
  "SpacingBetweenSlices": 2,
  "StationName": "MRC35049",
  "TaskName": "s06e01b",
  "TotalReadoutTime": 0.0576811,
  "TxRefAmp": 233.878,
  "WipMemBlock": "f8f0d8bb-61f5-4525-998a-78333992e305||Sequence: R016 ve11c/master r/e634e98; Dec 19 2017 11:00:25 by eja",
  "dcmmeta_affine": [
    [-1.9975658655166626, 0.06836029887199402, -0.07111486047506332, 99.6526107788086],
    [0.08790969848632812, 1.8877705335617065, -0.6546712517738342, -79.10614776611328],
    [-0.04474750533699989, 0.6570003032684326, 1.8884778022766113, -61.53077697753906],
    [0.0, 0.0, 0.0, 1.0]
],
  "dcmmeta_reorient_transform": [
    [0.0, -1.0, 0.0, 103.0],
    [1.0, 0.0, 0.0, 0.0],
    [0.0, 0.0, 1.0, 0.0],
    [0.0, 0.0, 0.0, 1.0]
],
  "dcmmeta_shape": [104, 104, 60, 499],
  "dcmmeta_slice_dim": 2,
  "dcmmeta_version": 0.6,
  "global": {
    "const": {
      "AcquisitionMatrix": [104, 0, 0, 104],
      "AngioFlag": "N",
      "BitsAllocated": 16,
      "BitsStored": 16,
      "BodyPartExamined": "BRAIN",
      "Columns": 832,
      "EchoNumbers": 1,
      "EchoTime": 37.0,
      "EchoTrainLength": 104,
      "FlipAngle": 52.0,
      "HighBit": 15,
      "ImageOrientationPatient": [0.99878295261579, -0.0439548487908, -0.0223737531914, 0.03418015082672, 0.94388524930777, -0.3285001574256],
      "ImagePositionPatient": [-858.69086161827, -770.48354640093, 261.57646382689],
      "ImageType": [
        "ORIGINAL",
        "PRIMARY",
        "M",
        "MB",
        "ND",
        "MOSAIC"
],
      "ImagedNucleus": "1H",
      "ImagingFrequency": 123.258815,
      "InPlanePhaseEncodingDirection": "COL",
      "MRAcquisitionType": "2D",
      "MagneticFieldStrength": 3.0,
      "Manufacturer": "SIEMENS",
      "ManufacturerModelName": "Prisma_fit",
      "Modality": "MR",
      "NumberOfAverages": 1.0,
      "NumberOfPhaseEncodingSteps": 104,
      "PercentPhaseFieldOfView": 100.0,
      "PercentSampling": 100.0,
      "PerformedProcedureStepStartTime": "150246.593000",
      "PhotometricInterpretation": "MONOCHROME2",
      "PixelBandwidth": 2290.0,
      "PixelRepresentation": 0,
      "PixelSpacing": [2.0, 2.0],
      "ProtocolName": "func_task-friends-s06e01b",
      "RepetitionTime": 1490.0,
      "Rows": 832,
      "SAR": 0.0358238285622,
      "SamplesPerPixel": 1,
      "ScanOptions": "FS",
      "ScanningSequence": "EP",
      "SequenceName": "epfid2d1_104",
      "SequenceVariant": [
        "SK",
        "SS"
],
      "SeriesDescription": "func_task-friends-s06e01b",
      "SeriesNumber": 14,
      "SeriesTime": "153937.502000",
      "SliceLocation": -35.748881898166,
      "SliceThickness": 2.0,
      "SmallestImagePixelValue": 0,
      "SoftwareVersions": "syngo MR E11",
      "SpacingBetweenSlices": 1.9999999961539,
      "SpecificCharacterSet": "ISO_IR 100",
      "StudyID": "1",
      "StudyTime": "150246.513000",
      "TransmitCoilName": "Body",
      "VariableFlipAngleFlag": "N",
      "WindowCenterWidthExplanation": "Algo1",
      "dBdt": 0.0},
    "slices": {}
  },
  "time": {
    "samples": {
      "AcquisitionNumber": [1, 2, 3, 4, 5, 6, 7, 8, 9, 10, 11, 12, 13, 14, 15, 16, 17, 18, 19, 20, 21, 22, 23, 24, 25, 26, 27, 28, 29, 30, 31, 32, 33, 34, 35, 36, 37, 38, 39, 40, 41, 42, 43, 44, 45, 46, 47, 48, 49, 50, 51, 52, 53, 54, 55, 56, 57, 58, 59, 60, 61, 62, 63, 64, 65, 66, 67, 68, 69, 70, 71, 72, 73, 74, 75, 76, 77, 78, 79, 80, 81, 82, 83, 84, 85, 86, 87, 88, 89, 90, 91, 92, 93, 94, 95, 96, 97, 98, 99, 100, 101, 102, 103, 104, 105, 106, 107, 108, 109, 110, 111, 112, 113, 114, 115, 116, 117, 118, 119, 120, 121, 122, 123, 124, 125, 126, 127, 128, 129, 130, 131, 132, 133, 134, 135, 136, 137, 138, 139, 140, 141, 142, 143, 144, 145, 146, 147, 148, 149, 150, 151, 152, 153, 154, 155, 156, 157, 158, 159, 160, 161, 162, 163, 164, 165, 166, 167, 168, 169, 170, 171, 172, 173, 174, 175, 176, 177, 178, 179, 180, 181, 182, 183, 184, 185, 186, 187, 188, 189, 190, 191, 192, 193, 194, 195, 196, 197, 198, 199, 200, 201, 202, 203, 204, 205, 206, 207, 208, 209, 210, 211, 212, 213, 214, 215, 216, 217, 218, 219, 220, 221, 222, 223, 224, 225, 226, 227, 228, 229, 230, 231, 232, 233, 234, 235, 236, 237, 238, 239, 240, 241, 242, 243, 244, 245, 246, 247, 248, 249, 250, 251, 252, 253, 254, 255, 256, 257, 258, 259, 260, 261, 262, 263, 264, 265, 266, 267, 268, 269, 270, 271, 272, 273, 274, 275, 276, 277, 278, 279, 280, 281, 282, 283, 284, 285, 286, 287, 288, 289, 290, 291, 292, 293, 294, 295, 296, 297, 298, 299, 300, 301, 302, 303, 304, 305, 306, 307, 308, 309, 310, 311, 312, 313, 314, 315, 316, 317, 318, 319, 320, 321, 322, 323, 324, 325, 326, 327, 328, 329, 330, 331, 332, 333, 334, 335, 336, 337, 338, 339, 340, 341, 342, 343, 344, 345, 346, 347, 348, 349, 350, 351, 352, 353, 354, 355, 356, 357, 358, 359, 360, 361, 362, 363, 364, 365, 366, 367, 368, 369, 370, 371, 372, 373, 374, 375, 376, 377, 378, 379, 380, 381, 382, 383, 384, 385, 386, 387, 388, 389, 390, 391, 392, 393, 394, 395, 396, 397, 398, 399, 400, 401, 402, 403, 404, 405, 406, 407, 408, 409, 410, 411, 412, 413, 414, 415, 416, 417, 418, 419, 420, 421, 422, 423, 424, 425, 426, 427, 428, 429, 430, 431, 432, 433, 434, 435, 436, 437, 438, 439, 440, 441, 442, 443, 444, 445, 446, 447, 448, 449, 450, 451, 452, 453, 454, 455, 456, 457, 458, 459, 460, 461, 462, 463, 464, 465, 466, 467, 468, 469, 470, 471, 472, 473, 474, 475, 476, 477, 478, 479, 480, 481, 482, 483, 484, 485, 486, 487, 488, 489, 490, 491, 492, 493, 494, 495, 496, 497, 498, 499],
      "AcquisitionTime": ["153830.985000", "153832.475000", "153833.965000", "153835.455000", "153836.945000", "153838.435000", "153839.925000", "153841.415000", "153842.905000", "153844.395000", "153845.885000", "153847.375000", "153848.865000", "153850.355000", "153851.845000", "153853.335000", "153854.825000", "153856.315000", "153857.805000", "153859.295000", "153900.785000", "153902.275000", "153903.765000", "153905.255000", "153906.745000", "153908.235000", "153909.725000", "153911.215000", "153912.705000", "153914.195000", "153915.685000", "153917.175000", "153918.665000", "153920.155000", "153921.645000", "153923.135000", "153924.625000", "153926.115000", "153927.605000", "153929.095000", "153930.585000", "153932.075000", "153933.565000", "153935.055000", "153936.545000", "153938.035000", "153939.525000", "153941.015000", "153942.505000", "153943.995000", "153945.485000", "153946.975000", "153948.465000", "153949.955000", "153951.445000", "153952.935000", "153954.425000", "153955.915000", "153957.405000", "153958.895000", "154000.385000", "154001.875000", "154003.365000", "154004.855000", "154006.345000", "154007.835000", "154009.325000", "154010.815000", "154012.305000", "154013.795000", "154015.285000", "154016.775000", "154018.265000", "154019.755000", "154021.245000", "154022.735000", "154024.225000", "154025.715000", "154027.205000", "154028.695000", "154030.185000", "154031.675000", "154033.165000", "154034.655000", "154036.145000", "154037.635000", "154039.125000", "154040.615000", "154042.105000", "154043.595000", "154045.085000", "154046.575000", "154048.065000", "154049.555000", "154051.045000", "154052.535000", "154054.025000", "154055.515000", "154057.005000", "154058.495000", "154059.985000", "154101.475000", "154102.965000", "154104.455000", "154105.945000", "154107.435000", "154108.925000", "154110.415000", "154111.905000", "154113.395000", "154114.885000", "154116.375000", "154117.865000", "154119.355000", "154120.845000", "154122.335000", "154123.825000", "154125.315000", "154126.805000", "154128.295000", "154129.785000", "154131.275000", "154132.765000", "154134.255000", "154135.745000", "154137.235000", "154138.725000", "154140.215000", "154141.705000", "154143.195000", "154144.685000", "154146.175000", "154147.665000", "154149.155000", "154150.645000", "154152.135000", "154153.625000", "154155.115000", "154156.605000", "154158.095000", "154159.585000", "154201.075000", "154202.565000", "154204.055000", "154205.545000", "154207.035000", "154208.525000", "154210.015000", "154211.505000", "154212.995000", "154214.485000", "154215.975000", "154217.465000", "154218.955000", "154220.445000", "154221.935000", "154223.425000", "154224.915000", "154226.405000", "154227.895000", "154229.385000", "154230.875000", "154232.365000", "154233.855000", "154235.345000", "154236.835000", "154238.325000", "154239.815000", "154241.305000", "154242.795000", "154244.285000", "154245.775000", "154247.265000", "154248.755000", "154250.245000", "154251.735000", "154253.225000", "154254.715000", "154256.205000", "154257.695000", "154259.185000", "154300.675000", "154302.165000", "154303.655000", "154305.145000", "154306.635000", "154308.125000", "154309.615000", "154311.105000", "154312.595000", "154314.085000", "154315.575000", "154317.065000", "154318.555000", "154320.045000", "154321.535000", "154323.025000", "154324.515000", "154326.005000", "154327.495000", "154328.985000", "154330.475000", "154331.965000", "154333.455000", "154334.945000", "154336.435000", "154337.925000", "154339.415000", "154340.905000", "154342.395000", "154343.885000", "154345.375000", "154346.865000", "154348.355000", "154349.845000", "154351.335000", "154352.825000", "154354.315000", "154355.805000", "154357.295000", "154358.785000", "154400.275000", "154401.765000", "154403.255000", "154404.745000", "154406.235000", "154407.725000", "154409.215000", "154410.705000", "154412.195000", "154413.685000", "154415.175000", "154416.665000", "154418.155000", "154419.645000", "154421.135000", "154422.625000", "154424.115000", "154425.605000", "154427.095000", "154428.585000", "154430.075000", "154431.565000", "154433.055000", "154434.545000", "154436.035000", "154437.525000", "154439.015000", "154440.505000", "154441.995000", "154443.485000", "154444.975000", "154446.465000", "154447.955000", "154449.445000", "154450.935000", "154452.425000", "154453.915000", "154455.405000", "154456.895000", "154458.385000", "154459.875000", "154501.365000", "154502.855000", "154504.345000", "154505.835000", "154507.325000", "154508.815000", "154510.305000", "154511.795000", "154513.285000", "154514.775000", "154516.265000", "154517.755000", "154519.245000", "154520.735000", "154522.225000", "154523.715000", "154525.205000", "154526.695000", "154528.185000", "154529.675000", "154531.165000", "154532.655000", "154534.145000", "154535.635000", "154537.125000", "154538.615000", "154540.105000", "154541.595000", "154543.085000", "154544.575000", "154546.065000", "154547.555000", "154549.045000", "154550.535000", "154552.025000", "154553.515000", "154555.005000", "154556.495000", "154557.985000", "154559.475000", "154600.965000", "154602.455000", "154603.945000", "154605.435000", "154606.925000", "154608.415000", "154609.905000", "154611.395000", "154612.885000", "154614.375000", "154615.865000", "154617.355000", "154618.845000", "154620.335000", "154621.825000", "154623.315000", "154624.805000", "154626.295000", "154627.785000", "154629.275000", "154630.765000", "154632.255000", "154633.745000", "154635.235000", "154636.725000", "154638.215000", "154639.705000", "154641.195000", "154642.685000", "154644.175000", "154645.665000", "154647.155000", "154648.645000", "154650.135000", "154651.625000", "154653.115000", "154654.605000", "154656.095000", "154657.585000", "154659.075000", "154700.565000", "154702.055000", "154703.545000", "154705.035000", "154706.525000", "154708.015000", "154709.505000", "154710.995000", "154712.485000", "154713.975000", "154715.465000", "154716.955000", "154718.445000", "154719.935000", "154721.425000", "154722.915000", "154724.405000", "154725.895000", "154727.385000", "154728.875000", "154730.365000", "154731.855000", "154733.345000", "154734.835000", "154736.325000", "154737.815000", "154739.305000", "154740.795000", "154742.285000", "154743.775000", "154745.265000", "154746.755000", "154748.245000", "154749.735000", "154751.225000", "154752.715000", "154754.205000", "154755.695000", "154757.185000", "154758.675000", "154800.165000", "154801.655000", "154803.145000", "154804.635000", "154806.125000", "154807.615000", "154809.105000", "154810.595000", "154812.085000", "154813.575000", "154815.065000", "154816.555000", "154818.045000", "154819.535000", "154821.025000", "154822.515000", "154824.005000", "154825.495000", "154826.985000", "154828.475000", "154829.965000", "154831.455000", "154832.945000", "154834.435000", "154835.925000", "154837.415000", "154838.905000", "154840.395000", "154841.885000", "154843.375000", "154844.865000", "154846.355000", "154847.845000", "154849.335000", "154850.825000", "154852.315000", "154853.805000", "154855.295000", "154856.785000", "154858.275000", "154859.765000", "154901.255000", "154902.745000", "154904.235000", "154905.725000", "154907.215000", "154908.705000", "154910.195000", "154911.685000", "154913.175000", "154914.665000", "154916.155000", "154917.645000", "154919.135000", "154920.625000", "154922.115000", "154923.605000", "154925.095000", "154926.585000", "154928.075000", "154929.565000", "154931.055000", "154932.545000", "154934.035000", "154935.525000", "154937.015000", "154938.505000", "154939.995000", "154941.485000", "154942.975000", "154944.465000", "154945.955000", "154947.445000", "154948.935000", "154950.425000", "154951.915000", "154953.405000", "154954.895000", "154956.385000", "154957.875000", "154959.365000", "155000.855000", "155002.345000", "155003.835000", "155005.325000", "155006.815000", "155008.305000", "155009.795000", "155011.285000", "155012.775000", "155014.265000", "155015.755000", "155017.245000", "155018.735000", "155020.225000", "155021.715000", "155023.205000", "155024.695000", "155026.185000", "155027.675000", "155029.165000", "155030.655000", "155032.145000", "155033.635000", "155035.125000", "155036.615000", "155038.105000", "155039.595000", "155041.085000", "155042.575000", "155044.065000", "155045.555000", "155047.045000", "155048.535000", "155050.025000", "155051.515000", "155053.005000"],
      "ContentTime": ["153937.505000", "153937.508000", "153937.511000", "153937.514000", "153937.517000", "153937.520000", "153937.523000", "153937.526000", "153937.529000", "153937.531000", "153937.534000", "153937.537000", "153937.540000", "153957.457000", "153957.460000", "153957.463000", "153957.465000", "153957.468000", "153957.471000", "153957.474000", "153957.477000", "153957.480000", "153957.490000", "153957.493000", "153957.496000", "153957.499000", "153957.502000", "153957.505000", "153957.507000", "153957.510000", "153957.513000", "153957.516000", "153957.519000", "153957.522000", "154017.457000", "154017.460000", "154017.463000", "154017.465000", "154017.468000", "154017.471000", "154017.474000", "154017.477000", "154017.480000", "154017.483000", "154017.485000", "154017.488000", "154017.491000", "154017.494000", "154017.497000", "154017.500000", "154017.503000", "154017.505000", "154017.508000", "154017.511000", "154037.457000", "154037.460000", "154037.463000", "154037.466000", "154037.468000", "154037.471000", "154037.474000", "154037.477000", "154037.480000", "154037.482000", "154037.485000", "154037.491000", "154037.494000", "154037.497000", "154037.500000", "154037.503000", "154037.505000", "154037.508000", "154037.511000", "154037.514000", "154057.457000", "154057.461000", "154057.464000", "154057.467000", "154057.470000", "154057.473000", "154057.475000", "154057.478000", "154057.481000", "154057.484000", "154057.487000", "154057.490000", "154057.492000", "154057.495000", "154057.498000", "154057.501000", "154057.504000", "154057.507000", "154057.510000", "154057.512000", "154137.458000", "154137.461000", "154137.464000", "154137.467000", "154137.469000", "154137.472000", "154137.483000", "154137.486000", "154137.489000", "154137.492000", "154137.495000", "154137.498000", "154137.501000", "154137.504000", "154137.506000", "154137.509000", "154137.512000", "154137.515000", "154137.518000", "154137.521000", "154137.524000", "154137.526000", "154137.529000", "154137.532000", "154137.535000", "154137.538000", "154137.541000", "154137.544000", "154137.546000", "154137.549000", "154217.457000", "154217.460000", "154217.463000", "154217.466000", "154217.468000", "154217.471000", "154217.474000", "154217.477000", "154217.480000", "154217.483000", "154217.486000", "154217.489000", "154217.492000", "154217.494000", "154217.497000", "154217.500000", "154217.503000", "154217.506000", "154217.509000", "154217.511000", "154217.514000", "154217.517000", "154217.520000", "154217.523000", "154217.526000", "154217.528000", "154217.531000", "154257.457000", "154257.460000", "154257.463000", "154257.466000", "154257.469000", "154257.471000", "154257.474000", "154257.477000", "154257.480000", "154257.483000", "154257.486000", "154257.489000", "154257.491000", "154257.494000", "154257.497000", "154257.500000", "154257.503000", "154257.506000", "154257.509000", "154257.511000", "154257.514000", "154257.517000", "154257.537000", "154257.540000", "154257.543000", "154257.546000", "154257.554000", "154337.457000", "154337.460000", "154337.463000", "154337.466000", "154337.469000", "154337.471000", "154337.474000", "154337.477000", "154337.480000", "154337.483000", "154337.486000", "154337.489000", "154337.491000", "154337.494000", "154337.497000", "154337.500000", "154337.503000", "154337.506000", "154337.509000", "154337.512000", "154337.514000", "154337.517000", "154337.520000", "154337.523000", "154337.526000", "154337.529000", "154337.532000", "154417.457000", "154417.460000", "154417.463000", "154417.466000", "154417.469000", "154417.472000", "154417.474000", "154417.477000", "154417.480000", "154417.483000", "154417.486000", "154417.489000", "154417.492000", "154417.495000", "154417.498000", "154417.500000", "154417.503000", "154417.506000", "154417.509000", "154417.512000", "154417.515000", "154417.518000", "154417.520000", "154417.523000", "154417.526000", "154417.529000", "154417.532000", "154457.457000", "154457.460000", "154457.463000", "154457.466000", "154457.469000", "154457.472000", "154457.475000", "154457.477000", "154457.481000", "154457.484000", "154457.487000", "154457.490000", "154457.493000", "154457.496000", "154457.499000", "154457.502000", "154457.505000", "154457.507000", "154457.510000", "154457.513000", "154457.516000", "154457.519000", "154457.522000", "154457.525000", "154457.531000", "154457.533000", "154537.457000", "154537.460000", "154537.463000", "154537.466000", "154537.469000", "154537.471000", "154537.474000", "154537.477000", "154537.480000", "154537.483000", "154537.486000", "154537.489000", "154537.492000", "154537.494000", "154537.497000", "154537.500000", "154537.503000", "154537.506000", "154537.509000", "154537.512000", "154537.515000", "154537.517000", "154537.520000", "154537.523000", "154537.526000", "154537.529000", "154537.532000", "154617.458000", "154617.461000", "154617.464000", "154617.467000", "154617.470000", "154617.473000", "154617.475000", "154617.478000", "154617.481000", "154617.484000", "154617.487000", "154617.490000", "154617.493000", "154617.496000", "154617.499000", "154617.501000", "154617.504000", "154617.507000", "154617.510000", "154617.513000", "154617.516000", "154617.519000", "154617.522000", "154617.525000", "154617.527000", "154617.530000", "154617.533000", "154657.457000", "154657.460000", "154657.463000", "154657.466000", "154657.469000", "154657.471000", "154657.474000", "154657.477000", "154657.480000", "154657.483000", "154657.486000", "154657.489000", "154657.492000", "154657.494000", "154657.497000", "154657.500000", "154657.503000", "154657.506000", "154657.509000", "154657.512000", "154657.515000", "154657.517000", "154657.520000", "154657.523000", "154657.526000", "154657.529000", "154657.532000", "154737.457000", "154737.460000", "154737.463000", "154737.466000", "154737.469000", "154737.471000", "154737.474000", "154737.478000", "154737.481000", "154737.484000", "154737.487000", "154737.490000", "154737.493000", "154737.496000", "154737.498000", "154737.501000", "154737.504000", "154737.517000", "154737.520000", "154737.523000", "154737.526000", "154737.529000", "154737.548000", "154737.551000", "154737.554000", "154737.557000", "154737.560000", "154817.457000", "154817.460000", "154817.463000", "154817.466000", "154817.469000", "154817.472000", "154817.474000", "154817.477000", "154817.480000", "154817.483000", "154817.486000", "154817.489000", "154817.492000", "154817.495000", "154817.497000", "154817.500000", "154817.503000", "154817.506000", "154817.509000", "154817.512000", "154817.515000", "154817.517000", "154817.520000", "154817.523000", "154817.526000", "154817.540000", "154817.542000", "154857.457000", "154857.465000", "154857.468000", "154857.470000", "154857.473000", "154857.476000", "154857.479000", "154857.482000", "154857.485000", "154857.488000", "154857.490000", "154857.493000", "154857.496000", "154857.499000", "154857.502000", "154857.505000", "154857.508000", "154857.511000", "154857.513000", "154857.516000", "154857.519000", "154857.522000", "154857.525000", "154857.528000", "154857.531000", "154857.533000", "154857.536000", "154917.457000", "154917.460000", "154917.463000", "154917.466000", "154917.469000", "154917.471000", "154917.474000", "154917.477000", "154917.480000", "154917.483000", "154917.486000", "154917.489000", "154917.492000", "154957.457000", "154957.460000", "154957.463000", "154957.466000", "154957.469000", "154957.471000", "154957.474000", "154957.477000", "154957.480000", "154957.483000", "154957.486000", "154957.489000", "154957.492000", "154957.495000", "154957.498000", "154957.500000", "154957.503000", "154957.506000", "154957.509000", "154957.512000", "154957.515000", "154957.518000", "154957.520000", "154957.523000", "154957.526000", "154957.529000", "154957.532000", "155037.457000", "155037.460000", "155037.463000", "155037.466000", "155037.469000", "155037.471000", "155037.474000", "155037.477000", "155037.480000", "155037.483000", "155037.486000", "155037.489000", "155037.491000", "155037.494000", "155037.497000", "155037.500000", "155037.503000", "155037.506000", "155037.509000", "155037.512000", "155037.515000", "155037.517000", "155037.520000", "155037.523000", "155037.526000", "155037.529000", "155037.532000", "155055.135000", "155055.138000", "155055.141000", "155055.144000", "155055.147000", "155055.150000", "155055.153000", "155055.156000", "155055.159000", "155055.162000", "155055.165000", "155055.168000"],
