{
  "AcquisitionMatrixPE": 104,
  "AcquisitionNumber": 1,
  "AcquisitionTime": "15:25:29.297500",
  "BandwidthPerPixelPhaseEncode": 17.17,
  "BaseResolution": 104,
  "BodyPartExamined": "BRAIN",
  "CoilCombinationMethod": "Sum of Squares",
  "ConsistencyInfo": "N4_VE11C_LATEST_20160120",
  "ConversionSoftware": "dcm2niix",
  "ConversionSoftwareVersion": "v1.0.20211006",
  "DerivedVendorReportedEchoSpacing": 0.000560011,
  "DeviceSerialNumber": "167006",
  "DwellTime": 2.1e-06,
  "EchoTime": 0.037,
  "EchoTrainLength": 104,
  "EffectiveEchoSpacing": 0.000560011,
  "FlipAngle": 52,
  "HeudiconvVersion": "0.11.3.post9+gc939bf8",
  "ImageComments": "Unaliased MB4/PE3/LB",
  "ImageOrientationPatientDICOM": [0.998783, -0.0439548, -0.0223738, 0.0341801, 0.943885, -0.3285],
  "ImageOrientationText": "Tra>Cor(-19.1)>Sag(-2.0)",
  "ImageType": [
    "ORIGINAL",
    "PRIMARY",
    "M",
    "MB",
    "ND",
    "MOSAIC"
],
  "ImagingFrequency": 123.259,
  "InPlanePhaseEncodingDirectionDICOM": "COL",
  "InstitutionAddress": "Chemin Queen-Mary 4565,Montreal,District,CA,H3W 1W5",
  "InstitutionName": "IUGM",
  "InstitutionalDepartmentName": "Department",
  "MRAcquisitionType": "2D",
  "MagneticFieldStrength": 3,
  "Manufacturer": "Siemens",
  "ManufacturersModelName": "Prisma_fit",
  "MatrixCoilMode": "SENSE",
  "Modality": "MR",
  "MultibandAccelerationFactor": 4,
  "PartialFourier": 1,
  "PatientPosition": "HFS",
  "PercentPhaseFOV": 100,
  "PercentSampling": 100,
  "PhaseEncodingDirection": "j",
  "PhaseEncodingSteps": 104,
  "PhaseResolution": 1,
  "PixelBandwidth": 2290,
  "ProcedureStepDescription": "video^friends",
  "ProtocolName": "func_task-friends-s06e01a",
  "PulseSequenceDetails": "%CustomerSeq%\\cmrr_mbep2d_bold",
  "ReceiveCoilActiveElements": "HC1-7;NC1,2",
  "ReceiveCoilName": "HeadNeck_64",
  "ReconMatrixPE": 104,
  "RepetitionTime": 1.49,
  "SAR": 0.0358135,
  "ScanOptions": "FS",
  "ScanningSequence": "EP",
  "SequenceName": "epfid2d1_104",
  "SequenceVariant": "SK\\SS",
  "SeriesDescription": "func_task-friends-s06e01a",
  "SeriesNumber": 12,
  "ShimSetting": [617, -7267, -8823, 582, -20, -261, 0, -41],
  "SliceThickness": 2,
  "SliceTiming": [0, 0.785, 0.1, 0.8825, 0.1975, 0.98, 0.295, 1.08, 0.3925, 1.1775, 0.49, 1.275, 0.59, 1.3725, 0.6875, 0, 0.785, 0.1, 0.8825, 0.1975, 0.98, 0.295, 1.08, 0.3925, 1.1775, 0.49, 1.275, 0.59, 1.3725, 0.6875, 0, 0.785, 0.1, 0.8825, 0.1975, 0.98, 0.295, 1.08, 0.3925, 1.1775, 0.49, 1.275, 0.59, 1.3725, 0.6875, 0, 0.785, 0.1, 0.8825, 0.1975, 0.98, 0.295, 1.08, 0.3925, 1.1775, 0.49, 1.275, 0.59, 1.3725, 0.6875],
  "SoftwareVersions": "syngo MR E11",
  "SpacingBetweenSlices": 2,
  "StationName": "MRC35049",
  "TaskName": "s06e01a",
  "TotalReadoutTime": 0.0576811,
  "TxRefAmp": 233.878,
  "WipMemBlock": "7da10fb6-9f4f-4ff3-94e7-4c4cf9257d7a||Sequence: R016 ve11c/master r/e634e98; Dec 19 2017 11:00:25 by eja",
  "dcmmeta_affine": [
    [-1.9975658655166626, 0.06836029887199402, -0.07111486047506332, 99.6526107788086],
    [0.08790969848632812, 1.8877705335617065, -0.6546712517738342, -79.10614776611328],
    [-0.04474750533699989, 0.6570003032684326, 1.8884778022766113, -61.53077697753906],
    [0.0, 0.0, 0.0, 1.0]
],
  "dcmmeta_reorient_transform": [
    [0.0, -1.0, 0.0, 103.0],
    [1.0, 0.0, 0.0, 0.0],
    [0.0, 0.0, 1.0, 0.0],
    [0.0, 0.0, 0.0, 1.0]
],
  "dcmmeta_shape": [104, 104, 60, 465],
  "dcmmeta_slice_dim": 2,
  "dcmmeta_version": 0.6,
  "global": {
    "const": {
      "AcquisitionMatrix": [104, 0, 0, 104],
      "AngioFlag": "N",
      "BitsAllocated": 16,
      "BitsStored": 16,
      "BodyPartExamined": "BRAIN",
      "Columns": 832,
      "EchoNumbers": 1,
      "EchoTime": 37.0,
      "EchoTrainLength": 104,
      "FlipAngle": 52.0,
      "HighBit": 15,
      "ImageOrientationPatient": [0.99878295261579, -0.0439548487908, -0.0223737531914, 0.03418015082672, 0.94388524930777, -0.3285001574256],
      "ImagePositionPatient": [-858.69086161827, -770.48354640093, 261.57646382689],
      "ImageType": [
        "ORIGINAL",
        "PRIMARY",
        "M",
        "MB",
        "ND",
        "MOSAIC"
],
      "ImagedNucleus": "1H",
      "ImagingFrequency": 123.258809,
      "InPlanePhaseEncodingDirection": "COL",
      "MRAcquisitionType": "2D",
      "MagneticFieldStrength": 3.0,
      "Manufacturer": "SIEMENS",
      "ManufacturerModelName": "Prisma_fit",
      "Modality": "MR",
      "NumberOfAverages": 1.0,
      "NumberOfPhaseEncodingSteps": 104,
      "PercentPhaseFieldOfView": 100.0,
      "PercentSampling": 100.0,
      "PerformedProcedureStepStartTime": "150246.593000",
      "PhotometricInterpretation": "MONOCHROME2",
      "PixelBandwidth": 2290.0,
      "PixelRepresentation": 0,
      "PixelSpacing": [2.0, 2.0],
      "ProtocolName": "func_task-friends-s06e01a",
      "RepetitionTime": 1490.0,
      "Rows": 832,
      "SAR": 0.03581345319437,
      "SamplesPerPixel": 1,
      "ScanOptions": "FS",
      "ScanningSequence": "EP",
      "SequenceName": "epfid2d1_104",
      "SequenceVariant": [
        "SK",
        "SS"
],
      "SeriesDescription": "func_task-friends-s06e01a",
      "SeriesNumber": 12,
      "SeriesTime": "152653.679000",
      "SliceLocation": -35.748881898166,
      "SliceThickness": 2.0,
      "SmallestImagePixelValue": 0,
      "SoftwareVersions": "syngo MR E11",
      "SpacingBetweenSlices": 1.9999999961539,
      "SpecificCharacterSet": "ISO_IR 100",
      "StudyID": "1",
      "StudyTime": "150246.513000",
      "TransmitCoilName": "Body",
      "VariableFlipAngleFlag": "N",
      "WindowCenterWidthExplanation": "Algo1",
      "dBdt": 0.0},
    "slices": {}
  },
  "time": {
    "samples": {
      "AcquisitionNumber": [1, 2, 3, 4, 5, 6, 7, 8, 9, 10, 11, 12, 13, 14, 15, 16, 17, 18, 19, 20, 21, 22, 23, 24, 25, 26, 27, 28, 29, 30, 31, 32, 33, 34, 35, 36, 37, 38, 39, 40, 41, 42, 43, 44, 45, 46, 47, 48, 49, 50, 51, 52, 53, 54, 55, 56, 57, 58, 59, 60, 61, 62, 63, 64, 65, 66, 67, 68, 69, 70, 71, 72, 73, 74, 75, 76, 77, 78, 79, 80, 81, 82, 83, 84, 85, 86, 87, 88, 89, 90, 91, 92, 93, 94, 95, 96, 97, 98, 99, 100, 101, 102, 103, 104, 105, 106, 107, 108, 109, 110, 111, 112, 113, 114, 115, 116, 117, 118, 119, 120, 121, 122, 123, 124, 125, 126, 127, 128, 129, 130, 131, 132, 133, 134, 135, 136, 137, 138, 139, 140, 141, 142, 143, 144, 145, 146, 147, 148, 149, 150, 151, 152, 153, 154, 155, 156, 157, 158, 159, 160, 161, 162, 163, 164, 165, 166, 167, 168, 169, 170, 171, 172, 173, 174, 175, 176, 177, 178, 179, 180, 181, 182, 183, 184, 185, 186, 187, 188, 189, 190, 191, 192, 193, 194, 195, 196, 197, 198, 199, 200, 201, 202, 203, 204, 205, 206, 207, 208, 209, 210, 211, 212, 213, 214, 215, 216, 217, 218, 219, 220, 221, 222, 223, 224, 225, 226, 227, 228, 229, 230, 231, 232, 233, 234, 235, 236, 237, 238, 239, 240, 241, 242, 243, 244, 245, 246, 247, 248, 249, 250, 251, 252, 253, 254, 255, 256, 257, 258, 259, 260, 261, 262, 263, 264, 265, 266, 267, 268, 269, 270, 271, 272, 273, 274, 275, 276, 277, 278, 279, 280, 281, 282, 283, 284, 285, 286, 287, 288, 289, 290, 291, 292, 293, 294, 295, 296, 297, 298, 299, 300, 301, 302, 303, 304, 305, 306, 307, 308, 309, 310, 311, 312, 313, 314, 315, 316, 317, 318, 319, 320, 321, 322, 323, 324, 325, 326, 327, 328, 329, 330, 331, 332, 333, 334, 335, 336, 337, 338, 339, 340, 341, 342, 343, 344, 345, 346, 347, 348, 349, 350, 351, 352, 353, 354, 355, 356, 357, 358, 359, 360, 361, 362, 363, 364, 365, 366, 367, 368, 369, 370, 371, 372, 373, 374, 375, 376, 377, 378, 379, 380, 381, 382, 383, 384, 385, 386, 387, 388, 389, 390, 391, 392, 393, 394, 395, 396, 397, 398, 399, 400, 401, 402, 403, 404, 405, 406, 407, 408, 409, 410, 411, 412, 413, 414, 415, 416, 417, 418, 419, 420, 421, 422, 423, 424, 425, 426, 427, 428, 429, 430, 431, 432, 433, 434, 435, 436, 437, 438, 439, 440, 441, 442, 443, 444, 445, 446, 447, 448, 449, 450, 451, 452, 453, 454, 455, 456, 457, 458, 459, 460, 461, 462, 463, 464, 465],
      "AcquisitionTime": ["152529.297500", "152530.787500", "152532.277500", "152533.767500", "152535.257500", "152536.747500", "152538.237500", "152539.727500", "152541.217500", "152542.707500", "152544.197500", "152545.687500", "152547.177500", "152548.667500", "152550.157500", "152551.647500", "152553.137500", "152554.627500", "152556.117500", "152557.607500", "152559.097500", "152600.587500", "152602.077500", "152603.567500", "152605.057500", "152606.547500", "152608.037500", "152609.527500", "152611.017500", "152612.507500", "152613.997500", "152615.487500", "152616.977500", "152618.467500", "152619.957500", "152621.447500", "152622.937500", "152624.427500", "152625.917500", "152627.407500", "152628.897500", "152630.387500", "152631.877500", "152633.367500", "152634.857500", "152636.347500", "152637.837500", "152639.327500", "152640.817500", "152642.307500", "152643.797500", "152645.287500", "152646.777500", "152648.267500", "152649.757500", "152651.247500", "152652.737500", "152654.227500", "152655.717500", "152657.207500", "152658.697500", "152700.187500", "152701.677500", "152703.167500", "152704.657500", "152706.147500", "152707.637500", "152709.127500", "152710.617500", "152712.107500", "152713.597500", "152715.087500", "152716.577500", "152718.067500", "152719.557500", "152721.047500", "152722.537500", "152724.027500", "152725.517500", "152727.007500", "152728.497500", "152729.987500", "152731.477500", "152732.967500", "152734.457500", "152735.947500", "152737.437500", "152738.927500", "152740.417500", "152741.907500", "152743.397500", "152744.887500", "152746.377500", "152747.867500", "152749.357500", "152750.847500", "152752.337500", "152753.827500", "152755.317500", "152756.807500", "152758.297500", "152759.787500", "152801.277500", "152802.767500", "152804.257500", "152805.747500", "152807.237500", "152808.727500", "152810.217500", "152811.707500", "152813.197500", "152814.687500", "152816.177500", "152817.667500", "152819.157500", "152820.647500", "152822.137500", "152823.627500", "152825.117500", "152826.607500", "152828.097500", "152829.587500", "152831.077500", "152832.567500", "152834.057500", "152835.547500", "152837.037500", "152838.527500", "152840.017500", "152841.507500", "152842.997500", "152844.487500", "152845.977500", "152847.467500", "152848.957500", "152850.447500", "152851.937500", "152853.427500", "152854.917500", "152856.407500", "152857.897500", "152859.387500", "152900.877500", "152902.367500", "152903.857500", "152905.347500", "152906.837500", "152908.327500", "152909.817500", "152911.307500", "152912.797500", "152914.287500", "152915.777500", "152917.267500", "152918.757500", "152920.247500", "152921.737500", "152923.227500", "152924.717500", "152926.207500", "152927.697500", "152929.187500", "152930.677500", "152932.167500", "152933.657500", "152935.147500", "152936.637500", "152938.127500", "152939.617500", "152941.107500", "152942.597500", "152944.087500", "152945.577500", "152947.067500", "152948.557500", "152950.047500", "152951.537500", "152953.027500", "152954.517500", "152956.007500", "152957.497500", "152958.987500", "153000.477500", "153001.967500", "153003.457500", "153004.947500", "153006.437500", "153007.927500", "153009.417500", "153010.907500", "153012.397500", "153013.887500", "153015.377500", "153016.867500", "153018.357500", "153019.847500", "153021.337500", "153022.827500", "153024.317500", "153025.807500", "153027.297500", "153028.787500", "153030.277500", "153031.767500", "153033.257500", "153034.747500", "153036.237500", "153037.727500", "153039.217500", "153040.707500", "153042.197500", "153043.687500", "153045.177500", "153046.667500", "153048.157500", "153049.647500", "153051.137500", "153052.627500", "153054.117500", "153055.607500", "153057.097500", "153058.587500", "153100.077500", "153101.567500", "153103.057500", "153104.547500", "153106.037500", "153107.527500", "153109.017500", "153110.507500", "153111.997500", "153113.487500", "153114.977500", "153116.467500", "153117.957500", "153119.447500", "153120.937500", "153122.427500", "153123.917500", "153125.407500", "153126.897500", "153128.387500", "153129.877500", "153131.367500", "153132.857500", "153134.347500", "153135.837500", "153137.327500", "153138.817500", "153140.307500", "153141.797500", "153143.287500", "153144.777500", "153146.267500", "153147.757500", "153149.247500", "153150.737500", "153152.227500", "153153.717500", "153155.207500", "153156.697500", "153158.187500", "153159.677500", "153201.167500", "153202.657500", "153204.147500", "153205.637500", "153207.127500", "153208.617500", "153210.107500", "153211.597500", "153213.087500", "153214.577500", "153216.067500", "153217.557500", "153219.047500", "153220.537500", "153222.027500", "153223.517500", "153225.007500", "153226.497500", "153227.987500", "153229.477500", "153230.967500", "153232.457500", "153233.947500", "153235.437500", "153236.927500", "153238.417500", "153239.907500", "153241.397500", "153242.887500", "153244.377500", "153245.867500", "153247.357500", "153248.847500", "153250.337500", "153251.827500", "153253.317500", "153254.807500", "153256.297500", "153257.787500", "153259.277500", "153300.767500", "153302.257500", "153303.747500", "153305.237500", "153306.727500", "153308.217500", "153309.707500", "153311.197500", "153312.687500", "153314.177500", "153315.667500", "153317.157500", "153318.647500", "153320.137500", "153321.627500", "153323.117500", "153324.607500", "153326.097500", "153327.587500", "153329.077500", "153330.567500", "153332.057500", "153333.547500", "153335.037500", "153336.527500", "153338.017500", "153339.507500", "153340.997500", "153342.487500", "153343.977500", "153345.467500", "153346.957500", "153348.447500", "153349.937500", "153351.427500", "153352.917500", "153354.407500", "153355.897500", "153357.387500", "153358.877500", "153400.367500", "153401.857500", "153403.347500", "153404.837500", "153406.327500", "153407.817500", "153409.307500", "153410.797500", "153412.287500", "153413.777500", "153415.267500", "153416.757500", "153418.247500", "153419.737500", "153421.227500", "153422.717500", "153424.207500", "153425.697500", "153427.187500", "153428.677500", "153430.167500", "153431.657500", "153433.147500", "153434.637500", "153436.127500", "153437.617500", "153439.107500", "153440.597500", "153442.087500", "153443.577500", "153445.067500", "153446.557500", "153448.047500", "153449.537500", "153451.027500", "153452.517500", "153454.007500", "153455.497500", "153456.987500", "153458.477500", "153459.967500", "153501.457500", "153502.947500", "153504.437500", "153505.927500", "153507.417500", "153508.907500", "153510.397500", "153511.887500", "153513.377500", "153514.867500", "153516.357500", "153517.847500", "153519.337500", "153520.827500", "153522.317500", "153523.807500", "153525.297500", "153526.787500", "153528.277500", "153529.767500", "153531.257500", "153532.747500", "153534.237500", "153535.727500", "153537.217500", "153538.707500", "153540.197500", "153541.687500", "153543.177500", "153544.667500", "153546.157500", "153547.647500", "153549.137500", "153550.627500", "153552.117500", "153553.607500", "153555.097500", "153556.587500", "153558.077500", "153559.567500", "153601.057500", "153602.547500", "153604.037500", "153605.527500", "153607.017500", "153608.507500", "153609.997500", "153611.487500", "153612.977500", "153614.467500", "153615.957500", "153617.447500", "153618.937500", "153620.427500", "153621.917500", "153623.407500", "153624.897500", "153626.387500", "153627.877500", "153629.367500", "153630.857500", "153632.347500", "153633.837500", "153635.327500", "153636.817500", "153638.307500", "153639.797500", "153641.287500", "153642.777500", "153644.267500", "153645.757500", "153647.247500", "153648.737500", "153650.227500", "153651.717500", "153653.207500", "153654.697500", "153656.187500", "153657.677500", "153659.167500", "153700.657500"],
      "ContentTime": ["152653.681000", "152653.685000", "152653.688000", "152653.691000", "152653.693000", "152653.696000", "152653.699000", "152653.702000", "152653.705000", "152653.708000", "152653.711000", "152653.714000", "152653.727000", "152653.729000", "152653.732000", "152653.735000", "152653.738000", "152653.741000", "152653.744000", "152653.747000", "152653.750000", "152653.752000", "152653.755000", "152653.758000", "152653.761000", "152653.764000", "152653.778000", "152653.781000", "152653.784000", "152713.648000", "152713.651000", "152713.654000", "152713.657000", "152713.659000", "152713.662000", "152713.665000", "152713.668000", "152713.671000", "152713.674000", "152713.677000", "152713.679000", "152713.682000", "152713.685000", "152713.688000", "152713.691000", "152713.694000", "152713.697000", "152713.699000", "152713.702000", "152713.705000", "152733.648000", "152733.651000", "152733.654000", "152733.657000", "152733.660000", "152733.662000", "152733.665000", "152733.668000", "152733.678000", "152733.681000", "152733.683000", "152733.686000", "152733.689000", "152733.692000", "152733.695000", "152733.698000", "152733.701000", "152733.704000", "152733.706000", "152733.709000", "152753.648000", "152753.651000", "152753.654000", "152753.657000", "152753.659000", "152753.662000", "152753.665000", "152753.668000", "152753.671000", "152753.674000", "152753.677000", "152753.679000", "152753.682000", "152753.685000", "152753.688000", "152753.691000", "152753.694000", "152753.696000", "152753.699000", "152753.702000", "152813.667000", "152813.670000", "152813.673000", "152813.676000", "152813.679000", "152813.682000", "152813.684000", "152813.687000", "152813.690000", "152813.693000", "152813.696000", "152813.699000", "152813.701000", "152813.704000", "152813.707000", "152813.710000", "152813.713000", "152813.716000", "152813.719000", "152813.722000", "152853.648000", "152853.651000", "152853.654000", "152853.657000", "152853.659000", "152853.662000", "152853.665000", "152853.668000", "152853.671000", "152853.674000", "152853.677000", "152853.681000", "152853.684000", "152853.687000", "152853.690000", "152853.693000", "152853.695000", "152853.698000", "152853.701000", "152853.704000", "152853.707000", "152853.710000", "152853.713000", "152853.715000", "152853.718000", "152853.721000", "152913.648000", "152913.651000", "152913.654000", "152913.657000", "152913.660000", "152913.662000", "152913.665000", "152913.668000", "152913.671000", "152913.674000", "152913.677000", "152913.680000", "152913.683000", "152913.685000", "152953.648000", "152953.651000", "152953.654000", "152953.657000", "152953.660000", "152953.662000", "152953.665000", "152953.668000", "152953.671000", "152953.674000", "152953.677000", "152953.680000", "152953.683000", "152953.685000", "152953.688000", "152953.691000", "152953.694000", "152953.697000", "152953.700000", "152953.703000", "152953.706000", "152953.708000", "152953.711000", "152953.714000", "152953.717000", "152953.720000", "152953.723000", "153033.649000", "153033.652000", "153033.655000", "153033.658000", "153033.661000", "153033.663000", "153033.666000", "153033.669000", "153033.672000", "153033.675000", "153033.678000", "153033.681000", "153033.684000", "153033.686000", "153033.689000", "153033.692000", "153033.695000", "153033.698000", "153033.701000", "153033.704000", "153033.707000", "153033.709000", "153033.712000", "153033.715000", "153033.718000", "153033.721000", "153033.724000", "153113.648000", "153113.651000", "153113.654000", "153113.657000", "153113.660000", "153113.663000", "153113.665000", "153113.668000", "153113.671000", "153113.674000", "153113.677000", "153113.680000", "153113.683000", "153113.686000", "153113.688000", "153113.691000", "153113.694000", "153113.697000", "153113.700000", "153113.703000", "153113.706000", "153113.714000", "153113.717000", "153113.720000", "153113.723000", "153113.726000", "153153.648000", "153153.651000", "153153.654000", "153153.657000", "153153.660000", "153153.673000", "153153.675000", "153153.678000", "153153.681000", "153153.684000", "153153.695000", "153153.698000", "153153.700000", "153153.703000", "153153.706000", "153153.709000", "153153.712000", "153153.715000", "153153.718000", "153153.720000", "153153.723000", "153153.726000", "153153.729000", "153153.732000", "153153.735000", "153153.738000", "153153.741000", "153233.648000", "153233.651000", "153233.654000", "153233.657000", "153233.660000", "153233.663000", "153233.666000", "153233.668000", "153233.671000", "153233.674000", "153233.677000", "153233.680000", "153233.683000", "153233.686000", "153233.688000", "153233.691000", "153233.694000", "153233.697000", "153233.700000", "153233.703000", "153233.706000", "153233.709000", "153233.711000", "153233.714000", "153233.717000", "153233.720000", "153233.723000", "153313.648000", "153313.651000", "153313.654000", "153313.670000", "153313.673000", "153313.676000", "153313.679000", "153313.682000", "153313.685000", "153313.687000", "153313.690000", "153313.693000", "153313.696000", "153313.706000", "153313.709000", "153313.711000", "153313.714000", "153313.717000", "153313.720000", "153313.723000", "153313.726000", "153313.729000", "153313.732000", "153313.734000", "153313.737000", "153313.740000", "153313.743000", "153353.648000", "153353.651000", "153353.654000", "153353.657000", "153353.660000", "153353.663000", "153353.665000", "153353.668000", "153353.671000", "153353.674000", "153353.680000", "153353.682000", "153353.685000", "153353.688000", "153353.691000", "153353.694000", "153353.697000", "153353.700000", "153353.703000", "153353.706000", "153353.708000", "153353.711000", "153353.714000", "153353.717000", "153353.720000", "153353.722000", "153353.725000", "153433.648000", "153433.651000", "153433.654000", "153433.657000", "153433.660000", "153433.663000", "153433.666000", "153433.668000", "153433.671000", "153433.674000", "153433.677000", "153433.680000", "153433.683000", "153433.686000", "153433.689000", "153433.691000", "153433.694000", "153433.697000", "153433.700000", "153433.703000", "153433.706000", "153433.709000", "153433.711000", "153433.714000", "153433.717000", "153433.720000", "153433.723000", "153513.649000", "153513.652000", "153513.655000", "153513.658000", "153513.661000", "153513.663000", "153513.666000", "153513.669000", "153513.672000", "153513.675000", "153513.678000", "153513.681000", "153513.684000", "153513.687000", "153513.689000", "153513.692000", "153513.695000", "153513.698000", "153513.701000", "153513.704000", "153513.707000", "153513.709000", "153513.712000", "153513.715000", "153513.718000", "153513.721000", "153513.724000", "153553.648000", "153553.660000", "153553.663000", "153553.666000", "153553.669000", "153553.672000", "153553.675000", "153553.677000", "153553.680000", "153553.683000", "153553.686000", "153553.698000", "153553.701000", "153553.704000", "153553.707000", "153553.710000", "153553.712000", "153553.715000", "153553.719000", "153553.722000", "153553.725000", "153553.728000", "153553.731000", "153553.734000", "153553.737000", "153553.740000", "153633.648000", "153633.651000", "153633.654000", "153633.657000", "153633.660000", "153633.662000", "153633.665000", "153633.668000", "153633.671000", "153633.674000", "153633.677000", "153633.680000", "153633.683000", "153633.685000", "153633.688000", "153633.691000", "153633.694000", "153633.697000", "153633.700000", "153633.703000", "153633.706000", "153633.708000", "153633.711000", "153633.714000", "153633.717000", "153633.720000", "153633.723000", "153702.443000", "153702.446000", "153702.449000", "153702.452000", "153702.455000", "153702.458000", "153702.460000", "153702.463000", "153702.466000", "153702.469000", "153702.472000", "153702.475000", "153702.491000", "153702.494000", "153702.497000", "153702.500000", "153702.503000", "153702.506000", "153702.509000", "153702.512000"],
