{
  "AcquisitionMatrixPE": 104,
  "AcquisitionNumber": 1,
  "AcquisitionTime": "14:38:30.675000",
  "BandwidthPerPixelPhaseEncode": 17.17,
  "BaseResolution": 104,
  "BodyPartExamined": "BRAIN",
  "CoilString": "HC1-7;NC1_2",
  "ConsistencyInfo": "N4_VE11C_LATEST_20160120",
  "ConversionSoftware": "dcm2niix",
  "ConversionSoftwareVersion": "v1.0.20200427",
  "DerivedVendorReportedEchoSpacing": 0.000560011,
  "DeviceSerialNumber": "167006",
  "DwellTime": 2.1e-06,
  "EchoTime": 0.037,
  "EchoTrainLength": 104,
  "EffectiveEchoSpacing": 0.000560011,
  "FlipAngle": 52,
  "ImageComments": "Unaliased_MB4_PE3_LB",
  "ImageOrientationPatientDICOM": [0.997804, 0.0661891, -0.00233919, -0.0640005, 0.95452, -0.291198],
  "ImageType": [
    "ORIGINAL",
    "PRIMARY",
    "M",
    "MB",
    "ND",
    "MOSAIC"
],
  "ImagingFrequency": 123.259,
  "InPlanePhaseEncodingDirectionDICOM": "COL",
  "InstitutionAddress": "Chemin_Queen-Mary_4565_Montreal_District_CA_H3W_1W5",
  "InstitutionName": "IUGM",
  "InstitutionalDepartmentName": "Department",
  "MRAcquisitionType": "2D",
  "MagneticFieldStrength": 3,
  "Manufacturer": "Siemens",
  "ManufacturersModelName": "Prisma_fit",
  "Modality": "MR",
  "MultibandAccelerationFactor": 4,
  "PartialFourier": 1,
  "PatientPosition": "HFS",
  "PercentPhaseFOV": 100,
  "PercentSampling": 100,
  "PhaseEncodingDirection": "j",
  "PhaseEncodingSteps": 104,
  "PhaseResolution": 1,
  "PixelBandwidth": 2290,
  "ProcedureStepDescription": "video_friends",
  "ProtocolName": "func_task-friends-s02e24b",
  "PulseSequenceDetails": "%CustomerSeq%_cmrr_mbep2d_bold",
  "ReceiveCoilActiveElements": "HC1-7;NC1,2",
  "ReceiveCoilName": "HeadNeck_64",
  "ReconMatrixPE": 104,
  "RepetitionTime": 1.49,
  "SAR": 0.0375174,
  "ScanOptions": "FS",
  "ScanningSequence": "EP",
  "SequenceName": "epfid2d1_104",
  "SequenceVariant": "SK_SS",
  "SeriesDescription": "func_task-friends-s02e24b",
  "SeriesNumber": 22,
  "ShimSetting": [628, -7215, -8849, 676, 104, -37, 45, -27],
  "SliceThickness": 2,
  "SliceTiming": [0, 0.785, 0.0975, 0.8825, 0.195, 0.98, 0.295, 1.0775, 0.3925, 1.175, 0.49, 1.275, 0.5875, 1.3725, 0.685, 0, 0.785, 0.0975, 0.8825, 0.195, 0.98, 0.295, 1.0775, 0.3925, 1.175, 0.49, 1.275, 0.5875, 1.3725, 0.685, 0, 0.785, 0.0975, 0.8825, 0.195, 0.98, 0.295, 1.0775, 0.3925, 1.175, 0.49, 1.275, 0.5875, 1.3725, 0.685, 0, 0.785, 0.0975, 0.8825, 0.195, 0.98, 0.295, 1.0775, 0.3925, 1.175, 0.49, 1.275, 0.5875, 1.3725, 0.685],
  "SoftwareVersions": "syngo_MR_E11",
  "SpacingBetweenSlices": 2,
  "StationName": "MRC35049",
  "TaskName": "s02e24b",
  "TotalReadoutTime": 0.0576811,
  "TxRefAmp": 247.359,
  "WipMemBlock": "b09f4160-5a52-4bb1-95ac-ff237c51301d||Sequence: R016 ve11c/master r/e634e98; Dec 19 2017 11:00:25 by eja",
  "dcmmeta_affine": [
    [-1.9956086874008179, -0.12800103425979614, 0.03408271074295044, 108.36936950683594],
    [-0.13237828016281128, 1.90903902053833, -0.5814171433448792, -65.99663543701172],
    [-0.0046783871948719025, 0.5823964476585388, 1.9133198261260986, -59.279014587402344],
    [0.0, 0.0, 0.0, 1.0]
],
  "dcmmeta_reorient_transform": [
    [0.0, -1.0, 0.0, 103.0],
    [1.0, 0.0, 0.0, 0.0],
    [0.0, 0.0, 1.0, 0.0],
    [0.0, 0.0, 0.0, 1.0]
],
  "dcmmeta_shape": [104, 104, 60, 469],
  "dcmmeta_slice_dim": 2,
  "dcmmeta_version": 0.6,
  "global": {
    "const": {
      "AcquisitionMatrix": [104, 0, 0, 104],
      "AngioFlag": "N",
      "BitsAllocated": 16,
      "BitsStored": 16,
      "BodyPartExamined": "BRAIN",
      "Columns": 832,
      "EchoNumbers": 1,
      "EchoTime": 37.0,
      "EchoTrainLength": 104,
      "FlipAngle": 52.0,
      "HighBit": 15,
      "ImageOrientationPatient": [0.99780435251671, 0.06618914013313, -0.0023391936971, -0.0640005182294, 0.95451952473898, -0.2911982324095],
      "ImagePositionPatient": [-774.99445484377, -873.71029536134, 214.40306634663],
      "ImageType": [
        "ORIGINAL",
        "PRIMARY",
        "M",
        "MB",
        "ND",
        "MOSAIC"
],
      "ImagedNucleus": "1H",
      "ImagingFrequency": 123.259076,
      "InPlanePhaseEncodingDirection": "COL",
      "MRAcquisitionType": "2D",
      "MagneticFieldStrength": 3.0,
      "Manufacturer": "SIEMENS",
      "ManufacturerModelName": "Prisma_fit",
      "Modality": "MR",
      "NumberOfAverages": 1.0,
      "NumberOfPhaseEncodingSteps": 104,
      "PercentPhaseFieldOfView": 100.0,
      "PercentSampling": 100.0,
      "PerformedProcedureStepStartTime": "132531.203000",
      "PhotometricInterpretation": "MONOCHROME2",
      "PixelBandwidth": 2290.0,
      "PixelRepresentation": 0,
      "PixelSpacing": [2.0, 2.0],
      "ProtocolName": "func_task-friends-s02e24b",
      "RepetitionTime": 1490.0,
      "Rows": 832,
      "SAR": 0.0375173520864,
      "SamplesPerPixel": 1,
      "ScanOptions": "FS",
      "ScanningSequence": "EP",
      "SequenceName": "epfid2d1_104",
      "SequenceVariant": [
        "SK",
        "SS"
],
      "SeriesDescription": "func_task-friends-s02e24b",
      "SeriesNumber": 22,
      "SeriesTime": "144001.460000",
      "SliceLocation": -35.677307421217,
      "SliceThickness": 2.0,
      "SmallestImagePixelValue": 0,
      "SoftwareVersions": "syngo MR E11",
      "SpacingBetweenSlices": 2.00000004028,
      "SpecificCharacterSet": "ISO_IR 100",
      "StudyID": "1",
      "StudyTime": "132531.093000",
      "TransmitCoilName": "Body",
      "VariableFlipAngleFlag": "N",
      "WindowCenterWidthExplanation": "Algo1",
      "dBdt": 0.0},
    "slices": {}
  },
  "time": {
    "samples": {
      "AcquisitionNumber": [1, 2, 3, 4, 5, 6, 7, 8, 9, 10, 11, 12, 13, 14, 15, 16, 17, 18, 19, 20, 21, 22, 23, 24, 25, 26, 27, 28, 29, 30, 31, 32, 33, 34, 35, 36, 37, 38, 39, 40, 41, 42, 43, 44, 45, 46, 47, 48, 49, 50, 51, 52, 53, 54, 55, 56, 57, 58, 59, 60, 61, 62, 63, 64, 65, 66, 67, 68, 69, 70, 71, 72, 73, 74, 75, 76, 77, 78, 79, 80, 81, 82, 83, 84, 85, 86, 87, 88, 89, 90, 91, 92, 93, 94, 95, 96, 97, 98, 99, 100, 101, 102, 103, 104, 105, 106, 107, 108, 109, 110, 111, 112, 113, 114, 115, 116, 117, 118, 119, 120, 121, 122, 123, 124, 125, 126, 127, 128, 129, 130, 131, 132, 133, 134, 135, 136, 137, 138, 139, 140, 141, 142, 143, 144, 145, 146, 147, 148, 149, 150, 151, 152, 153, 154, 155, 156, 157, 158, 159, 160, 161, 162, 163, 164, 165, 166, 167, 168, 169, 170, 171, 172, 173, 174, 175, 176, 177, 178, 179, 180, 181, 182, 183, 184, 185, 186, 187, 188, 189, 190, 191, 192, 193, 194, 195, 196, 197, 198, 199, 200, 201, 202, 203, 204, 205, 206, 207, 208, 209, 210, 211, 212, 213, 214, 215, 216, 217, 218, 219, 220, 221, 222, 223, 224, 225, 226, 227, 228, 229, 230, 231, 232, 233, 234, 235, 236, 237, 238, 239, 240, 241, 242, 243, 244, 245, 246, 247, 248, 249, 250, 251, 252, 253, 254, 255, 256, 257, 258, 259, 260, 261, 262, 263, 264, 265, 266, 267, 268, 269, 270, 271, 272, 273, 274, 275, 276, 277, 278, 279, 280, 281, 282, 283, 284, 285, 286, 287, 288, 289, 290, 291, 292, 293, 294, 295, 296, 297, 298, 299, 300, 301, 302, 303, 304, 305, 306, 307, 308, 309, 310, 311, 312, 313, 314, 315, 316, 317, 318, 319, 320, 321, 322, 323, 324, 325, 326, 327, 328, 329, 330, 331, 332, 333, 334, 335, 336, 337, 338, 339, 340, 341, 342, 343, 344, 345, 346, 347, 348, 349, 350, 351, 352, 353, 354, 355, 356, 357, 358, 359, 360, 361, 362, 363, 364, 365, 366, 367, 368, 369, 370, 371, 372, 373, 374, 375, 376, 377, 378, 379, 380, 381, 382, 383, 384, 385, 386, 387, 388, 389, 390, 391, 392, 393, 394, 395, 396, 397, 398, 399, 400, 401, 402, 403, 404, 405, 406, 407, 408, 409, 410, 411, 412, 413, 414, 415, 416, 417, 418, 419, 420, 421, 422, 423, 424, 425, 426, 427, 428, 429, 430, 431, 432, 433, 434, 435, 436, 437, 438, 439, 440, 441, 442, 443, 444, 445, 446, 447, 448, 449, 450, 451, 452, 453, 454, 455, 456, 457, 458, 459, 460, 461, 462, 463, 464, 465, 466, 467, 468, 469],
      "AcquisitionTime": ["143830.675000", "143832.165000", "143833.655000", "143835.145000", "143836.635000", "143838.125000", "143839.615000", "143841.105000", "143842.595000", "143844.085000", "143845.575000", "143847.065000", "143848.555000", "143850.045000", "143851.535000", "143853.025000", "143854.515000", "143856.005000", "143857.495000", "143858.985000", "143900.475000", "143901.965000", "143903.455000", "143904.945000", "143906.435000", "143907.925000", "143909.415000", "143910.905000", "143912.395000", "143913.885000", "143915.375000", "143916.865000", "143918.355000", "143919.845000", "143921.335000", "143922.825000", "143924.315000", "143925.805000", "143927.295000", "143928.785000", "143930.275000", "143931.765000", "143933.255000", "143934.745000", "143936.235000", "143937.725000", "143939.215000", "143940.705000", "143942.195000", "143943.685000", "143945.175000", "143946.665000", "143948.155000", "143949.645000", "143951.135000", "143952.625000", "143954.115000", "143955.605000", "143957.095000", "143958.585000", "144000.075000", "144001.565000", "144003.055000", "144004.545000", "144006.035000", "144007.525000", "144009.015000", "144010.505000", "144011.995000", "144013.485000", "144014.975000", "144016.465000", "144017.955000", "144019.445000", "144020.935000", "144022.425000", "144023.915000", "144025.405000", "144026.895000", "144028.385000", "144029.875000", "144031.365000", "144032.855000", "144034.345000", "144035.835000", "144037.325000", "144038.815000", "144040.305000", "144041.795000", "144043.285000", "144044.775000", "144046.265000", "144047.755000", "144049.245000", "144050.735000", "144052.225000", "144053.715000", "144055.205000", "144056.695000", "144058.185000", "144059.675000", "144101.165000", "144102.655000", "144104.145000", "144105.635000", "144107.125000", "144108.615000", "144110.105000", "144111.595000", "144113.085000", "144114.575000", "144116.065000", "144117.555000", "144119.045000", "144120.535000", "144122.025000", "144123.515000", "144125.005000", "144126.495000", "144127.985000", "144129.475000", "144130.965000", "144132.455000", "144133.945000", "144135.435000", "144136.925000", "144138.415000", "144139.905000", "144141.395000", "144142.885000", "144144.375000", "144145.865000", "144147.355000", "144148.845000", "144150.335000", "144151.825000", "144153.315000", "144154.805000", "144156.295000", "144157.785000", "144159.275000", "144200.765000", "144202.255000", "144203.745000", "144205.235000", "144206.725000", "144208.215000", "144209.705000", "144211.195000", "144212.685000", "144214.175000", "144215.665000", "144217.155000", "144218.645000", "144220.135000", "144221.625000", "144223.115000", "144224.605000", "144226.095000", "144227.585000", "144229.075000", "144230.565000", "144232.055000", "144233.545000", "144235.035000", "144236.525000", "144238.015000", "144239.505000", "144240.995000", "144242.485000", "144243.975000", "144245.465000", "144246.955000", "144248.445000", "144249.935000", "144251.425000", "144252.915000", "144254.405000", "144255.895000", "144257.385000", "144258.875000", "144300.365000", "144301.855000", "144303.345000", "144304.835000", "144306.325000", "144307.815000", "144309.305000", "144310.795000", "144312.285000", "144313.775000", "144315.265000", "144316.755000", "144318.245000", "144319.735000", "144321.225000", "144322.715000", "144324.205000", "144325.695000", "144327.185000", "144328.675000", "144330.165000", "144331.655000", "144333.145000", "144334.635000", "144336.125000", "144337.615000", "144339.105000", "144340.595000", "144342.085000", "144343.575000", "144345.065000", "144346.555000", "144348.045000", "144349.535000", "144351.025000", "144352.515000", "144354.005000", "144355.495000", "144356.985000", "144358.475000", "144359.965000", "144401.455000", "144402.945000", "144404.435000", "144405.925000", "144407.415000", "144408.905000", "144410.395000", "144411.885000", "144413.375000", "144414.865000", "144416.355000", "144417.845000", "144419.335000", "144420.825000", "144422.315000", "144423.805000", "144425.295000", "144426.785000", "144428.275000", "144429.765000", "144431.255000", "144432.745000", "144434.235000", "144435.725000", "144437.215000", "144438.705000", "144440.195000", "144441.685000", "144443.175000", "144444.665000", "144446.155000", "144447.645000", "144449.135000", "144450.625000", "144452.115000", "144453.605000", "144455.095000", "144456.585000", "144458.075000", "144459.565000", "144501.055000", "144502.545000", "144504.035000", "144505.525000", "144507.015000", "144508.505000", "144509.995000", "144511.485000", "144512.975000", "144514.465000", "144515.955000", "144517.445000", "144518.935000", "144520.425000", "144521.915000", "144523.405000", "144524.895000", "144526.385000", "144527.875000", "144529.365000", "144530.855000", "144532.345000", "144533.835000", "144535.325000", "144536.815000", "144538.305000", "144539.795000", "144541.285000", "144542.775000", "144544.265000", "144545.755000", "144547.245000", "144548.735000", "144550.225000", "144551.715000", "144553.205000", "144554.695000", "144556.185000", "144557.675000", "144559.165000", "144600.655000", "144602.145000", "144603.635000", "144605.125000", "144606.615000", "144608.105000", "144609.595000", "144611.085000", "144612.575000", "144614.065000", "144615.555000", "144617.045000", "144618.535000", "144620.025000", "144621.515000", "144623.005000", "144624.495000", "144625.985000", "144627.475000", "144628.965000", "144630.455000", "144631.945000", "144633.435000", "144634.925000", "144636.415000", "144637.905000", "144639.395000", "144640.885000", "144642.375000", "144643.865000", "144645.355000", "144646.845000", "144648.335000", "144649.825000", "144651.315000", "144652.805000", "144654.295000", "144655.785000", "144657.275000", "144658.765000", "144700.255000", "144701.745000", "144703.235000", "144704.725000", "144706.215000", "144707.705000", "144709.195000", "144710.685000", "144712.175000", "144713.665000", "144715.155000", "144716.645000", "144718.135000", "144719.625000", "144721.115000", "144722.605000", "144724.095000", "144725.585000", "144727.075000", "144728.565000", "144730.055000", "144731.545000", "144733.035000", "144734.525000", "144736.015000", "144737.505000", "144738.995000", "144740.485000", "144741.975000", "144743.465000", "144744.955000", "144746.445000", "144747.935000", "144749.425000", "144750.915000", "144752.405000", "144753.895000", "144755.385000", "144756.875000", "144758.365000", "144759.855000", "144801.345000", "144802.835000", "144804.325000", "144805.815000", "144807.305000", "144808.795000", "144810.285000", "144811.775000", "144813.265000", "144814.755000", "144816.245000", "144817.735000", "144819.225000", "144820.715000", "144822.205000", "144823.695000", "144825.185000", "144826.675000", "144828.165000", "144829.655000", "144831.145000", "144832.635000", "144834.125000", "144835.615000", "144837.105000", "144838.595000", "144840.085000", "144841.575000", "144843.065000", "144844.555000", "144846.045000", "144847.535000", "144849.025000", "144850.515000", "144852.005000", "144853.495000", "144854.985000", "144856.475000", "144857.965000", "144859.455000", "144900.945000", "144902.435000", "144903.925000", "144905.415000", "144906.905000", "144908.395000", "144909.885000", "144911.375000", "144912.865000", "144914.355000", "144915.845000", "144917.335000", "144918.825000", "144920.315000", "144921.805000", "144923.295000", "144924.785000", "144926.275000", "144927.765000", "144929.255000", "144930.745000", "144932.235000", "144933.725000", "144935.215000", "144936.705000", "144938.195000", "144939.685000", "144941.175000", "144942.665000", "144944.155000", "144945.645000", "144947.135000", "144948.625000", "144950.115000", "144951.605000", "144953.095000", "144954.585000", "144956.075000", "144957.565000", "144959.055000", "145000.545000", "145002.035000", "145003.525000", "145005.015000", "145006.505000", "145007.995000"],
      "ContentTime": ["144001.463000", "144001.467000", "144001.470000", "144001.473000", "144001.475000", "144001.479000", "144001.482000", "144001.484000", "144001.487000", "144001.491000", "144001.493000", "144001.496000", "144001.499000", "144001.502000", "144001.512000", "144001.515000", "144001.518000", "144001.521000", "144001.524000", "144001.527000", "144001.536000", "144001.539000", "144001.542000", "144001.545000", "144001.547000", "144001.569000", "144001.572000", "144001.575000", "144001.578000", "144001.582000", "144001.585000", "144001.588000", "144001.591000", "144001.594000", "144001.597000", "144001.600000", "144021.431000", "144021.434000", "144021.438000", "144021.441000", "144021.444000", "144021.447000", "144021.450000", "144021.453000", "144021.456000", "144021.459000", "144021.462000", "144021.465000", "144021.468000", "144021.471000", "144021.474000", "144021.483000", "144021.486000", "144021.489000", "144021.493000", "144021.496000", "144021.498000", "144041.431000", "144041.434000", "144041.437000", "144041.440000", "144041.443000", "144041.446000", "144041.449000", "144041.452000", "144041.455000", "144041.458000", "144041.461000", "144041.464000", "144041.467000", "144041.470000", "144041.473000", "144041.476000", "144041.479000", "144041.483000", "144041.486000", "144041.489000", "144101.432000", "144101.435000", "144101.438000", "144101.441000", "144101.444000", "144101.447000", "144101.450000", "144101.453000", "144101.456000", "144101.459000", "144101.462000", "144101.465000", "144101.468000", "144101.471000", "144101.474000", "144101.477000", "144101.480000", "144101.483000", "144101.486000", "144101.489000", "144141.431000", "144141.435000", "144141.438000", "144141.441000", "144141.444000", "144141.447000", "144141.450000", "144141.453000", "144141.456000", "144141.459000", "144141.462000", "144141.465000", "144141.468000", "144141.471000", "144141.474000", "144141.477000", "144141.480000", "144141.483000", "144141.486000", "144141.489000", "144141.492000", "144141.496000", "144141.499000", "144141.502000", "144141.505000", "144141.508000", "144141.511000", "144141.514000", "144141.517000", "144141.520000", "144221.431000", "144221.434000", "144221.437000", "144221.440000", "144221.443000", "144221.446000", "144221.449000", "144221.452000", "144221.455000", "144221.458000", "144221.461000", "144221.464000", "144221.467000", "144221.470000", "144221.473000", "144221.476000", "144221.479000", "144221.482000", "144221.485000", "144221.488000", "144221.491000", "144221.494000", "144221.497000", "144221.500000", "144221.503000", "144221.506000", "144221.509000", "144301.431000", "144301.434000", "144301.437000", "144301.440000", "144301.443000", "144301.446000", "144301.449000", "144301.452000", "144301.455000", "144301.458000", "144301.461000", "144301.464000", "144301.467000", "144301.470000", "144301.473000", "144301.476000", "144301.480000", "144301.482000", "144301.485000", "144301.488000", "144301.492000", "144301.495000", "144301.497000", "144301.500000", "144301.503000", "144301.506000", "144301.509000", "144341.431000", "144341.434000", "144341.437000", "144341.440000", "144341.443000", "144341.446000", "144341.449000", "144341.452000", "144341.455000", "144341.458000", "144341.461000", "144341.464000", "144341.467000", "144341.470000", "144341.473000", "144341.476000", "144341.479000", "144341.482000", "144341.485000", "144341.488000", "144341.491000", "144341.494000", "144341.497000", "144341.500000", "144341.503000", "144341.506000", "144341.509000", "144421.431000", "144421.435000", "144421.438000", "144421.441000", "144421.444000", "144421.447000", "144421.450000", "144421.453000", "144421.456000", "144421.459000", "144421.462000", "144421.465000", "144421.468000", "144421.483000", "144421.487000", "144421.489000", "144421.492000", "144421.495000", "144421.498000", "144421.501000", "144421.504000", "144421.507000", "144421.510000", "144421.513000", "144421.516000", "144421.519000", "144501.431000", "144501.434000", "144501.437000", "144501.440000", "144501.443000", "144501.446000", "144501.449000", "144501.452000", "144501.455000", "144501.458000", "144501.469000", "144501.472000", "144501.476000", "144501.479000", "144501.482000", "144501.485000", "144501.488000", "144501.491000", "144501.494000", "144501.497000", "144501.500000", "144501.503000", "144501.506000", "144501.509000", "144501.512000", "144501.515000", "144501.518000", "144541.432000", "144541.435000", "144541.438000", "144541.441000", "144541.444000", "144541.447000", "144541.450000", "144541.453000", "144541.456000", "144541.459000", "144541.462000", "144541.465000", "144541.468000", "144541.472000", "144541.475000", "144541.478000", "144541.481000", "144541.484000", "144541.487000", "144541.497000", "144541.500000", "144541.503000", "144541.506000", "144541.509000", "144541.512000", "144541.515000", "144541.518000", "144621.431000", "144621.434000", "144621.437000", "144621.440000", "144621.443000", "144621.446000", "144621.449000", "144621.452000", "144621.455000", "144621.459000", "144621.462000", "144621.465000", "144621.468000", "144621.471000", "144621.474000", "144621.477000", "144621.480000", "144621.483000", "144621.486000", "144621.489000", "144621.492000", "144621.495000", "144621.498000", "144621.501000", "144621.504000", "144621.507000", "144621.510000", "144701.431000", "144701.434000", "144701.437000", "144701.440000", "144701.443000", "144701.446000", "144701.449000", "144701.452000", "144701.455000", "144701.458000", "144701.461000", "144701.464000", "144701.467000", "144701.470000", "144701.473000", "144701.476000", "144701.479000", "144701.482000", "144701.485000", "144701.488000", "144701.491000", "144701.494000", "144701.497000", "144701.499000", "144701.503000", "144701.506000", "144701.509000", "144741.431000", "144741.434000", "144741.437000", "144741.440000", "144741.443000", "144741.446000", "144741.449000", "144741.452000", "144741.455000", "144741.458000", "144741.461000", "144741.464000", "144741.468000", "144741.471000", "144741.474000", "144741.476000", "144741.480000", "144741.483000", "144741.486000", "144741.489000", "144741.492000", "144741.495000", "144741.498000", "144741.501000", "144741.504000", "144741.507000", "144741.510000", "144821.431000", "144821.434000", "144821.437000", "144821.440000", "144821.443000", "144821.446000", "144821.449000", "144821.452000", "144821.455000", "144821.458000", "144821.461000", "144821.464000", "144821.467000", "144821.470000", "144821.473000", "144821.476000", "144821.479000", "144821.482000", "144821.485000", "144821.488000", "144821.491000", "144821.494000", "144821.497000", "144821.500000", "144821.503000", "144821.506000", "144821.509000", "144901.431000", "144901.434000", "144901.437000", "144901.440000", "144901.443000", "144901.446000", "144901.449000", "144901.452000", "144901.455000", "144901.469000", "144901.472000", "144901.475000", "144901.478000", "144901.481000", "144901.484000", "144901.487000", "144901.490000", "144901.493000", "144901.496000", "144901.499000", "144901.502000", "144901.505000", "144901.508000", "144901.511000", "144901.514000", "144901.517000", "144941.431000", "144941.434000", "144941.437000", "144941.440000", "144941.443000", "144941.446000", "144941.449000", "144941.452000", "144941.456000", "144941.459000", "144941.462000", "144941.465000", "144941.468000", "144941.471000", "144941.474000", "144941.477000", "144941.480000", "144941.483000", "144941.486000", "144941.489000", "144941.492000", "144941.495000", "144941.498000", "144941.501000", "144941.504000", "144941.507000", "144941.510000", "145010.144000", "145010.147000", "145010.150000", "145010.153000", "145010.156000", "145010.159000", "145010.170000", "145010.173000", "145010.176000", "145010.179000", "145010.182000", "145010.185000", "145010.188000", "145010.191000", "145010.194000", "145010.197000", "145010.200000", "145010.203000", "145010.206000", "145010.209000"],
