{
  "AcquisitionMatrixPE": 104,
  "AcquisitionNumber": 1,
  "AcquisitionTime": "14:07:26.202500",
  "BandwidthPerPixelPhaseEncode": 17.17,
  "BaseResolution": 104,
  "BodyPartExamined": "BRAIN",
  "CoilString": "HC1-7;NC1_2",
  "ConsistencyInfo": "N4_VE11C_LATEST_20160120",
  "ConversionSoftware": "dcm2niix",
  "ConversionSoftwareVersion": "v1.0.20200427",
  "DerivedVendorReportedEchoSpacing": 0.000560011,
  "DeviceSerialNumber": "167006",
  "DwellTime": 2.1e-06,
  "EchoTime": 0.037,
  "EchoTrainLength": 104,
  "EffectiveEchoSpacing": 0.000560011,
  "FlipAngle": 52,
  "ImageComments": "Unaliased_MB4_PE3_LB",
  "ImageOrientationPatientDICOM": [0.998802, 0.0389868, 0.0295824, -0.0287714, 0.95675, -0.289485],
  "ImageType": [
    "ORIGINAL",
    "PRIMARY",
    "M",
    "MB",
    "ND",
    "MOSAIC"
],
  "ImagingFrequency": 123.259,
  "InPlanePhaseEncodingDirectionDICOM": "COL",
  "InstitutionAddress": "Chemin_Queen-Mary_4565_Montreal_District_CA_H3W_1W5",
  "InstitutionName": "IUGM",
  "InstitutionalDepartmentName": "Department",
  "MRAcquisitionType": "2D",
  "MagneticFieldStrength": 3,
  "Manufacturer": "Siemens",
  "ManufacturersModelName": "Prisma_fit",
  "Modality": "MR",
  "MultibandAccelerationFactor": 4,
  "PartialFourier": 1,
  "PatientPosition": "HFS",
  "PercentPhaseFOV": 100,
  "PercentSampling": 100,
  "PhaseEncodingDirection": "j",
  "PhaseEncodingSteps": 104,
  "PhaseResolution": 1,
  "PixelBandwidth": 2290,
  "ProcedureStepDescription": "video_friends",
  "ProtocolName": "func_task-friends-s02e23b",
  "PulseSequenceDetails": "%CustomerSeq%_cmrr_mbep2d_bold",
  "ReceiveCoilActiveElements": "HC1-7;NC1,2",
  "ReceiveCoilName": "HeadNeck_64",
  "ReconMatrixPE": 104,
  "RepetitionTime": 1.49,
  "SAR": 0.034985,
  "ScanOptions": "FS",
  "ScanningSequence": "EP",
  "SequenceName": "epfid2d1_104",
  "SequenceVariant": "SK_SS",
  "SeriesDescription": "func_task-friends-s02e23b",
  "SeriesNumber": 11,
  "ShimSetting": [642, -7205, -8820, 663, 110, -36, 43, -5],
  "SliceThickness": 2,
  "SliceTiming": [0, 0.785, 0.0975, 0.8825, 0.195, 0.98, 0.295, 1.0775, 0.3925, 1.175, 0.49, 1.2725, 0.5875, 1.3725, 0.685, 0, 0.785, 0.0975, 0.8825, 0.195, 0.98, 0.295, 1.0775, 0.3925, 1.175, 0.49, 1.2725, 0.5875, 1.3725, 0.685, 0, 0.785, 0.0975, 0.8825, 0.195, 0.98, 0.295, 1.0775, 0.3925, 1.175, 0.49, 1.2725, 0.5875, 1.3725, 0.685, 0, 0.785, 0.0975, 0.8825, 0.195, 0.98, 0.295, 1.0775, 0.3925, 1.175, 0.49, 1.2725, 0.5875, 1.3725, 0.685],
  "SoftwareVersions": "syngo_MR_E11",
  "SpacingBetweenSlices": 2,
  "StationName": "MRC35049",
  "TaskName": "s02e23b",
  "TotalReadoutTime": 0.0576811,
  "TxRefAmp": 240.858,
  "WipMemBlock": "231cf981-9a2c-4dce-aaa5-19c11165695b||Sequence: R016 ve11c/master r/e634e98; Dec 19 2017 11:00:25 by eja",
  "dcmmeta_affine": [
    [-1.9976035356521606, -0.05754275247454643, 0.07917816191911697, 104.48027801513672],
    [-0.07797351479530334, 1.9134999513626099, -0.5765745639801025, -69.71080017089844],
    [0.059164859354496, 0.5789706110954285, 1.9134503602981567, -54.28975296020508],
    [0.0, 0.0, 0.0, 1.0]
],
  "dcmmeta_reorient_transform": [
    [0.0, -1.0, 0.0, 103.0],
    [1.0, 0.0, 0.0, 0.0],
    [0.0, 0.0, 1.0, 0.0],
    [0.0, 0.0, 0.0, 1.0]
],
  "dcmmeta_shape": [104, 104, 60, 456],
  "dcmmeta_slice_dim": 2,
  "dcmmeta_version": 0.6,
  "global": {
    "const": {
      "AcquisitionMatrix": [104, 0, 0, 104],
      "AngioFlag": "N",
      "BitsAllocated": 16,
      "BitsStored": 16,
      "BodyPartExamined": "BRAIN",
      "Columns": 832,
      "EchoNumbers": 1,
      "EchoTime": 37.0,
      "EchoTrainLength": 104,
      "FlipAngle": 52.0,
      "HighBit": 15,
      "ImageOrientationPatient": [0.99880173831859, 0.03898675844387, 0.02958243055928, -0.0287713761063, 0.95674995126703, -0.2894852995706],
      "ImagePositionPatient": [-804.73547672893, -852.27601682029, 194.55350662802],
      "ImageType": [
        "ORIGINAL",
        "PRIMARY",
        "M",
        "MB",
        "ND",
        "MOSAIC"
],
      "ImagedNucleus": "1H",
      "ImagingFrequency": 123.259048,
      "InPlanePhaseEncodingDirection": "COL",
      "MRAcquisitionType": "2D",
      "MagneticFieldStrength": 3.0,
      "Manufacturer": "SIEMENS",
      "ManufacturerModelName": "Prisma_fit",
      "Modality": "MR",
      "NumberOfAverages": 1.0,
      "NumberOfPhaseEncodingSteps": 104,
      "PercentPhaseFieldOfView": 100.0,
      "PercentSampling": 100.0,
      "PerformedProcedureStepStartTime": "132531.203000",
      "PhotometricInterpretation": "MONOCHROME2",
      "PixelBandwidth": 2290.0,
      "PixelRepresentation": 0,
      "PixelSpacing": [2.0, 2.0],
      "ProtocolName": "func_task-friends-s02e23b",
      "RepetitionTime": 1490.0,
      "Rows": 832,
      "SAR": 0.0349850076163,
      "SamplesPerPixel": 1,
      "ScanOptions": "FS",
      "ScanningSequence": "EP",
      "SequenceName": "epfid2d1_104",
      "SequenceVariant": [
        "SK",
        "SS"
],
      "SeriesDescription": "func_task-friends-s02e23b",
      "SeriesNumber": 11,
      "SeriesTime": "140856.616000",
      "SliceLocation": -27.707360932756,
      "SliceThickness": 2.0,
      "SmallestImagePixelValue": 0,
      "SoftwareVersions": "syngo MR E11",
      "SpacingBetweenSlices": 1.9999999694238,
      "SpecificCharacterSet": "ISO_IR 100",
      "StudyID": "1",
      "StudyTime": "132531.093000",
      "TransmitCoilName": "Body",
      "VariableFlipAngleFlag": "N",
      "WindowCenterWidthExplanation": "Algo1",
      "dBdt": 0.0},
    "slices": {}
  },
  "time": {
    "samples": {
      "AcquisitionNumber": [1, 2, 3, 4, 5, 6, 7, 8, 9, 10, 11, 12, 13, 14, 15, 16, 17, 18, 19, 20, 21, 22, 23, 24, 25, 26, 27, 28, 29, 30, 31, 32, 33, 34, 35, 36, 37, 38, 39, 40, 41, 42, 43, 44, 45, 46, 47, 48, 49, 50, 51, 52, 53, 54, 55, 56, 57, 58, 59, 60, 61, 62, 63, 64, 65, 66, 67, 68, 69, 70, 71, 72, 73, 74, 75, 76, 77, 78, 79, 80, 81, 82, 83, 84, 85, 86, 87, 88, 89, 90, 91, 92, 93, 94, 95, 96, 97, 98, 99, 100, 101, 102, 103, 104, 105, 106, 107, 108, 109, 110, 111, 112, 113, 114, 115, 116, 117, 118, 119, 120, 121, 122, 123, 124, 125, 126, 127, 128, 129, 130, 131, 132, 133, 134, 135, 136, 137, 138, 139, 140, 141, 142, 143, 144, 145, 146, 147, 148, 149, 150, 151, 152, 153, 154, 155, 156, 157, 158, 159, 160, 161, 162, 163, 164, 165, 166, 167, 168, 169, 170, 171, 172, 173, 174, 175, 176, 177, 178, 179, 180, 181, 182, 183, 184, 185, 186, 187, 188, 189, 190, 191, 192, 193, 194, 195, 196, 197, 198, 199, 200, 201, 202, 203, 204, 205, 206, 207, 208, 209, 210, 211, 212, 213, 214, 215, 216, 217, 218, 219, 220, 221, 222, 223, 224, 225, 226, 227, 228, 229, 230, 231, 232, 233, 234, 235, 236, 237, 238, 239, 240, 241, 242, 243, 244, 245, 246, 247, 248, 249, 250, 251, 252, 253, 254, 255, 256, 257, 258, 259, 260, 261, 262, 263, 264, 265, 266, 267, 268, 269, 270, 271, 272, 273, 274, 275, 276, 277, 278, 279, 280, 281, 282, 283, 284, 285, 286, 287, 288, 289, 290, 291, 292, 293, 294, 295, 296, 297, 298, 299, 300, 301, 302, 303, 304, 305, 306, 307, 308, 309, 310, 311, 312, 313, 314, 315, 316, 317, 318, 319, 320, 321, 322, 323, 324, 325, 326, 327, 328, 329, 330, 331, 332, 333, 334, 335, 336, 337, 338, 339, 340, 341, 342, 343, 344, 345, 346, 347, 348, 349, 350, 351, 352, 353, 354, 355, 356, 357, 358, 359, 360, 361, 362, 363, 364, 365, 366, 367, 368, 369, 370, 371, 372, 373, 374, 375, 376, 377, 378, 379, 380, 381, 382, 383, 384, 385, 386, 387, 388, 389, 390, 391, 392, 393, 394, 395, 396, 397, 398, 399, 400, 401, 402, 403, 404, 405, 406, 407, 408, 409, 410, 411, 412, 413, 414, 415, 416, 417, 418, 419, 420, 421, 422, 423, 424, 425, 426, 427, 428, 429, 430, 431, 432, 433, 434, 435, 436, 437, 438, 439, 440, 441, 442, 443, 444, 445, 446, 447, 448, 449, 450, 451, 452, 453, 454, 455, 456],
      "AcquisitionTime": ["140726.202500", "140727.692500", "140729.182500", "140730.672500", "140732.162500", "140733.652500", "140735.142500", "140736.632500", "140738.122500", "140739.612500", "140741.102500", "140742.592500", "140744.082500", "140745.572500", "140747.062500", "140748.552500", "140750.042500", "140751.532500", "140753.022500", "140754.512500", "140756.002500", "140757.492500", "140758.982500", "140800.472500", "140801.962500", "140803.452500", "140804.942500", "140806.432500", "140807.922500", "140809.412500", "140810.902500", "140812.392500", "140813.882500", "140815.372500", "140816.862500", "140818.352500", "140819.842500", "140821.332500", "140822.822500", "140824.312500", "140825.802500", "140827.292500", "140828.782500", "140830.272500", "140831.762500", "140833.252500", "140834.742500", "140836.232500", "140837.722500", "140839.212500", "140840.702500", "140842.192500", "140843.682500", "140845.172500", "140846.662500", "140848.152500", "140849.642500", "140851.132500", "140852.622500", "140854.112500", "140855.602500", "140857.092500", "140858.582500", "140900.072500", "140901.562500", "140903.052500", "140904.542500", "140906.032500", "140907.522500", "140909.012500", "140910.502500", "140911.992500", "140913.482500", "140914.972500", "140916.462500", "140917.952500", "140919.442500", "140920.932500", "140922.422500", "140923.912500", "140925.402500", "140926.892500", "140928.382500", "140929.872500", "140931.362500", "140932.852500", "140934.342500", "140935.832500", "140937.322500", "140938.812500", "140940.302500", "140941.792500", "140943.282500", "140944.772500", "140946.262500", "140947.752500", "140949.242500", "140950.732500", "140952.222500", "140953.712500", "140955.202500", "140956.692500", "140958.182500", "140959.672500", "141001.162500", "141002.652500", "141004.142500", "141005.632500", "141007.122500", "141008.612500", "141010.102500", "141011.592500", "141013.082500", "141014.572500", "141016.062500", "141017.552500", "141019.042500", "141020.532500", "141022.022500", "141023.512500", "141025.002500", "141026.492500", "141027.982500", "141029.472500", "141030.962500", "141032.452500", "141033.942500", "141035.432500", "141036.922500", "141038.412500", "141039.902500", "141041.392500", "141042.882500", "141044.372500", "141045.862500", "141047.352500", "141048.842500", "141050.332500", "141051.822500", "141053.312500", "141054.802500", "141056.292500", "141057.782500", "141059.272500", "141100.762500", "141102.252500", "141103.742500", "141105.232500", "141106.722500", "141108.212500", "141109.702500", "141111.192500", "141112.682500", "141114.172500", "141115.662500", "141117.152500", "141118.642500", "141120.132500", "141121.622500", "141123.112500", "141124.602500", "141126.092500", "141127.582500", "141129.072500", "141130.562500", "141132.052500", "141133.542500", "141135.032500", "141136.522500", "141138.012500", "141139.502500", "141140.992500", "141142.482500", "141143.972500", "141145.462500", "141146.952500", "141148.442500", "141149.932500", "141151.422500", "141152.912500", "141154.402500", "141155.892500", "141157.382500", "141158.872500", "141200.362500", "141201.852500", "141203.342500", "141204.832500", "141206.322500", "141207.812500", "141209.302500", "141210.792500", "141212.282500", "141213.772500", "141215.262500", "141216.752500", "141218.242500", "141219.732500", "141221.222500", "141222.712500", "141224.202500", "141225.692500", "141227.182500", "141228.672500", "141230.162500", "141231.652500", "141233.142500", "141234.632500", "141236.122500", "141237.612500", "141239.102500", "141240.592500", "141242.082500", "141243.572500", "141245.062500", "141246.552500", "141248.042500", "141249.532500", "141251.022500", "141252.512500", "141254.002500", "141255.492500", "141256.982500", "141258.472500", "141259.962500", "141301.452500", "141302.942500", "141304.432500", "141305.922500", "141307.412500", "141308.902500", "141310.392500", "141311.882500", "141313.372500", "141314.862500", "141316.352500", "141317.842500", "141319.332500", "141320.822500", "141322.312500", "141323.802500", "141325.292500", "141326.782500", "141328.272500", "141329.762500", "141331.252500", "141332.742500", "141334.232500", "141335.722500", "141337.212500", "141338.702500", "141340.192500", "141341.682500", "141343.172500", "141344.662500", "141346.152500", "141347.642500", "141349.132500", "141350.622500", "141352.112500", "141353.602500", "141355.092500", "141356.582500", "141358.072500", "141359.562500", "141401.052500", "141402.542500", "141404.032500", "141405.522500", "141407.012500", "141408.502500", "141409.992500", "141411.482500", "141412.972500", "141414.462500", "141415.952500", "141417.442500", "141418.932500", "141420.422500", "141421.912500", "141423.402500", "141424.892500", "141426.382500", "141427.872500", "141429.362500", "141430.852500", "141432.342500", "141433.832500", "141435.322500", "141436.812500", "141438.302500", "141439.792500", "141441.282500", "141442.772500", "141444.262500", "141445.752500", "141447.242500", "141448.732500", "141450.222500", "141451.712500", "141453.202500", "141454.692500", "141456.182500", "141457.672500", "141459.162500", "141500.652500", "141502.142500", "141503.632500", "141505.122500", "141506.612500", "141508.102500", "141509.592500", "141511.082500", "141512.572500", "141514.062500", "141515.552500", "141517.042500", "141518.532500", "141520.022500", "141521.512500", "141523.002500", "141524.492500", "141525.982500", "141527.472500", "141528.962500", "141530.452500", "141531.942500", "141533.432500", "141534.922500", "141536.412500", "141537.902500", "141539.392500", "141540.882500", "141542.372500", "141543.862500", "141545.352500", "141546.842500", "141548.332500", "141549.822500", "141551.312500", "141552.802500", "141554.292500", "141555.782500", "141557.272500", "141558.762500", "141600.252500", "141601.742500", "141603.232500", "141604.722500", "141606.212500", "141607.702500", "141609.192500", "141610.682500", "141612.172500", "141613.662500", "141615.152500", "141616.642500", "141618.132500", "141619.622500", "141621.112500", "141622.602500", "141624.092500", "141625.582500", "141627.072500", "141628.562500", "141630.052500", "141631.542500", "141633.032500", "141634.522500", "141636.012500", "141637.502500", "141638.992500", "141640.482500", "141641.972500", "141643.462500", "141644.952500", "141646.442500", "141647.932500", "141649.422500", "141650.912500", "141652.402500", "141653.892500", "141655.382500", "141656.872500", "141658.362500", "141659.852500", "141701.342500", "141702.832500", "141704.322500", "141705.812500", "141707.302500", "141708.792500", "141710.282500", "141711.772500", "141713.262500", "141714.752500", "141716.242500", "141717.732500", "141719.222500", "141720.712500", "141722.202500", "141723.692500", "141725.182500", "141726.672500", "141728.162500", "141729.652500", "141731.142500", "141732.632500", "141734.122500", "141735.612500", "141737.102500", "141738.592500", "141740.082500", "141741.572500", "141743.062500", "141744.552500", "141746.042500", "141747.532500", "141749.022500", "141750.512500", "141752.002500", "141753.492500", "141754.982500", "141756.472500", "141757.962500", "141759.452500", "141800.942500", "141802.432500", "141803.922500", "141805.412500", "141806.902500", "141808.392500", "141809.882500", "141811.372500", "141812.862500", "141814.352500", "141815.842500", "141817.332500", "141818.822500", "141820.312500", "141821.802500", "141823.292500", "141824.782500", "141826.272500", "141827.762500", "141829.252500", "141830.742500", "141832.232500", "141833.722500", "141835.212500", "141836.702500", "141838.192500", "141839.682500", "141841.172500", "141842.662500", "141844.152500"],
      "ContentTime": ["140856.619000", "140856.622000", "140856.625000", "140856.629000", "140856.631000", "140856.634000", "140856.637000", "140856.641000", "140856.643000", "140856.646000", "140856.649000", "140856.652000", "140856.655000", "140856.663000", "140856.666000", "140856.669000", "140856.672000", "140856.675000", "140856.678000", "140856.681000", "140856.684000", "140856.687000", "140856.690000", "140856.693000", "140856.696000", "140856.699000", "140856.702000", "140856.705000", "140856.708000", "140856.711000", "140856.716000", "140856.720000", "140856.722000", "140856.726000", "140916.592000", "140916.595000", "140916.598000", "140916.601000", "140916.604000", "140916.607000", "140916.610000", "140916.613000", "140916.616000", "140916.619000", "140916.622000", "140916.625000", "140916.628000", "140916.631000", "140916.634000", "140916.637000", "140916.640000", "140916.643000", "140916.646000", "140916.649000", "140916.652000", "140936.592000", "140936.595000", "140936.598000", "140936.601000", "140936.604000", "140936.607000", "140936.610000", "140936.613000", "140936.616000", "140936.619000", "140936.622000", "140936.625000", "140936.628000", "140936.631000", "140936.634000", "140936.637000", "140936.640000", "140936.643000", "140936.646000", "140936.649000", "140956.592000", "140956.595000", "140956.598000", "140956.601000", "140956.604000", "140956.607000", "140956.610000", "140956.613000", "140956.616000", "140956.619000", "140956.622000", "140956.625000", "140956.628000", "140956.631000", "140956.634000", "140956.643000", "140956.646000", "140956.649000", "140956.652000", "140956.655000", "141016.592000", "141016.595000", "141016.598000", "141016.602000", "141016.607000", "141016.610000", "141016.613000", "141016.616000", "141016.619000", "141016.622000", "141016.625000", "141016.628000", "141016.631000", "141016.634000", "141016.637000", "141016.641000", "141016.644000", "141016.647000", "141016.650000", "141056.591000", "141056.594000", "141056.597000", "141056.600000", "141056.603000", "141056.606000", "141056.609000", "141056.612000", "141056.615000", "141056.618000", "141056.621000", "141056.624000", "141056.627000", "141056.630000", "141056.633000", "141056.636000", "141056.640000", "141056.643000", "141056.646000", "141056.649000", "141056.652000", "141056.655000", "141056.658000", "141056.661000", "141056.664000", "141056.667000", "141136.592000", "141136.595000", "141136.598000", "141136.601000", "141136.604000", "141136.607000", "141136.610000", "141136.613000", "141136.616000", "141136.619000", "141136.622000", "141136.625000", "141136.628000", "141136.631000", "141136.634000", "141136.637000", "141136.640000", "141136.643000", "141136.646000", "141136.649000", "141136.653000", "141136.655000", "141136.658000", "141136.661000", "141136.665000", "141136.667000", "141136.670000", "141216.592000", "141216.595000", "141216.598000", "141216.601000", "141216.604000", "141216.607000", "141216.610000", "141216.614000", "141216.616000", "141216.619000", "141216.622000", "141216.625000", "141216.628000", "141216.631000", "141216.634000", "141216.638000", "141216.641000", "141216.644000", "141216.647000", "141216.650000", "141216.653000", "141216.656000", "141216.659000", "141216.662000", "141216.665000", "141216.668000", "141216.671000", "141256.591000", "141256.594000", "141256.597000", "141256.600000", "141256.603000", "141256.606000", "141256.609000", "141256.612000", "141256.615000", "141256.618000", "141256.621000", "141256.624000", "141256.627000", "141256.630000", "141256.633000", "141256.637000", "141256.640000", "141256.642000", "141256.646000", "141256.649000", "141256.652000", "141256.654000", "141256.658000", "141256.661000", "141256.664000", "141256.667000", "141256.670000", "141336.591000", "141336.594000", "141336.597000", "141336.600000", "141336.603000", "141336.607000", "141336.610000", "141336.613000", "141336.615000", "141336.619000", "141336.622000", "141336.625000", "141336.628000", "141336.631000", "141336.634000", "141336.637000", "141336.640000", "141336.643000", "141336.646000", "141336.649000", "141336.652000", "141336.655000", "141336.658000", "141336.661000", "141336.664000", "141336.667000", "141336.670000", "141416.592000", "141416.595000", "141416.598000", "141416.601000", "141416.604000", "141416.607000", "141416.610000", "141416.613000", "141416.616000", "141416.619000", "141416.622000", "141416.625000", "141416.629000", "141416.632000", "141416.635000", "141416.637000", "141416.641000", "141416.644000", "141416.647000", "141416.649000", "141416.653000", "141416.656000", "141416.659000", "141416.662000", "141416.665000", "141416.668000", "141416.671000", "141456.592000", "141456.595000", "141456.598000", "141456.601000", "141456.604000", "141456.607000", "141456.610000", "141456.614000", "141456.616000", "141456.619000", "141456.622000", "141456.626000", "141456.629000", "141456.632000", "141456.635000", "141456.638000", "141456.641000", "141456.644000", "141456.647000", "141456.650000", "141456.653000", "141456.656000", "141456.659000", "141456.662000", "141456.665000", "141456.668000", "141456.671000", "141536.591000", "141536.594000", "141536.597000", "141536.600000", "141536.604000", "141536.607000", "141536.609000", "141536.612000", "141536.616000", "141536.619000", "141536.622000", "141536.625000", "141536.628000", "141536.631000", "141536.634000", "141536.637000", "141536.640000", "141536.643000", "141536.647000", "141536.650000", "141536.653000", "141536.656000", "141536.659000", "141536.662000", "141536.665000", "141536.668000", "141616.592000", "141616.595000", "141616.598000", "141616.601000", "141616.604000", "141616.607000", "141616.610000", "141616.613000", "141616.616000", "141616.619000", "141616.622000", "141616.626000", "141616.629000", "141616.632000", "141616.635000", "141616.638000", "141616.641000", "141616.644000", "141616.647000", "141616.650000", "141616.653000", "141616.656000", "141616.659000", "141616.662000", "141616.665000", "141616.668000", "141616.671000", "141656.592000", "141656.595000", "141656.598000", "141656.601000", "141656.604000", "141656.607000", "141656.610000", "141656.613000", "141656.616000", "141656.619000", "141656.631000", "141656.634000", "141656.637000", "141656.640000", "141656.643000", "141656.646000", "141656.649000", "141656.652000", "141656.655000", "141656.658000", "141656.661000", "141656.664000", "141656.667000", "141656.670000", "141656.673000", "141656.676000", "141656.679000", "141736.591000", "141736.594000", "141736.597000", "141736.600000", "141736.603000", "141736.606000", "141736.610000", "141736.612000", "141736.615000", "141736.618000", "141736.628000", "141736.631000", "141736.634000", "141736.637000", "141736.640000", "141736.643000", "141736.646000", "141736.649000", "141736.652000", "141736.655000", "141736.658000", "141736.661000", "141736.665000", "141736.668000", "141736.670000", "141736.673000", "141736.677000", "141816.591000", "141816.594000", "141816.597000", "141816.600000", "141816.603000", "141816.607000", "141816.610000", "141816.612000", "141816.615000", "141816.619000", "141816.622000", "141816.625000", "141816.628000", "141816.631000", "141816.634000", "141816.637000", "141816.640000", "141816.643000", "141816.646000", "141816.649000", "141816.652000", "141816.655000", "141816.658000", "141816.661000", "141816.664000", "141816.667000", "141816.670000", "141846.043000", "141846.046000", "141846.049000", "141846.052000", "141846.055000", "141846.058000", "141846.061000", "141846.064000", "141846.068000", "141846.071000", "141846.074000", "141846.077000", "141846.080000", "141846.083000", "141846.086000", "141846.089000", "141846.092000", "141846.095000", "141846.099000", "141846.102000"],
