{
  "AcquisitionMatrixPE": 104,
  "AcquisitionNumber": 1,
  "AcquisitionTime": "13:55:28.377500",
  "BandwidthPerPixelPhaseEncode": 17.17,
  "BaseResolution": 104,
  "BodyPartExamined": "BRAIN",
  "CoilString": "HC1-7;NC1_2",
  "ConsistencyInfo": "N4_VE11C_LATEST_20160120",
  "ConversionSoftware": "dcm2niix",
  "ConversionSoftwareVersion": "v1.0.20200427",
  "DerivedVendorReportedEchoSpacing": 0.000560011,
  "DeviceSerialNumber": "167006",
  "DwellTime": 2.1e-06,
  "EchoTime": 0.037,
  "EchoTrainLength": 104,
  "EffectiveEchoSpacing": 0.000560011,
  "FlipAngle": 52,
  "ImageComments": "Unaliased_MB4_PE3_LB",
  "ImageOrientationPatientDICOM": [0.998802, 0.0389868, 0.0295824, -0.0287714, 0.95675, -0.289485],
  "ImageType": [
    "ORIGINAL",
    "PRIMARY",
    "M",
    "MB",
    "ND",
    "MOSAIC"
],
  "ImagingFrequency": 123.259,
  "InPlanePhaseEncodingDirectionDICOM": "COL",
  "InstitutionAddress": "Chemin_Queen-Mary_4565_Montreal_District_CA_H3W_1W5",
  "InstitutionName": "IUGM",
  "InstitutionalDepartmentName": "Department",
  "MRAcquisitionType": "2D",
  "MagneticFieldStrength": 3,
  "Manufacturer": "Siemens",
  "ManufacturersModelName": "Prisma_fit",
  "Modality": "MR",
  "MultibandAccelerationFactor": 4,
  "PartialFourier": 1,
  "PatientPosition": "HFS",
  "PercentPhaseFOV": 100,
  "PercentSampling": 100,
  "PhaseEncodingDirection": "j",
  "PhaseEncodingSteps": 104,
  "PhaseResolution": 1,
  "PixelBandwidth": 2290,
  "ProcedureStepDescription": "video_friends",
  "ProtocolName": "func_task-friends-s02e23a",
  "PulseSequenceDetails": "%CustomerSeq%_cmrr_mbep2d_bold",
  "ReceiveCoilActiveElements": "HC1-7;NC1,2",
  "ReceiveCoilName": "HeadNeck_64",
  "ReconMatrixPE": 104,
  "RepetitionTime": 1.49,
  "SAR": 0.034985,
  "ScanOptions": "FS",
  "ScanningSequence": "EP",
  "SequenceName": "epfid2d1_104",
  "SequenceVariant": "SK_SS",
  "SeriesDescription": "func_task-friends-s02e23a",
  "SeriesNumber": 9,
  "ShimSetting": [642, -7205, -8820, 663, 110, -36, 43, -5],
  "SliceThickness": 2,
  "SliceTiming": [0, 0.7825, 0.0975, 0.8825, 0.195, 0.98, 0.2925, 1.0775, 0.3925, 1.175, 0.49, 1.2725, 0.5875, 1.3725, 0.685, 0, 0.7825, 0.0975, 0.8825, 0.195, 0.98, 0.2925, 1.0775, 0.3925, 1.175, 0.49, 1.2725, 0.5875, 1.3725, 0.685, 0, 0.7825, 0.0975, 0.8825, 0.195, 0.98, 0.2925, 1.0775, 0.3925, 1.175, 0.49, 1.2725, 0.5875, 1.3725, 0.685, 0, 0.7825, 0.0975, 0.8825, 0.195, 0.98, 0.2925, 1.0775, 0.3925, 1.175, 0.49, 1.2725, 0.5875, 1.3725, 0.685],
  "SoftwareVersions": "syngo_MR_E11",
  "SpacingBetweenSlices": 2,
  "StationName": "MRC35049",
  "TaskName": "s02e23a",
  "TotalReadoutTime": 0.0576811,
  "TxRefAmp": 240.858,
  "WipMemBlock": "e6c6150d-d103-470d-8109-ba8316a768de||Sequence: R016 ve11c/master r/e634e98; Dec 19 2017 11:00:25 by eja",
  "dcmmeta_affine": [
    [-1.9976035356521606, -0.05754275247454643, 0.07917816191911697, 104.48027801513672],
    [-0.07797351479530334, 1.9134999513626099, -0.5765745639801025, -69.71080017089844],
    [0.059164859354496, 0.5789706110954285, 1.9134503602981567, -54.28975296020508],
    [0.0, 0.0, 0.0, 1.0]
],
  "dcmmeta_reorient_transform": [
    [0.0, -1.0, 0.0, 103.0],
    [1.0, 0.0, 0.0, 0.0],
    [0.0, 0.0, 1.0, 0.0],
    [0.0, 0.0, 0.0, 1.0]
],
  "dcmmeta_shape": [104, 104, 60, 456],
  "dcmmeta_slice_dim": 2,
  "dcmmeta_version": 0.6,
  "global": {
    "const": {
      "AcquisitionMatrix": [104, 0, 0, 104],
      "AngioFlag": "N",
      "BitsAllocated": 16,
      "BitsStored": 16,
      "BodyPartExamined": "BRAIN",
      "Columns": 832,
      "EchoNumbers": 1,
      "EchoTime": 37.0,
      "EchoTrainLength": 104,
      "FlipAngle": 52.0,
      "HighBit": 15,
      "ImageOrientationPatient": [0.99880173831859, 0.03898675844387, 0.02958243055928, -0.0287713761063, 0.95674995126703, -0.2894852995706],
      "ImagePositionPatient": [-804.73547672893, -852.27601682029, 194.55350662802],
      "ImageType": [
        "ORIGINAL",
        "PRIMARY",
        "M",
        "MB",
        "ND",
        "MOSAIC"
],
      "ImagedNucleus": "1H",
      "ImagingFrequency": 123.25904,
      "InPlanePhaseEncodingDirection": "COL",
      "MRAcquisitionType": "2D",
      "MagneticFieldStrength": 3.0,
      "Manufacturer": "SIEMENS",
      "ManufacturerModelName": "Prisma_fit",
      "Modality": "MR",
      "NumberOfAverages": 1.0,
      "NumberOfPhaseEncodingSteps": 104,
      "PercentPhaseFieldOfView": 100.0,
      "PercentSampling": 100.0,
      "PerformedProcedureStepStartTime": "132531.203000",
      "PhotometricInterpretation": "MONOCHROME2",
      "PixelBandwidth": 2290.0,
      "PixelRepresentation": 0,
      "PixelSpacing": [2.0, 2.0],
      "ProtocolName": "func_task-friends-s02e23a",
      "RepetitionTime": 1490.0,
      "Rows": 832,
      "SAR": 0.0349850076163,
      "SamplesPerPixel": 1,
      "ScanOptions": "FS",
      "ScanningSequence": "EP",
      "SequenceName": "epfid2d1_104",
      "SequenceVariant": [
        "SK",
        "SS"
],
      "SeriesDescription": "func_task-friends-s02e23a",
      "SeriesNumber": 9,
      "SeriesTime": "135629.997000",
      "SliceLocation": -27.707360932756,
      "SliceThickness": 2.0,
      "SmallestImagePixelValue": 0,
      "SoftwareVersions": "syngo MR E11",
      "SpacingBetweenSlices": 1.9999999694238,
      "SpecificCharacterSet": "ISO_IR 100",
      "StudyID": "1",
      "StudyTime": "132531.093000",
      "TransmitCoilName": "Body",
      "VariableFlipAngleFlag": "N",
      "WindowCenterWidthExplanation": "Algo1",
      "dBdt": 0.0},
    "slices": {}
  },
  "time": {
    "samples": {
      "AcquisitionNumber": [1, 2, 3, 4, 5, 6, 7, 8, 9, 10, 11, 12, 13, 14, 15, 16, 17, 18, 19, 20, 21, 22, 23, 24, 25, 26, 27, 28, 29, 30, 31, 32, 33, 34, 35, 36, 37, 38, 39, 40, 41, 42, 43, 44, 45, 46, 47, 48, 49, 50, 51, 52, 53, 54, 55, 56, 57, 58, 59, 60, 61, 62, 63, 64, 65, 66, 67, 68, 69, 70, 71, 72, 73, 74, 75, 76, 77, 78, 79, 80, 81, 82, 83, 84, 85, 86, 87, 88, 89, 90, 91, 92, 93, 94, 95, 96, 97, 98, 99, 100, 101, 102, 103, 104, 105, 106, 107, 108, 109, 110, 111, 112, 113, 114, 115, 116, 117, 118, 119, 120, 121, 122, 123, 124, 125, 126, 127, 128, 129, 130, 131, 132, 133, 134, 135, 136, 137, 138, 139, 140, 141, 142, 143, 144, 145, 146, 147, 148, 149, 150, 151, 152, 153, 154, 155, 156, 157, 158, 159, 160, 161, 162, 163, 164, 165, 166, 167, 168, 169, 170, 171, 172, 173, 174, 175, 176, 177, 178, 179, 180, 181, 182, 183, 184, 185, 186, 187, 188, 189, 190, 191, 192, 193, 194, 195, 196, 197, 198, 199, 200, 201, 202, 203, 204, 205, 206, 207, 208, 209, 210, 211, 212, 213, 214, 215, 216, 217, 218, 219, 220, 221, 222, 223, 224, 225, 226, 227, 228, 229, 230, 231, 232, 233, 234, 235, 236, 237, 238, 239, 240, 241, 242, 243, 244, 245, 246, 247, 248, 249, 250, 251, 252, 253, 254, 255, 256, 257, 258, 259, 260, 261, 262, 263, 264, 265, 266, 267, 268, 269, 270, 271, 272, 273, 274, 275, 276, 277, 278, 279, 280, 281, 282, 283, 284, 285, 286, 287, 288, 289, 290, 291, 292, 293, 294, 295, 296, 297, 298, 299, 300, 301, 302, 303, 304, 305, 306, 307, 308, 309, 310, 311, 312, 313, 314, 315, 316, 317, 318, 319, 320, 321, 322, 323, 324, 325, 326, 327, 328, 329, 330, 331, 332, 333, 334, 335, 336, 337, 338, 339, 340, 341, 342, 343, 344, 345, 346, 347, 348, 349, 350, 351, 352, 353, 354, 355, 356, 357, 358, 359, 360, 361, 362, 363, 364, 365, 366, 367, 368, 369, 370, 371, 372, 373, 374, 375, 376, 377, 378, 379, 380, 381, 382, 383, 384, 385, 386, 387, 388, 389, 390, 391, 392, 393, 394, 395, 396, 397, 398, 399, 400, 401, 402, 403, 404, 405, 406, 407, 408, 409, 410, 411, 412, 413, 414, 415, 416, 417, 418, 419, 420, 421, 422, 423, 424, 425, 426, 427, 428, 429, 430, 431, 432, 433, 434, 435, 436, 437, 438, 439, 440, 441, 442, 443, 444, 445, 446, 447, 448, 449, 450, 451, 452, 453, 454, 455, 456],
      "AcquisitionTime": ["135528.377500", "135529.867500", "135531.357500", "135532.847500", "135534.337500", "135535.827500", "135537.317500", "135538.807500", "135540.297500", "135541.787500", "135543.277500", "135544.767500", "135546.257500", "135547.747500", "135549.237500", "135550.727500", "135552.217500", "135553.707500", "135555.197500", "135556.687500", "135558.177500", "135559.667500", "135601.157500", "135602.647500", "135604.137500", "135605.627500", "135607.117500", "135608.607500", "135610.097500", "135611.587500", "135613.077500", "135614.567500", "135616.057500", "135617.547500", "135619.037500", "135620.527500", "135622.017500", "135623.507500", "135624.997500", "135626.487500", "135627.977500", "135629.467500", "135630.957500", "135632.447500", "135633.937500", "135635.427500", "135636.917500", "135638.407500", "135639.897500", "135641.387500", "135642.877500", "135644.367500", "135645.857500", "135647.347500", "135648.837500", "135650.327500", "135651.817500", "135653.307500", "135654.797500", "135656.287500", "135657.777500", "135659.267500", "135700.757500", "135702.247500", "135703.737500", "135705.227500", "135706.717500", "135708.207500", "135709.697500", "135711.187500", "135712.677500", "135714.167500", "135715.657500", "135717.147500", "135718.637500", "135720.127500", "135721.617500", "135723.107500", "135724.597500", "135726.087500", "135727.577500", "135729.067500", "135730.557500", "135732.047500", "135733.537500", "135735.027500", "135736.517500", "135738.007500", "135739.497500", "135740.987500", "135742.477500", "135743.967500", "135745.457500", "135746.947500", "135748.437500", "135749.927500", "135751.417500", "135752.907500", "135754.397500", "135755.887500", "135757.377500", "135758.867500", "135800.357500", "135801.847500", "135803.337500", "135804.827500", "135806.317500", "135807.807500", "135809.297500", "135810.787500", "135812.277500", "135813.767500", "135815.257500", "135816.747500", "135818.237500", "135819.727500", "135821.217500", "135822.707500", "135824.197500", "135825.687500", "135827.177500", "135828.667500", "135830.157500", "135831.647500", "135833.137500", "135834.627500", "135836.117500", "135837.607500", "135839.097500", "135840.587500", "135842.077500", "135843.567500", "135845.057500", "135846.547500", "135848.037500", "135849.527500", "135851.017500", "135852.507500", "135853.997500", "135855.487500", "135856.977500", "135858.467500", "135859.957500", "135901.447500", "135902.937500", "135904.427500", "135905.917500", "135907.407500", "135908.897500", "135910.387500", "135911.877500", "135913.367500", "135914.857500", "135916.347500", "135917.837500", "135919.327500", "135920.817500", "135922.307500", "135923.797500", "135925.287500", "135926.777500", "135928.267500", "135929.757500", "135931.247500", "135932.737500", "135934.227500", "135935.717500", "135937.207500", "135938.697500", "135940.187500", "135941.677500", "135943.167500", "135944.657500", "135946.147500", "135947.637500", "135949.127500", "135950.617500", "135952.107500", "135953.597500", "135955.087500", "135956.577500", "135958.067500", "135959.557500", "140001.047500", "140002.537500", "140004.027500", "140005.517500", "140007.007500", "140008.497500", "140009.987500", "140011.477500", "140012.967500", "140014.457500", "140015.947500", "140017.437500", "140018.927500", "140020.417500", "140021.907500", "140023.397500", "140024.887500", "140026.377500", "140027.867500", "140029.357500", "140030.847500", "140032.337500", "140033.827500", "140035.317500", "140036.807500", "140038.297500", "140039.787500", "140041.277500", "140042.767500", "140044.257500", "140045.747500", "140047.237500", "140048.727500", "140050.217500", "140051.707500", "140053.197500", "140054.687500", "140056.177500", "140057.667500", "140059.157500", "140100.647500", "140102.137500", "140103.627500", "140105.117500", "140106.607500", "140108.097500", "140109.587500", "140111.077500", "140112.567500", "140114.057500", "140115.547500", "140117.037500", "140118.527500", "140120.017500", "140121.507500", "140122.997500", "140124.487500", "140125.977500", "140127.467500", "140128.957500", "140130.447500", "140131.937500", "140133.427500", "140134.917500", "140136.407500", "140137.897500", "140139.387500", "140140.877500", "140142.367500", "140143.857500", "140145.347500", "140146.837500", "140148.327500", "140149.817500", "140151.307500", "140152.797500", "140154.287500", "140155.777500", "140157.267500", "140158.757500", "140200.247500", "140201.737500", "140203.227500", "140204.717500", "140206.207500", "140207.697500", "140209.187500", "140210.677500", "140212.167500", "140213.657500", "140215.147500", "140216.637500", "140218.127500", "140219.617500", "140221.107500", "140222.597500", "140224.087500", "140225.577500", "140227.067500", "140228.557500", "140230.047500", "140231.537500", "140233.027500", "140234.517500", "140236.007500", "140237.497500", "140238.987500", "140240.477500", "140241.967500", "140243.457500", "140244.947500", "140246.437500", "140247.927500", "140249.417500", "140250.907500", "140252.397500", "140253.887500", "140255.377500", "140256.867500", "140258.357500", "140259.847500", "140301.337500", "140302.827500", "140304.317500", "140305.807500", "140307.297500", "140308.787500", "140310.277500", "140311.767500", "140313.257500", "140314.747500", "140316.237500", "140317.727500", "140319.217500", "140320.707500", "140322.197500", "140323.687500", "140325.177500", "140326.667500", "140328.157500", "140329.647500", "140331.137500", "140332.627500", "140334.117500", "140335.607500", "140337.097500", "140338.587500", "140340.077500", "140341.567500", "140343.057500", "140344.547500", "140346.037500", "140347.527500", "140349.017500", "140350.507500", "140351.997500", "140353.487500", "140354.977500", "140356.467500", "140357.957500", "140359.447500", "140400.937500", "140402.427500", "140403.917500", "140405.407500", "140406.897500", "140408.387500", "140409.877500", "140411.367500", "140412.857500", "140414.347500", "140415.837500", "140417.327500", "140418.817500", "140420.307500", "140421.797500", "140423.287500", "140424.777500", "140426.267500", "140427.757500", "140429.247500", "140430.737500", "140432.227500", "140433.717500", "140435.207500", "140436.697500", "140438.187500", "140439.677500", "140441.167500", "140442.657500", "140444.147500", "140445.637500", "140447.127500", "140448.617500", "140450.107500", "140451.597500", "140453.087500", "140454.577500", "140456.067500", "140457.557500", "140459.047500", "140500.537500", "140502.027500", "140503.517500", "140505.007500", "140506.497500", "140507.987500", "140509.477500", "140510.967500", "140512.457500", "140513.947500", "140515.437500", "140516.927500", "140518.417500", "140519.907500", "140521.397500", "140522.887500", "140524.377500", "140525.867500", "140527.357500", "140528.847500", "140530.337500", "140531.827500", "140533.317500", "140534.807500", "140536.297500", "140537.787500", "140539.277500", "140540.767500", "140542.257500", "140543.747500", "140545.237500", "140546.727500", "140548.217500", "140549.707500", "140551.197500", "140552.687500", "140554.177500", "140555.667500", "140557.157500", "140558.647500", "140600.137500", "140601.627500", "140603.117500", "140604.607500", "140606.097500", "140607.587500", "140609.077500", "140610.567500", "140612.057500", "140613.547500", "140615.037500", "140616.527500", "140618.017500", "140619.507500", "140620.997500", "140622.487500", "140623.977500", "140625.467500", "140626.957500", "140628.447500", "140629.937500", "140631.427500", "140632.917500", "140634.407500", "140635.897500", "140637.387500", "140638.877500", "140640.367500", "140641.857500", "140643.347500", "140644.837500", "140646.327500"],
      "ContentTime": ["135630.001000", "135630.004000", "135630.007000", "135630.010000", "135630.013000", "135630.019000", "135630.022000", "135649.966000", "135649.969000", "135649.972000", "135649.975000", "135649.986000", "135649.989000", "135649.992000", "135649.995000", "135649.998000", "135650.002000", "135650.009000", "135650.012000", "135650.015000", "135650.018000", "135650.021000", "135650.024000", "135650.027000", "135650.030000", "135650.033000", "135650.036000", "135709.966000", "135709.969000", "135709.972000", "135709.975000", "135709.978000", "135709.981000", "135709.984000", "135709.987000", "135710.000000", "135710.003000", "135710.006000", "135710.009000", "135710.012000", "135710.015000", "135710.018000", "135710.021000", "135710.024000", "135710.027000", "135710.030000", "135710.033000", "135729.966000", "135729.969000", "135729.972000", "135729.975000", "135729.978000", "135729.981000", "135729.984000", "135729.987000", "135729.990000", "135729.993000", "135729.996000", "135730.000000", "135730.003000", "135730.006000", "135730.009000", "135730.012000", "135730.015000", "135730.018000", "135730.036000", "135730.039000", "135749.966000", "135749.969000", "135749.972000", "135749.975000", "135749.978000", "135749.981000", "135749.984000", "135749.990000", "135749.992000", "135749.996000", "135750.000000", "135750.003000", "135750.006000", "135750.009000", "135750.012000", "135750.015000", "135750.018000", "135750.021000", "135750.024000", "135750.027000", "135750.030000", "135809.965000", "135809.968000", "135809.971000", "135809.974000", "135809.977000", "135809.980000", "135809.983000", "135809.986000", "135809.989000", "135809.992000", "135809.995000", "135809.998000", "135810.002000", "135810.005000", "135810.008000", "135810.011000", "135810.014000", "135810.017000", "135810.020000", "135810.023000", "135849.966000", "135849.969000", "135849.972000", "135849.975000", "135849.978000", "135849.981000", "135849.984000", "135849.987000", "135849.990000", "135849.993000", "135850.008000", "135850.011000", "135850.014000", "135850.017000", "135850.020000", "135850.023000", "135850.026000", "135850.029000", "135850.033000", "135850.036000", "135850.039000", "135850.042000", "135850.045000", "135850.048000", "135850.051000", "135850.054000", "135929.966000", "135929.969000", "135929.972000", "135929.975000", "135929.978000", "135929.981000", "135929.984000", "135929.987000", "135929.990000", "135929.993000", "135929.996000", "135930.000000", "135930.003000", "135930.006000", "135930.009000", "135930.012000", "135930.015000", "135930.018000", "135930.021000", "135930.024000", "135930.027000", "135930.030000", "135930.033000", "135930.036000", "135930.039000", "135930.042000", "135930.045000", "140009.966000", "140009.969000", "140009.972000", "140009.975000", "140009.978000", "140009.981000", "140009.984000", "140009.987000", "140009.990000", "140009.993000", "140009.996000", "140010.000000", "140010.003000", "140010.006000", "140010.009000", "140010.012000", "140010.015000", "140010.018000", "140010.021000", "140010.024000", "140010.027000", "140010.030000", "140010.033000", "140010.036000", "140010.039000", "140010.042000", "140010.045000", "140029.965000", "140029.968000", "140029.971000", "140029.974000", "140029.978000", "140029.981000", "140029.984000", "140029.987000", "140029.990000", "140029.994000", "140029.997000", "140030.001000", "140030.004000", "140109.966000", "140109.969000", "140109.972000", "140109.975000", "140109.978000", "140109.981000", "140109.984000", "140109.987000", "140109.990000", "140109.993000", "140109.996000", "140110.000000", "140110.003000", "140110.006000", "140110.009000", "140110.012000", "140110.015000", "140110.018000", "140110.021000", "140110.030000", "140110.033000", "140110.036000", "140110.039000", "140110.042000", "140110.045000", "140110.048000", "140110.051000", "140149.966000", "140149.969000", "140149.972000", "140149.975000", "140149.978000", "140149.981000", "140149.984000", "140149.987000", "140149.990000", "140149.993000", "140149.995000", "140149.998000", "140150.002000", "140150.005000", "140150.009000", "140150.012000", "140150.015000", "140150.018000", "140150.021000", "140150.023000", "140150.026000", "140150.029000", "140150.033000", "140150.035000", "140150.038000", "140150.041000", "140150.045000", "140229.966000", "140229.969000", "140229.972000", "140229.975000", "140229.978000", "140229.981000", "140229.984000", "140229.987000", "140229.990000", "140229.993000", "140229.996000", "140230.000000", "140230.015000", "140230.018000", "140230.021000", "140230.024000", "140230.027000", "140230.030000", "140230.033000", "140230.036000", "140230.039000", "140230.042000", "140230.045000", "140230.048000", "140230.051000", "140230.054000", "140230.057000", "140309.966000", "140309.969000", "140309.972000", "140309.975000", "140309.978000", "140309.981000", "140309.984000", "140309.987000", "140309.990000", "140309.993000", "140309.996000", "140310.000000", "140310.003000", "140310.006000", "140310.009000", "140310.012000", "140310.015000", "140310.018000", "140310.021000", "140310.024000", "140310.027000", "140310.030000", "140310.033000", "140310.036000", "140310.039000", "140310.042000", "140310.045000", "140349.966000", "140349.969000", "140349.972000", "140349.975000", "140349.978000", "140349.981000", "140349.984000", "140349.987000", "140349.990000", "140349.993000", "140349.996000", "140350.000000", "140350.003000", "140350.006000", "140350.009000", "140350.012000", "140350.015000", "140350.018000", "140350.021000", "140350.024000", "140350.027000", "140350.030000", "140350.033000", "140350.036000", "140350.039000", "140350.042000", "140350.045000", "140429.966000", "140429.969000", "140429.972000", "140429.975000", "140429.978000", "140429.981000", "140429.984000", "140429.987000", "140429.990000", "140429.993000", "140429.996000", "140430.000000", "140430.003000", "140430.006000", "140430.009000", "140430.012000", "140430.015000", "140430.018000", "140430.021000", "140430.024000", "140430.027000", "140430.030000", "140430.033000", "140430.036000", "140430.039000", "140430.042000", "140430.045000", "140509.965000", "140509.968000", "140509.971000", "140509.975000", "140509.979000", "140509.982000", "140509.984000", "140509.988000", "140509.991000", "140509.993000", "140509.996000", "140510.000000", "140510.003000", "140510.006000", "140510.009000", "140510.012000", "140510.015000", "140510.018000", "140510.021000", "140510.024000", "140510.027000", "140510.030000", "140510.033000", "140510.036000", "140510.039000", "140510.042000", "140549.966000", "140549.969000", "140549.972000", "140549.981000", "140549.984000", "140549.987000", "140549.990000", "140549.993000", "140549.996000", "140550.000000", "140550.003000", "140550.006000", "140550.009000", "140550.012000", "140550.015000", "140550.018000", "140550.021000", "140550.024000", "140550.027000", "140550.030000", "140550.033000", "140550.036000", "140550.039000", "140550.042000", "140550.045000", "140550.048000", "140550.051000", "140629.966000", "140629.969000", "140629.972000", "140629.975000", "140629.978000", "140629.981000", "140629.984000", "140629.987000", "140629.990000", "140629.993000", "140629.996000", "140630.000000", "140630.004000", "140630.007000", "140630.010000", "140630.013000", "140630.016000", "140630.019000", "140630.022000", "140630.025000", "140630.027000", "140630.030000", "140630.034000", "140630.036000", "140630.039000", "140630.042000", "140630.046000", "140648.494000", "140648.498000", "140648.501000", "140648.504000", "140648.507000", "140648.510000", "140648.513000", "140648.516000", "140648.519000", "140648.522000", "140648.525000", "140648.528000", "140648.531000"],
