{
  "AcquisitionMatrixPE": 104,
  "AcquisitionNumber": 1,
  "AcquisitionTime": "15:49:42.772500",
  "BandwidthPerPixelPhaseEncode": 17.17,
  "BaseResolution": 104,
  "BodyPartExamined": "BRAIN",
  "CoilCombinationMethod": "Sum of Squares",
  "ConsistencyInfo": "N4_VE11C_LATEST_20160120",
  "ConversionSoftware": "dcm2niix",
  "ConversionSoftwareVersion": "v1.0.20211006",
  "DerivedVendorReportedEchoSpacing": 0.000560011,
  "DeviceSerialNumber": "167006",
  "DwellTime": 2.1e-06,
  "EchoTime": 0.037,
  "EchoTrainLength": 104,
  "EffectiveEchoSpacing": 0.000560011,
  "FlipAngle": 52,
  "HeudiconvVersion": "0.11.3.post9+gc939bf8",
  "ImageComments": "Unaliased MB4/PE3/LB",
  "ImageOrientationPatientDICOM": [0.998997, -0.0337659, -0.0294119, 0.0216238, 0.938923, -0.343448],
  "ImageOrientationText": "Tra>Cor(-20.0)>Sag(-2.2)",
  "ImageType": [
    "ORIGINAL",
    "PRIMARY",
    "M",
    "MB",
    "ND",
    "MOSAIC"
],
  "ImagingFrequency": 123.259,
  "InPlanePhaseEncodingDirectionDICOM": "COL",
  "InstitutionAddress": "Chemin Queen-Mary 4565,Montreal,District,CA,H3W 1W5",
  "InstitutionName": "IUGM",
  "InstitutionalDepartmentName": "Department",
  "MRAcquisitionType": "2D",
  "MagneticFieldStrength": 3,
  "Manufacturer": "Siemens",
  "ManufacturersModelName": "Prisma_fit",
  "MatrixCoilMode": "SENSE",
  "Modality": "MR",
  "MultibandAccelerationFactor": 4,
  "PartialFourier": 1,
  "PatientPosition": "HFS",
  "PercentPhaseFOV": 100,
  "PercentSampling": 100,
  "PhaseEncodingDirection": "j",
  "PhaseEncodingSteps": 104,
  "PhaseResolution": 1,
  "PixelBandwidth": 2290,
  "ProcedureStepDescription": "video^friends",
  "ProtocolName": "func_task-friends-s06e03a",
  "PulseSequenceDetails": "%CustomerSeq%\\cmrr_mbep2d_bold",
  "ReceiveCoilActiveElements": "HC1-7;NC1,2",
  "ReceiveCoilName": "HeadNeck_64",
  "ReconMatrixPE": 104,
  "RepetitionTime": 1.49,
  "SAR": 0.0634832,
  "ScanOptions": "FS",
  "ScanningSequence": "EP",
  "SequenceName": "epfid2d1_104",
  "SequenceVariant": "SK\\SS",
  "SeriesDescription": "func_task-friends-s06e03a",
  "SeriesNumber": 9,
  "ShimSetting": [617, -7249, -8840, 567, -30, -240, -20, -32],
  "SliceThickness": 2,
  "SliceTiming": [0, 0.785, 0.0975, 0.8825, 0.1975, 0.98, 0.295, 1.0775, 0.3925, 1.1775, 0.49, 1.275, 0.5875, 1.3725, 0.6875, 0, 0.785, 0.0975, 0.8825, 0.1975, 0.98, 0.295, 1.0775, 0.3925, 1.1775, 0.49, 1.275, 0.5875, 1.3725, 0.6875, 0, 0.785, 0.0975, 0.8825, 0.1975, 0.98, 0.295, 1.0775, 0.3925, 1.1775, 0.49, 1.275, 0.5875, 1.3725, 0.6875, 0, 0.785, 0.0975, 0.8825, 0.1975, 0.98, 0.295, 1.0775, 0.3925, 1.1775, 0.49, 1.275, 0.5875, 1.3725, 0.6875],
  "SoftwareVersions": "syngo MR E11",
  "SpacingBetweenSlices": 2,
  "StationName": "MRC35049",
  "TaskName": "s06e03a",
  "TotalReadoutTime": 0.0576811,
  "TxRefAmp": 274.36,
  "WipMemBlock": "bfc0ce95-5d0f-4e78-b678-c326bbef74f1||Sequence: R016 ve11c/master r/e634e98; Dec 19 2017 11:00:25 by eja",
  "dcmmeta_affine": [
    [-1.99799382686615, 0.043247636407613754, -0.0784246101975441, 101.1778564453125],
    [0.06753182411193848, 1.877845287322998, -0.6849355697631836, -76.56069946289062],
    [-0.05882371962070465, 0.686896562576294, 1.8774218559265137, -71.2735595703125],
    [0.0, 0.0, 0.0, 1.0]
],
  "dcmmeta_reorient_transform": [
    [0.0, -1.0, 0.0, 103.0],
    [1.0, 0.0, 0.0, 0.0],
    [0.0, 0.0, 1.0, 0.0],
    [0.0, 0.0, 0.0, 1.0]
],
  "dcmmeta_shape": [104, 104, 60, 439],
  "dcmmeta_slice_dim": 2,
  "dcmmeta_version": 0.6,
  "global": {
    "const": {
      "AcquisitionMatrix": [104, 0, 0, 104],
      "AngioFlag": "N",
      "BitsAllocated": 16,
      "BitsStored": 16,
      "BodyPartExamined": "BRAIN",
      "Columns": 832,
      "EchoNumbers": 1,
      "EchoTime": 37.0,
      "EchoTrainLength": 104,
      "FlipAngle": 52.0,
      "HighBit": 15,
      "ImageOrientationPatient": [0.99899689970147, -0.0337659134665, -0.0294118594215, 0.02162381812486, 0.93892261991936, -0.3434482847438],
      "ImagePositionPatient": [-848.64424653193, -775.81144147536, 270.91897313648],
      "ImageType": [
        "ORIGINAL",
        "PRIMARY",
        "M",
        "MB",
        "ND",
        "MOSAIC"
],
      "ImagedNucleus": "1H",
      "ImagingFrequency": 123.258813,
      "InPlanePhaseEncodingDirection": "COL",
      "MRAcquisitionType": "2D",
      "MagneticFieldStrength": 3.0,
      "Manufacturer": "SIEMENS",
      "ManufacturerModelName": "Prisma_fit",
      "Modality": "MR",
      "NumberOfAverages": 1.0,
      "NumberOfPhaseEncodingSteps": 104,
      "PercentPhaseFieldOfView": 100.0,
      "PercentSampling": 100.0,
      "PerformedProcedureStepStartTime": "153410.399000",
      "PhotometricInterpretation": "MONOCHROME2",
      "PixelBandwidth": 2290.0,
      "PixelRepresentation": 0,
      "PixelSpacing": [2.0, 2.0],
      "ProtocolName": "func_task-friends-s06e03a",
      "RepetitionTime": 1490.0,
      "Rows": 832,
      "SAR": 0.06348316835565,
      "SamplesPerPixel": 1,
      "ScanOptions": "FS",
      "ScanningSequence": "EP",
      "SequenceName": "epfid2d1_104",
      "SequenceVariant": [
        "SK",
        "SS"
],
      "SeriesDescription": "func_task-friends-s06e03a",
      "SeriesNumber": 9,
      "SeriesTime": "155056.408000",
      "SliceLocation": -44.653112929705,
      "SliceThickness": 2.0,
      "SmallestImagePixelValue": 0,
      "SoftwareVersions": "syngo MR E11",
      "SpacingBetweenSlices": 2.0000000230914,
      "SpecificCharacterSet": "ISO_IR 100",
      "StudyID": "1",
      "StudyTime": "153410.342000",
      "TransmitCoilName": "Body",
      "VariableFlipAngleFlag": "N",
      "WindowCenterWidthExplanation": "Algo1",
      "dBdt": 0.0},
    "slices": {}
  },
  "time": {
    "samples": {
      "AcquisitionNumber": [1, 2, 3, 4, 5, 6, 7, 8, 9, 10, 11, 12, 13, 14, 15, 16, 17, 18, 19, 20, 21, 22, 23, 24, 25, 26, 27, 28, 29, 30, 31, 32, 33, 34, 35, 36, 37, 38, 39, 40, 41, 42, 43, 44, 45, 46, 47, 48, 49, 50, 51, 52, 53, 54, 55, 56, 57, 58, 59, 60, 61, 62, 63, 64, 65, 66, 67, 68, 69, 70, 71, 72, 73, 74, 75, 76, 77, 78, 79, 80, 81, 82, 83, 84, 85, 86, 87, 88, 89, 90, 91, 92, 93, 94, 95, 96, 97, 98, 99, 100, 101, 102, 103, 104, 105, 106, 107, 108, 109, 110, 111, 112, 113, 114, 115, 116, 117, 118, 119, 120, 121, 122, 123, 124, 125, 126, 127, 128, 129, 130, 131, 132, 133, 134, 135, 136, 137, 138, 139, 140, 141, 142, 143, 144, 145, 146, 147, 148, 149, 150, 151, 152, 153, 154, 155, 156, 157, 158, 159, 160, 161, 162, 163, 164, 165, 166, 167, 168, 169, 170, 171, 172, 173, 174, 175, 176, 177, 178, 179, 180, 181, 182, 183, 184, 185, 186, 187, 188, 189, 190, 191, 192, 193, 194, 195, 196, 197, 198, 199, 200, 201, 202, 203, 204, 205, 206, 207, 208, 209, 210, 211, 212, 213, 214, 215, 216, 217, 218, 219, 220, 221, 222, 223, 224, 225, 226, 227, 228, 229, 230, 231, 232, 233, 234, 235, 236, 237, 238, 239, 240, 241, 242, 243, 244, 245, 246, 247, 248, 249, 250, 251, 252, 253, 254, 255, 256, 257, 258, 259, 260, 261, 262, 263, 264, 265, 266, 267, 268, 269, 270, 271, 272, 273, 274, 275, 276, 277, 278, 279, 280, 281, 282, 283, 284, 285, 286, 287, 288, 289, 290, 291, 292, 293, 294, 295, 296, 297, 298, 299, 300, 301, 302, 303, 304, 305, 306, 307, 308, 309, 310, 311, 312, 313, 314, 315, 316, 317, 318, 319, 320, 321, 322, 323, 324, 325, 326, 327, 328, 329, 330, 331, 332, 333, 334, 335, 336, 337, 338, 339, 340, 341, 342, 343, 344, 345, 346, 347, 348, 349, 350, 351, 352, 353, 354, 355, 356, 357, 358, 359, 360, 361, 362, 363, 364, 365, 366, 367, 368, 369, 370, 371, 372, 373, 374, 375, 376, 377, 378, 379, 380, 381, 382, 383, 384, 385, 386, 387, 388, 389, 390, 391, 392, 393, 394, 395, 396, 397, 398, 399, 400, 401, 402, 403, 404, 405, 406, 407, 408, 409, 410, 411, 412, 413, 414, 415, 416, 417, 418, 419, 420, 421, 422, 423, 424, 425, 426, 427, 428, 429, 430, 431, 432, 433, 434, 435, 436, 437, 438, 439],
      "AcquisitionTime": ["154942.772500", "154944.262500", "154945.752500", "154947.242500", "154948.732500", "154950.222500", "154951.712500", "154953.202500", "154954.692500", "154956.182500", "154957.672500", "154959.162500", "155000.652500", "155002.142500", "155003.632500", "155005.122500", "155006.612500", "155008.102500", "155009.592500", "155011.082500", "155012.572500", "155014.062500", "155015.552500", "155017.042500", "155018.532500", "155020.022500", "155021.512500", "155023.002500", "155024.492500", "155025.982500", "155027.472500", "155028.962500", "155030.452500", "155031.942500", "155033.432500", "155034.922500", "155036.412500", "155037.902500", "155039.392500", "155040.882500", "155042.372500", "155043.862500", "155045.352500", "155046.842500", "155048.332500", "155049.822500", "155051.312500", "155052.802500", "155054.292500", "155055.782500", "155057.272500", "155058.762500", "155100.252500", "155101.742500", "155103.232500", "155104.722500", "155106.212500", "155107.702500", "155109.192500", "155110.682500", "155112.172500", "155113.662500", "155115.152500", "155116.642500", "155118.132500", "155119.622500", "155121.112500", "155122.602500", "155124.092500", "155125.582500", "155127.072500", "155128.562500", "155130.052500", "155131.542500", "155133.032500", "155134.522500", "155136.012500", "155137.502500", "155138.992500", "155140.482500", "155141.972500", "155143.462500", "155144.952500", "155146.442500", "155147.932500", "155149.422500", "155150.912500", "155152.402500", "155153.892500", "155155.382500", "155156.872500", "155158.362500", "155159.852500", "155201.342500", "155202.832500", "155204.322500", "155205.812500", "155207.302500", "155208.792500", "155210.282500", "155211.772500", "155213.262500", "155214.752500", "155216.242500", "155217.732500", "155219.222500", "155220.712500", "155222.202500", "155223.692500", "155225.182500", "155226.672500", "155228.162500", "155229.652500", "155231.142500", "155232.632500", "155234.122500", "155235.612500", "155237.102500", "155238.592500", "155240.082500", "155241.572500", "155243.062500", "155244.552500", "155246.042500", "155247.532500", "155249.022500", "155250.512500", "155252.002500", "155253.492500", "155254.982500", "155256.472500", "155257.962500", "155259.452500", "155300.942500", "155302.432500", "155303.922500", "155305.412500", "155306.902500", "155308.392500", "155309.882500", "155311.372500", "155312.862500", "155314.352500", "155315.842500", "155317.332500", "155318.822500", "155320.312500", "155321.802500", "155323.292500", "155324.782500", "155326.272500", "155327.762500", "155329.252500", "155330.742500", "155332.232500", "155333.722500", "155335.212500", "155336.702500", "155338.192500", "155339.682500", "155341.172500", "155342.662500", "155344.152500", "155345.642500", "155347.132500", "155348.622500", "155350.112500", "155351.602500", "155353.092500", "155354.582500", "155356.072500", "155357.562500", "155359.052500", "155400.542500", "155402.032500", "155403.522500", "155405.012500", "155406.502500", "155407.992500", "155409.482500", "155410.972500", "155412.462500", "155413.952500", "155415.442500", "155416.932500", "155418.422500", "155419.912500", "155421.402500", "155422.892500", "155424.382500", "155425.872500", "155427.362500", "155428.852500", "155430.342500", "155431.832500", "155433.322500", "155434.812500", "155436.302500", "155437.792500", "155439.282500", "155440.772500", "155442.262500", "155443.752500", "155445.242500", "155446.732500", "155448.222500", "155449.712500", "155451.202500", "155452.692500", "155454.182500", "155455.672500", "155457.162500", "155458.652500", "155500.142500", "155501.632500", "155503.122500", "155504.612500", "155506.102500", "155507.592500", "155509.082500", "155510.572500", "155512.062500", "155513.552500", "155515.042500", "155516.532500", "155518.022500", "155519.512500", "155521.002500", "155522.492500", "155523.982500", "155525.472500", "155526.962500", "155528.452500", "155529.942500", "155531.432500", "155532.922500", "155534.412500", "155535.902500", "155537.392500", "155538.882500", "155540.372500", "155541.862500", "155543.352500", "155544.842500", "155546.332500", "155547.822500", "155549.312500", "155550.802500", "155552.292500", "155553.782500", "155555.272500", "155556.762500", "155558.252500", "155559.742500", "155601.232500", "155602.722500", "155604.212500", "155605.702500", "155607.192500", "155608.682500", "155610.172500", "155611.662500", "155613.152500", "155614.642500", "155616.132500", "155617.622500", "155619.112500", "155620.602500", "155622.092500", "155623.582500", "155625.072500", "155626.562500", "155628.052500", "155629.542500", "155631.032500", "155632.522500", "155634.012500", "155635.502500", "155636.992500", "155638.482500", "155639.972500", "155641.462500", "155642.952500", "155644.442500", "155645.932500", "155647.422500", "155648.912500", "155650.402500", "155651.892500", "155653.382500", "155654.872500", "155656.362500", "155657.852500", "155659.342500", "155700.832500", "155702.322500", "155703.812500", "155705.302500", "155706.792500", "155708.282500", "155709.772500", "155711.262500", "155712.752500", "155714.242500", "155715.732500", "155717.222500", "155718.712500", "155720.202500", "155721.692500", "155723.182500", "155724.672500", "155726.162500", "155727.652500", "155729.142500", "155730.632500", "155732.122500", "155733.612500", "155735.102500", "155736.592500", "155738.082500", "155739.572500", "155741.062500", "155742.552500", "155744.042500", "155745.532500", "155747.022500", "155748.512500", "155750.002500", "155751.492500", "155752.982500", "155754.472500", "155755.962500", "155757.452500", "155758.942500", "155800.432500", "155801.922500", "155803.412500", "155804.902500", "155806.392500", "155807.882500", "155809.372500", "155810.862500", "155812.352500", "155813.842500", "155815.332500", "155816.822500", "155818.312500", "155819.802500", "155821.292500", "155822.782500", "155824.272500", "155825.762500", "155827.252500", "155828.742500", "155830.232500", "155831.722500", "155833.212500", "155834.702500", "155836.192500", "155837.682500", "155839.172500", "155840.662500", "155842.152500", "155843.642500", "155845.132500", "155846.622500", "155848.112500", "155849.602500", "155851.092500", "155852.582500", "155854.072500", "155855.562500", "155857.052500", "155858.542500", "155900.032500", "155901.522500", "155903.012500", "155904.502500", "155905.992500", "155907.482500", "155908.972500", "155910.462500", "155911.952500", "155913.442500", "155914.932500", "155916.422500", "155917.912500", "155919.402500", "155920.892500", "155922.382500", "155923.872500", "155925.362500", "155926.852500", "155928.342500", "155929.832500", "155931.322500", "155932.812500", "155934.302500", "155935.792500", "155937.282500", "155938.772500", "155940.262500", "155941.752500", "155943.242500", "155944.732500", "155946.222500", "155947.712500", "155949.202500", "155950.692500", "155952.182500", "155953.672500", "155955.162500", "155956.652500", "155958.142500", "155959.632500", "160001.122500", "160002.612500", "160004.102500", "160005.592500", "160007.082500", "160008.572500", "160010.062500", "160011.552500", "160013.042500", "160014.532500", "160016.022500", "160017.512500", "160019.002500", "160020.492500", "160021.982500", "160023.472500", "160024.962500", "160026.452500", "160027.942500", "160029.432500", "160030.922500", "160032.412500", "160033.902500", "160035.392500"],
      "ContentTime": ["155056.411000", "155056.414000", "155056.417000", "155056.420000", "155056.423000", "155056.426000", "155056.429000", "155056.432000", "155056.434000", "155056.437000", "155056.440000", "155056.443000", "155056.446000", "155056.458000", "155056.467000", "155056.470000", "155056.480000", "155056.483000", "155056.486000", "155056.488000", "155116.369000", "155116.372000", "155116.375000", "155116.378000", "155116.380000", "155116.383000", "155116.386000", "155116.389000", "155116.392000", "155116.395000", "155116.398000", "155116.401000", "155116.403000", "155116.406000", "155116.409000", "155116.412000", "155116.415000", "155116.418000", "155116.421000", "155116.424000", "155136.370000", "155136.373000", "155136.376000", "155136.379000", "155136.386000", "155136.388000", "155136.391000", "155136.394000", "155136.397000", "155136.400000", "155136.403000", "155136.412000", "155136.415000", "155136.417000", "155136.420000", "155136.423000", "155136.426000", "155136.429000", "155136.432000", "155136.435000", "155136.437000", "155156.370000", "155156.373000", "155156.380000", "155156.383000", "155156.386000", "155156.389000", "155156.392000", "155156.395000", "155156.397000", "155156.400000", "155156.403000", "155156.406000", "155156.409000", "155156.412000", "155156.414000", "155156.417000", "155156.420000", "155156.423000", "155156.426000", "155156.428000", "155216.370000", "155216.373000", "155216.376000", "155216.378000", "155216.381000", "155216.384000", "155216.387000", "155216.390000", "155216.393000", "155216.396000", "155216.399000", "155216.401000", "155216.404000", "155216.407000", "155216.410000", "155216.413000", "155216.416000", "155216.419000", "155216.422000", "155216.425000", "155256.370000", "155256.373000", "155256.376000", "155256.386000", "155256.389000", "155256.392000", "155256.395000", "155256.398000", "155256.400000", "155256.403000", "155256.406000", "155256.409000", "155256.412000", "155256.415000", "155256.418000", "155256.421000", "155256.423000", "155256.426000", "155256.429000", "155256.432000", "155256.435000", "155256.438000", "155256.441000", "155256.443000", "155256.446000", "155256.449000", "155256.452000", "155256.455000", "155336.369000", "155336.372000", "155336.375000", "155336.378000", "155336.381000", "155336.383000", "155336.386000", "155336.389000", "155336.392000", "155336.395000", "155336.398000", "155336.401000", "155336.404000", "155336.407000", "155336.409000", "155336.412000", "155336.415000", "155336.418000", "155336.421000", "155336.424000", "155336.427000", "155336.430000", "155336.432000", "155336.435000", "155336.438000", "155336.441000", "155336.444000", "155416.370000", "155416.373000", "155416.376000", "155416.379000", "155416.381000", "155416.384000", "155416.387000", "155416.394000", "155416.397000", "155416.400000", "155416.403000", "155416.406000", "155416.408000", "155416.412000", "155416.414000", "155416.417000", "155416.420000", "155416.423000", "155416.426000", "155416.429000", "155416.431000", "155416.434000", "155416.437000", "155416.440000", "155416.443000", "155416.451000", "155416.462000", "155436.370000", "155436.373000", "155436.376000", "155436.379000", "155436.382000", "155436.385000", "155436.387000", "155436.390000", "155436.393000", "155436.396000", "155436.399000", "155436.402000", "155436.405000", "155516.370000", "155516.373000", "155516.376000", "155516.379000", "155516.381000", "155516.384000", "155516.387000", "155516.390000", "155516.393000", "155516.396000", "155516.399000", "155516.402000", "155516.404000", "155516.407000", "155516.410000", "155516.413000", "155516.416000", "155516.419000", "155516.422000", "155516.425000", "155516.428000", "155516.430000", "155516.433000", "155516.436000", "155516.439000", "155516.442000", "155516.444000", "155556.369000", "155556.372000", "155556.375000", "155556.378000", "155556.380000", "155556.384000", "155556.386000", "155556.389000", "155556.392000", "155556.395000", "155556.398000", "155556.401000", "155556.404000", "155556.407000", "155556.410000", "155556.412000", "155556.415000", "155556.418000", "155556.421000", "155556.424000", "155556.427000", "155556.436000", "155556.439000", "155556.441000", "155556.445000", "155556.448000", "155556.451000", "155636.370000", "155636.373000", "155636.376000", "155636.379000", "155636.382000", "155636.384000", "155636.387000", "155636.391000", "155636.394000", "155636.396000", "155636.407000", "155636.410000", "155636.413000", "155636.416000", "155636.418000", "155636.421000", "155636.424000", "155636.427000", "155636.430000", "155636.433000", "155636.436000", "155636.438000", "155636.441000", "155636.444000", "155636.447000", "155636.450000", "155636.453000", "155716.370000", "155716.373000", "155716.376000", "155716.378000", "155716.381000", "155716.384000", "155716.387000", "155716.390000", "155716.393000", "155716.396000", "155716.399000", "155716.402000", "155716.405000", "155716.408000", "155716.411000", "155716.413000", "155716.416000", "155716.419000", "155716.422000", "155716.425000", "155716.428000", "155716.430000", "155716.433000", "155716.436000", "155716.439000", "155716.442000", "155756.369000", "155756.372000", "155756.375000", "155756.378000", "155756.380000", "155756.383000", "155756.386000", "155756.389000", "155756.392000", "155756.395000", "155756.398000", "155756.401000", "155756.404000", "155756.406000", "155756.409000", "155756.412000", "155756.415000", "155756.418000", "155756.421000", "155756.424000", "155756.426000", "155756.429000", "155756.432000", "155756.435000", "155756.438000", "155756.441000", "155756.444000", "155836.370000", "155836.373000", "155836.376000", "155836.379000", "155836.382000", "155836.385000", "155836.388000", "155836.391000", "155836.393000", "155836.396000", "155836.399000", "155836.402000", "155836.405000", "155836.408000", "155836.411000", "155836.413000", "155836.416000", "155836.419000", "155836.422000", "155836.425000", "155836.427000", "155836.430000", "155836.433000", "155836.436000", "155836.439000", "155836.441000", "155836.444000", "155916.370000", "155916.373000", "155916.376000", "155916.379000", "155916.382000", "155916.385000", "155916.387000", "155916.390000", "155916.393000", "155916.396000", "155916.399000", "155916.402000", "155916.405000", "155916.408000", "155916.410000", "155916.413000", "155916.416000", "155916.419000", "155916.430000", "155916.433000", "155916.436000", "155916.453000", "155916.456000", "155916.459000", "155916.462000", "155916.465000", "155916.468000", "155956.370000", "155956.373000", "155956.376000", "155956.379000", "155956.382000", "155956.385000", "155956.387000", "155956.390000", "155956.393000", "155956.396000", "155956.399000", "155956.402000", "155956.405000", "155956.408000", "155956.410000", "155956.413000", "155956.416000", "155956.419000", "155956.422000", "155956.424000", "155956.427000", "155956.430000", "155956.433000", "155956.436000", "155956.439000", "155956.441000", "155956.444000", "160036.370000", "160036.373000", "160036.376000", "160036.379000", "160036.381000", "160036.384000", "160036.387000", "160036.390000", "160036.393000", "160036.396000", "160036.399000", "160036.401000", "160036.404000", "160036.407000", "160036.410000", "160036.413000", "160036.416000", "160036.418000", "160036.429000", "160036.431000", "160036.434000", "160036.437000", "160036.440000", "160036.443000", "160036.446000", "160036.449000", "160036.452000", "160037.674000"],
