{
  "AcquisitionMatrixPE": 104,
  "AcquisitionNumber": 1,
  "AcquisitionTime": "16:30:28.370000",
  "BandwidthPerPixelPhaseEncode": 17.17,
  "BaseResolution": 104,
  "BodyPartExamined": "BRAIN",
  "CoilCombinationMethod": "Sum of Squares",
  "ConsistencyInfo": "N4_VE11C_LATEST_20160120",
  "ConversionSoftware": "dcm2niix",
  "ConversionSoftwareVersion": "v1.0.20211006",
  "DerivedVendorReportedEchoSpacing": 0.000560011,
  "DeviceSerialNumber": "167006",
  "DwellTime": 2.1e-06,
  "EchoTime": 0.037,
  "EchoTrainLength": 104,
  "EffectiveEchoSpacing": 0.000560011,
  "FlipAngle": 52,
  "HeudiconvVersion": "0.11.3.post9+gc939bf8",
  "ImageComments": "Unaliased MB4/PE3/LB",
  "ImageOrientationPatientDICOM": [0.998997, -0.0337659, -0.0294119, 0.0216238, 0.938923, -0.343448],
  "ImageOrientationText": "Tra>Cor(-20.0)>Sag(-2.2)",
  "ImageType": [
    "ORIGINAL",
    "PRIMARY",
    "M",
    "MB",
    "ND",
    "MOSAIC"
],
  "ImagingFrequency": 123.259,
  "InPlanePhaseEncodingDirectionDICOM": "COL",
  "InstitutionAddress": "Chemin Queen-Mary 4565,Montreal,District,CA,H3W 1W5",
  "InstitutionName": "IUGM",
  "InstitutionalDepartmentName": "Department",
  "MRAcquisitionType": "2D",
  "MagneticFieldStrength": 3,
  "Manufacturer": "Siemens",
  "ManufacturersModelName": "Prisma_fit",
  "MatrixCoilMode": "SENSE",
  "Modality": "MR",
  "MultibandAccelerationFactor": 4,
  "PartialFourier": 1,
  "PatientPosition": "HFS",
  "PercentPhaseFOV": 100,
  "PercentSampling": 100,
  "PhaseEncodingDirection": "j",
  "PhaseEncodingSteps": 104,
  "PhaseResolution": 1,
  "PixelBandwidth": 2290,
  "ProcedureStepDescription": "video^friends",
  "ProtocolName": "func_task-friends-s06e04b",
  "PulseSequenceDetails": "%CustomerSeq%\\cmrr_mbep2d_bold",
  "ReceiveCoilActiveElements": "HC1-7;NC1,2",
  "ReceiveCoilName": "HeadNeck_64",
  "ReconMatrixPE": 104,
  "RepetitionTime": 1.49,
  "SAR": 0.0635042,
  "ScanOptions": "FS",
  "ScanningSequence": "EP",
  "SequenceName": "epfid2d1_104",
  "SequenceVariant": "SK\\SS",
  "SeriesDescription": "func_task-friends-s06e04b",
  "SeriesNumber": 15,
  "ShimSetting": [617, -7249, -8840, 567, -30, -240, -20, -32],
  "SliceThickness": 2,
  "SliceTiming": [0, 0.7825, 0.0975, 0.88, 0.195, 0.98, 0.2925, 1.0775, 0.39, 1.175, 0.49, 1.2725, 0.5875, 1.37, 0.685, 0, 0.7825, 0.0975, 0.88, 0.195, 0.98, 0.2925, 1.0775, 0.39, 1.175, 0.49, 1.2725, 0.5875, 1.37, 0.685, 0, 0.7825, 0.0975, 0.88, 0.195, 0.98, 0.2925, 1.0775, 0.39, 1.175, 0.49, 1.2725, 0.5875, 1.37, 0.685, 0, 0.7825, 0.0975, 0.88, 0.195, 0.98, 0.2925, 1.0775, 0.39, 1.175, 0.49, 1.2725, 0.5875, 1.37, 0.685],
  "SoftwareVersions": "syngo MR E11",
  "SpacingBetweenSlices": 2,
  "StationName": "MRC35049",
  "TaskName": "s06e04b",
  "TotalReadoutTime": 0.0576811,
  "TxRefAmp": 274.36,
  "WipMemBlock": "967c4144-48e2-48b3-82f6-53c01048866f||Sequence: R016 ve11c/master r/e634e98; Dec 19 2017 11:00:25 by eja",
  "dcmmeta_affine": [
    [-1.99799382686615, 0.043247636407613754, -0.0784246101975441, 101.1778564453125],
    [0.06753182411193848, 1.877845287322998, -0.6849355697631836, -76.56069946289062],
    [-0.05882371962070465, 0.686896562576294, 1.8774218559265137, -71.2735595703125],
    [0.0, 0.0, 0.0, 1.0]
],
  "dcmmeta_reorient_transform": [
    [0.0, -1.0, 0.0, 103.0],
    [1.0, 0.0, 0.0, 0.0],
    [0.0, 0.0, 1.0, 0.0],
    [0.0, 0.0, 0.0, 1.0]
],
  "dcmmeta_shape": [104, 104, 60, 474],
  "dcmmeta_slice_dim": 2,
  "dcmmeta_version": 0.6,
  "global": {
    "const": {
      "AcquisitionMatrix": [104, 0, 0, 104],
      "AngioFlag": "N",
      "BitsAllocated": 16,
      "BitsStored": 16,
      "BodyPartExamined": "BRAIN",
      "Columns": 832,
      "EchoNumbers": 1,
      "EchoTime": 37.0,
      "EchoTrainLength": 104,
      "FlipAngle": 52.0,
      "HighBit": 15,
      "ImageOrientationPatient": [0.99899689970147, -0.0337659134665, -0.0294118594215, 0.02162381812486, 0.93892261991936, -0.3434482847438],
      "ImagePositionPatient": [-848.64424653193, -775.81144147536, 270.91897313648],
      "ImageType": [
        "ORIGINAL",
        "PRIMARY",
        "M",
        "MB",
        "ND",
        "MOSAIC"
],
      "ImagedNucleus": "1H",
      "ImagingFrequency": 123.258832,
      "InPlanePhaseEncodingDirection": "COL",
      "MRAcquisitionType": "2D",
      "MagneticFieldStrength": 3.0,
      "Manufacturer": "SIEMENS",
      "ManufacturerModelName": "Prisma_fit",
      "Modality": "MR",
      "NumberOfAverages": 1.0,
      "NumberOfPhaseEncodingSteps": 104,
      "PercentPhaseFieldOfView": 100.0,
      "PercentSampling": 100.0,
      "PerformedProcedureStepStartTime": "153410.399000",
      "PhotometricInterpretation": "MONOCHROME2",
      "PixelBandwidth": 2290.0,
      "PixelRepresentation": 0,
      "PixelSpacing": [2.0, 2.0],
      "ProtocolName": "func_task-friends-s06e04b",
      "RepetitionTime": 1490.0,
      "Rows": 832,
      "SAR": 0.06350424919137,
      "SamplesPerPixel": 1,
      "ScanOptions": "FS",
      "ScanningSequence": "EP",
      "SequenceName": "epfid2d1_104",
      "SequenceVariant": [
        "SK",
        "SS"
],
      "SeriesDescription": "func_task-friends-s06e04b",
      "SeriesNumber": 15,
      "SeriesTime": "163156.401000",
      "SliceLocation": -44.653112929705,
      "SliceThickness": 2.0,
      "SmallestImagePixelValue": 0,
      "SoftwareVersions": "syngo MR E11",
      "SpacingBetweenSlices": 2.0000000230914,
      "SpecificCharacterSet": "ISO_IR 100",
      "StudyID": "1",
      "StudyTime": "153410.342000",
      "TransmitCoilName": "Body",
      "VariableFlipAngleFlag": "N",
      "WindowCenterWidthExplanation": "Algo1",
      "dBdt": 0.0},
    "slices": {}
  },
  "time": {
    "samples": {
      "AcquisitionNumber": [1, 2, 3, 4, 5, 6, 7, 8, 9, 10, 11, 12, 13, 14, 15, 16, 17, 18, 19, 20, 21, 22, 23, 24, 25, 26, 27, 28, 29, 30, 31, 32, 33, 34, 35, 36, 37, 38, 39, 40, 41, 42, 43, 44, 45, 46, 47, 48, 49, 50, 51, 52, 53, 54, 55, 56, 57, 58, 59, 60, 61, 62, 63, 64, 65, 66, 67, 68, 69, 70, 71, 72, 73, 74, 75, 76, 77, 78, 79, 80, 81, 82, 83, 84, 85, 86, 87, 88, 89, 90, 91, 92, 93, 94, 95, 96, 97, 98, 99, 100, 101, 102, 103, 104, 105, 106, 107, 108, 109, 110, 111, 112, 113, 114, 115, 116, 117, 118, 119, 120, 121, 122, 123, 124, 125, 126, 127, 128, 129, 130, 131, 132, 133, 134, 135, 136, 137, 138, 139, 140, 141, 142, 143, 144, 145, 146, 147, 148, 149, 150, 151, 152, 153, 154, 155, 156, 157, 158, 159, 160, 161, 162, 163, 164, 165, 166, 167, 168, 169, 170, 171, 172, 173, 174, 175, 176, 177, 178, 179, 180, 181, 182, 183, 184, 185, 186, 187, 188, 189, 190, 191, 192, 193, 194, 195, 196, 197, 198, 199, 200, 201, 202, 203, 204, 205, 206, 207, 208, 209, 210, 211, 212, 213, 214, 215, 216, 217, 218, 219, 220, 221, 222, 223, 224, 225, 226, 227, 228, 229, 230, 231, 232, 233, 234, 235, 236, 237, 238, 239, 240, 241, 242, 243, 244, 245, 246, 247, 248, 249, 250, 251, 252, 253, 254, 255, 256, 257, 258, 259, 260, 261, 262, 263, 264, 265, 266, 267, 268, 269, 270, 271, 272, 273, 274, 275, 276, 277, 278, 279, 280, 281, 282, 283, 284, 285, 286, 287, 288, 289, 290, 291, 292, 293, 294, 295, 296, 297, 298, 299, 300, 301, 302, 303, 304, 305, 306, 307, 308, 309, 310, 311, 312, 313, 314, 315, 316, 317, 318, 319, 320, 321, 322, 323, 324, 325, 326, 327, 328, 329, 330, 331, 332, 333, 334, 335, 336, 337, 338, 339, 340, 341, 342, 343, 344, 345, 346, 347, 348, 349, 350, 351, 352, 353, 354, 355, 356, 357, 358, 359, 360, 361, 362, 363, 364, 365, 366, 367, 368, 369, 370, 371, 372, 373, 374, 375, 376, 377, 378, 379, 380, 381, 382, 383, 384, 385, 386, 387, 388, 389, 390, 391, 392, 393, 394, 395, 396, 397, 398, 399, 400, 401, 402, 403, 404, 405, 406, 407, 408, 409, 410, 411, 412, 413, 414, 415, 416, 417, 418, 419, 420, 421, 422, 423, 424, 425, 426, 427, 428, 429, 430, 431, 432, 433, 434, 435, 436, 437, 438, 439, 440, 441, 442, 443, 444, 445, 446, 447, 448, 449, 450, 451, 452, 453, 454, 455, 456, 457, 458, 459, 460, 461, 462, 463, 464, 465, 466, 467, 468, 469, 470, 471, 472, 473, 474],
      "AcquisitionTime": ["163028.370000", "163029.860000", "163031.350000", "163032.840000", "163034.330000", "163035.820000", "163037.310000", "163038.800000", "163040.290000", "163041.780000", "163043.270000", "163044.760000", "163046.250000", "163047.740000", "163049.230000", "163050.720000", "163052.210000", "163053.700000", "163055.190000", "163056.680000", "163058.170000", "163059.660000", "163101.150000", "163102.640000", "163104.130000", "163105.620000", "163107.110000", "163108.600000", "163110.090000", "163111.580000", "163113.070000", "163114.560000", "163116.050000", "163117.540000", "163119.030000", "163120.520000", "163122.010000", "163123.500000", "163124.990000", "163126.480000", "163127.970000", "163129.460000", "163130.950000", "163132.440000", "163133.930000", "163135.420000", "163136.910000", "163138.400000", "163139.890000", "163141.380000", "163142.870000", "163144.360000", "163145.850000", "163147.340000", "163148.830000", "163150.320000", "163151.810000", "163153.300000", "163154.790000", "163156.280000", "163157.770000", "163159.260000", "163200.750000", "163202.240000", "163203.730000", "163205.220000", "163206.710000", "163208.200000", "163209.690000", "163211.180000", "163212.670000", "163214.160000", "163215.650000", "163217.140000", "163218.630000", "163220.120000", "163221.610000", "163223.100000", "163224.590000", "163226.080000", "163227.570000", "163229.060000", "163230.550000", "163232.040000", "163233.530000", "163235.020000", "163236.510000", "163238.000000", "163239.490000", "163240.980000", "163242.470000", "163243.960000", "163245.450000", "163246.940000", "163248.430000", "163249.920000", "163251.410000", "163252.900000", "163254.390000", "163255.880000", "163257.370000", "163258.860000", "163300.350000", "163301.840000", "163303.330000", "163304.820000", "163306.310000", "163307.800000", "163309.290000", "163310.780000", "163312.270000", "163313.760000", "163315.250000", "163316.740000", "163318.230000", "163319.720000", "163321.210000", "163322.700000", "163324.190000", "163325.680000", "163327.170000", "163328.660000", "163330.150000", "163331.640000", "163333.130000", "163334.620000", "163336.110000", "163337.600000", "163339.090000", "163340.580000", "163342.070000", "163343.560000", "163345.050000", "163346.540000", "163348.030000", "163349.520000", "163351.010000", "163352.500000", "163353.990000", "163355.480000", "163356.970000", "163358.460000", "163359.950000", "163401.440000", "163402.930000", "163404.420000", "163405.910000", "163407.400000", "163408.890000", "163410.380000", "163411.870000", "163413.360000", "163414.850000", "163416.340000", "163417.830000", "163419.320000", "163420.810000", "163422.300000", "163423.790000", "163425.280000", "163426.770000", "163428.260000", "163429.750000", "163431.240000", "163432.730000", "163434.220000", "163435.710000", "163437.200000", "163438.690000", "163440.180000", "163441.670000", "163443.160000", "163444.650000", "163446.140000", "163447.630000", "163449.120000", "163450.610000", "163452.100000", "163453.590000", "163455.080000", "163456.570000", "163458.060000", "163459.550000", "163501.040000", "163502.530000", "163504.020000", "163505.510000", "163507.000000", "163508.490000", "163509.980000", "163511.470000", "163512.960000", "163514.450000", "163515.940000", "163517.430000", "163518.920000", "163520.410000", "163521.900000", "163523.390000", "163524.880000", "163526.370000", "163527.860000", "163529.350000", "163530.840000", "163532.330000", "163533.820000", "163535.310000", "163536.800000", "163538.290000", "163539.780000", "163541.270000", "163542.760000", "163544.250000", "163545.740000", "163547.230000", "163548.720000", "163550.210000", "163551.700000", "163553.190000", "163554.680000", "163556.170000", "163557.660000", "163559.150000", "163600.640000", "163602.130000", "163603.620000", "163605.110000", "163606.600000", "163608.090000", "163609.580000", "163611.070000", "163612.560000", "163614.050000", "163615.540000", "163617.030000", "163618.520000", "163620.010000", "163621.500000", "163622.990000", "163624.480000", "163625.970000", "163627.460000", "163628.950000", "163630.440000", "163631.930000", "163633.420000", "163634.910000", "163636.400000", "163637.890000", "163639.380000", "163640.870000", "163642.360000", "163643.850000", "163645.340000", "163646.830000", "163648.320000", "163649.810000", "163651.300000", "163652.790000", "163654.280000", "163655.770000", "163657.260000", "163658.750000", "163700.240000", "163701.730000", "163703.220000", "163704.710000", "163706.200000", "163707.690000", "163709.180000", "163710.670000", "163712.160000", "163713.650000", "163715.140000", "163716.630000", "163718.120000", "163719.610000", "163721.100000", "163722.590000", "163724.080000", "163725.570000", "163727.060000", "163728.550000", "163730.040000", "163731.530000", "163733.020000", "163734.510000", "163736.000000", "163737.490000", "163738.980000", "163740.470000", "163741.960000", "163743.450000", "163744.940000", "163746.430000", "163747.920000", "163749.410000", "163750.900000", "163752.390000", "163753.880000", "163755.370000", "163756.860000", "163758.350000", "163759.840000", "163801.330000", "163802.820000", "163804.310000", "163805.800000", "163807.290000", "163808.780000", "163810.270000", "163811.760000", "163813.250000", "163814.740000", "163816.230000", "163817.720000", "163819.210000", "163820.700000", "163822.190000", "163823.680000", "163825.170000", "163826.660000", "163828.150000", "163829.640000", "163831.130000", "163832.620000", "163834.110000", "163835.600000", "163837.090000", "163838.580000", "163840.070000", "163841.560000", "163843.050000", "163844.540000", "163846.030000", "163847.520000", "163849.010000", "163850.500000", "163851.990000", "163853.480000", "163854.970000", "163856.460000", "163857.950000", "163859.440000", "163900.930000", "163902.420000", "163903.910000", "163905.400000", "163906.890000", "163908.380000", "163909.870000", "163911.360000", "163912.850000", "163914.340000", "163915.830000", "163917.320000", "163918.810000", "163920.300000", "163921.790000", "163923.280000", "163924.770000", "163926.260000", "163927.750000", "163929.240000", "163930.730000", "163932.220000", "163933.710000", "163935.200000", "163936.690000", "163938.180000", "163939.670000", "163941.160000", "163942.650000", "163944.140000", "163945.630000", "163947.120000", "163948.610000", "163950.100000", "163951.590000", "163953.080000", "163954.570000", "163956.060000", "163957.550000", "163959.040000", "164000.530000", "164002.020000", "164003.510000", "164005.000000", "164006.490000", "164007.980000", "164009.470000", "164010.960000", "164012.450000", "164013.940000", "164015.430000", "164016.920000", "164018.410000", "164019.900000", "164021.390000", "164022.880000", "164024.370000", "164025.860000", "164027.350000", "164028.840000", "164030.330000", "164031.820000", "164033.310000", "164034.800000", "164036.290000", "164037.780000", "164039.270000", "164040.760000", "164042.250000", "164043.740000", "164045.230000", "164046.720000", "164048.210000", "164049.700000", "164051.190000", "164052.680000", "164054.170000", "164055.660000", "164057.150000", "164058.640000", "164100.130000", "164101.620000", "164103.110000", "164104.600000", "164106.090000", "164107.580000", "164109.070000", "164110.560000", "164112.050000", "164113.540000", "164115.030000", "164116.520000", "164118.010000", "164119.500000", "164120.990000", "164122.480000", "164123.970000", "164125.460000", "164126.950000", "164128.440000", "164129.930000", "164131.420000", "164132.910000", "164134.400000", "164135.890000", "164137.380000", "164138.870000", "164140.360000", "164141.850000", "164143.340000", "164144.830000", "164146.320000", "164147.810000", "164149.300000", "164150.790000", "164152.280000", "164153.770000", "164155.260000", "164156.750000", "164158.240000", "164159.730000", "164201.220000", "164202.710000", "164204.200000", "164205.690000", "164207.180000", "164208.670000", "164210.160000", "164211.650000", "164213.140000"],
      "ContentTime": ["163156.404000", "163156.408000", "163156.414000", "163156.417000", "163156.420000", "163156.423000", "163156.426000", "163156.429000", "163156.431000", "163156.442000", "163156.445000", "163156.447000", "163156.450000", "163156.453000", "163156.456000", "163156.459000", "163156.462000", "163156.464000", "163156.467000", "163156.470000", "163156.473000", "163156.476000", "163156.478000", "163156.481000", "163156.484000", "163156.487000", "163156.490000", "163156.493000", "163156.495000", "163156.498000", "163156.501000", "163156.504000", "163156.507000", "163216.370000", "163216.373000", "163216.377000", "163216.379000", "163216.382000", "163216.385000", "163216.388000", "163216.391000", "163216.393000", "163216.396000", "163216.399000", "163216.411000", "163216.414000", "163216.416000", "163216.419000", "163216.422000", "163216.425000", "163216.428000", "163216.430000", "163216.433000", "163216.436000", "163236.369000", "163236.372000", "163236.374000", "163236.377000", "163236.380000", "163236.383000", "163236.386000", "163236.389000", "163236.392000", "163236.394000", "163236.397000", "163236.400000", "163236.403000", "163236.406000", "163236.408000", "163236.411000", "163236.414000", "163236.417000", "163236.419000", "163236.422000", "163256.369000", "163256.372000", "163256.375000", "163256.377000", "163256.380000", "163256.383000", "163256.391000", "163256.393000", "163256.396000", "163256.399000", "163256.402000", "163256.405000", "163256.408000", "163256.410000", "163256.413000", "163256.416000", "163256.419000", "163256.422000", "163256.425000", "163256.428000", "163336.370000", "163336.373000", "163336.376000", "163336.378000", "163336.384000", "163336.387000", "163336.390000", "163336.400000", "163336.403000", "163336.419000", "163336.422000", "163336.425000", "163336.428000", "163336.431000", "163336.433000", "163336.436000", "163336.439000", "163336.442000", "163336.445000", "163336.448000", "163336.450000", "163336.453000", "163336.456000", "163336.459000", "163336.462000", "163336.465000", "163336.468000", "163336.470000", "163336.473000", "163336.476000", "163336.479000", "163416.370000", "163416.373000", "163416.376000", "163416.379000", "163416.381000", "163416.384000", "163416.387000", "163416.390000", "163416.393000", "163416.396000", "163416.398000", "163416.401000", "163416.404000", "163416.407000", "163416.420000", "163416.423000", "163416.426000", "163416.429000", "163416.432000", "163416.435000", "163416.438000", "163416.440000", "163416.443000", "163416.446000", "163416.449000", "163416.452000", "163416.455000", "163436.370000", "163436.373000", "163436.376000", "163436.379000", "163436.382000", "163436.385000", "163436.388000", "163436.391000", "163436.394000", "163436.405000", "163436.408000", "163436.411000", "163436.414000", "163516.369000", "163516.372000", "163516.375000", "163516.378000", "163516.381000", "163516.384000", "163516.394000", "163516.397000", "163516.400000", "163516.403000", "163516.406000", "163516.409000", "163516.412000", "163516.415000", "163516.417000", "163516.420000", "163516.423000", "163516.426000", "163516.429000", "163516.432000", "163516.435000", "163516.438000", "163516.440000", "163516.443000", "163516.446000", "163516.449000", "163516.452000", "163556.370000", "163556.373000", "163556.376000", "163556.378000", "163556.381000", "163556.384000", "163556.387000", "163556.390000", "163556.392000", "163556.395000", "163556.398000", "163556.401000", "163556.404000", "163556.407000", "163556.410000", "163556.412000", "163556.415000", "163556.418000", "163556.421000", "163556.424000", "163556.427000", "163556.429000", "163556.438000", "163556.441000", "163556.443000", "163556.446000", "163556.449000", "163636.370000", "163636.373000", "163636.376000", "163636.379000", "163636.381000", "163636.394000", "163636.397000", "163636.400000", "163636.403000", "163636.405000", "163636.408000", "163636.411000", "163636.414000", "163636.417000", "163636.420000", "163636.423000", "163636.425000", "163636.428000", "163636.431000", "163636.434000", "163636.437000", "163636.440000", "163636.443000", "163636.446000", "163636.448000", "163636.451000", "163636.454000", "163716.369000", "163716.372000", "163716.375000", "163716.378000", "163716.380000", "163716.383000", "163716.386000", "163716.389000", "163716.392000", "163716.395000", "163716.397000", "163716.400000", "163716.403000", "163716.406000", "163716.409000", "163716.412000", "163716.414000", "163716.417000", "163716.420000", "163716.423000", "163716.435000", "163716.438000", "163716.440000", "163716.443000", "163716.446000", "163716.449000", "163716.452000", "163756.370000", "163756.373000", "163756.376000", "163756.379000", "163756.382000", "163756.385000", "163756.388000", "163756.391000", "163756.394000", "163756.397000", "163756.400000", "163756.403000", "163756.406000", "163756.408000", "163756.424000", "163756.427000", "163756.430000", "163756.432000", "163756.435000", "163756.438000", "163756.441000", "163756.444000", "163756.447000", "163756.450000", "163756.452000", "163756.455000", "163836.370000", "163836.373000", "163836.376000", "163836.379000", "163836.381000", "163836.385000", "163836.387000", "163836.390000", "163836.393000", "163836.396000", "163836.399000", "163836.402000", "163836.405000", "163836.408000", "163836.410000", "163836.413000", "163836.416000", "163836.419000", "163836.422000", "163836.425000", "163836.428000", "163836.431000", "163836.433000", "163836.436000", "163836.439000", "163836.442000", "163836.445000", "163916.370000", "163916.373000", "163916.376000", "163916.378000", "163916.381000", "163916.384000", "163916.387000", "163916.390000", "163916.393000", "163916.396000", "163916.399000", "163916.402000", "163916.405000", "163916.407000", "163916.410000", "163916.413000", "163916.416000", "163916.419000", "163916.422000", "163916.425000", "163916.428000", "163916.431000", "163916.433000", "163916.436000", "163916.439000", "163916.442000", "163916.445000", "163956.369000", "163956.372000", "163956.375000", "163956.378000", "163956.381000", "163956.384000", "163956.386000", "163956.390000", "163956.392000", "163956.395000", "163956.398000", "163956.401000", "163956.404000", "163956.407000", "163956.410000", "163956.413000", "163956.416000", "163956.428000", "163956.431000", "163956.434000", "163956.437000", "163956.440000", "163956.442000", "163956.445000", "163956.448000", "163956.451000", "163956.455000", "164036.370000", "164036.373000", "164036.376000", "164036.379000", "164036.382000", "164036.384000", "164036.394000", "164036.397000", "164036.400000", "164036.403000", "164036.406000", "164036.409000", "164036.411000", "164036.414000", "164036.417000", "164036.420000", "164036.423000", "164036.426000", "164036.429000", "164036.432000", "164036.434000", "164036.437000", "164036.440000", "164036.443000", "164036.446000", "164036.449000", "164036.452000", "164116.370000", "164116.373000", "164116.376000", "164116.379000", "164116.381000", "164116.385000", "164116.387000", "164116.390000", "164116.393000", "164116.396000", "164116.399000", "164116.402000", "164116.405000", "164116.408000", "164116.411000", "164116.413000", "164116.416000", "164116.419000", "164116.422000", "164116.425000", "164116.428000", "164116.431000", "164116.433000", "164116.436000", "164116.439000", "164116.442000", "164116.445000", "164156.369000", "164156.372000", "164156.375000", "164156.378000", "164156.381000", "164156.384000", "164156.386000", "164156.389000", "164156.392000", "164156.395000", "164156.398000", "164156.401000", "164156.404000", "164156.407000", "164156.410000", "164156.413000", "164156.416000", "164156.419000", "164156.421000", "164156.430000", "164156.433000", "164156.436000", "164156.439000", "164156.442000", "164156.445000", "164156.448000", "164156.451000", "164215.693000", "164215.696000", "164215.699000", "164215.702000", "164215.705000", "164215.708000", "164215.711000", "164215.714000", "164215.717000", "164215.720000", "164215.723000", "164215.726000", "164215.729000"],
