{
  "AcquisitionMatrixPE": 104,
  "AcquisitionNumber": 1,
  "AcquisitionTime": "15:57:13.540000",
  "BandwidthPerPixelPhaseEncode": 17.17,
  "BaseResolution": 104,
  "BodyPartExamined": "BRAIN",
  "CoilCombinationMethod": "Sum of Squares",
  "ConsistencyInfo": "N4_VE11C_LATEST_20160120",
  "ConversionSoftware": "dcm2niix",
  "ConversionSoftwareVersion": "v1.0.20230411",
  "DerivedVendorReportedEchoSpacing": 0.000560011,
  "DeviceSerialNumber": "167006",
  "DwellTime": 2.1e-06,
  "EchoTime": 0.037,
  "EchoTrainLength": 104,
  "EffectiveEchoSpacing": 0.000560011,
  "FlipAngle": 52,
  "HeudiconvVersion": "0.5.3.post861+ge7d3c7f",
  "ImageComments": "Unaliased MB4/PE3/LB",
  "ImageOrientationPatientDICOM": [0.998391, -0.0528524, 0.0205285, 0.0566927, 0.93601, -0.347378],
  "ImageOrientationText": "Tra>Cor(-20.4)>Sag(0.0)",
  "ImageType": [
    "ORIGINAL",
    "PRIMARY",
    "M",
    "MB",
    "ND",
    "MOSAIC"
],
  "ImagingFrequency": 123.2499,
  "InPlanePhaseEncodingDirectionDICOM": "COL",
  "InstitutionAddress": "Chemin Queen-Mary 4565,Montreal,District,CA,H3W 1W5",
  "InstitutionName": "IUGM",
  "InstitutionalDepartmentName": "Department",
  "MRAcquisitionType": "2D",
  "MagneticFieldStrength": 3,
  "Manufacturer": "Siemens",
  "ManufacturersModelName": "Prisma_fit",
  "MatrixCoilMode": "SENSE",
  "Modality": "MR",
  "MultibandAccelerationFactor": 4,
  "NonlinearGradientCorrection": false,
  "PartialFourier": 1,
  "PatientPosition": "HFS",
  "PercentPhaseFOV": 100,
  "PercentSampling": 100,
  "PhaseEncodingDirection": "j",
  "PhaseEncodingSteps": 104,
  "PhaseResolution": 1,
  "PixelBandwidth": 2290,
  "ProcedureStepDescription": "video^friends",
  "ProtocolName": "func_task-friends-s07e15a",
  "PulseSequenceDetails": "%CustomerSeq%\\cmrr_mbep2d_bold",
  "ReceiveCoilActiveElements": "HC1-7;NC1,2",
  "ReceiveCoilName": "HeadNeck_64",
  "ReconMatrixPE": 104,
  "RepetitionTime": 1.49,
  "SAR": 0.0637101,
  "ScanOptions": "FS",
  "ScanningSequence": "EP",
  "SequenceName": "epfid2d1_104",
  "SequenceVariant": "SK\\SS",
  "SeriesDescription": "func_task-friends-s07e15a",
  "SeriesNumber": 12,
  "ShimSetting": [614, -7299, -8833, 500, 60, -263, -121, 55],
  "SliceThickness": 2,
  "SliceTiming": [0, 0.7825, 0.0975, 0.88, 0.195, 0.98, 0.2925, 1.0775, 0.3925, 1.175, 0.49, 1.2725, 0.5875, 1.37, 0.685, 0, 0.7825, 0.0975, 0.88, 0.195, 0.98, 0.2925, 1.0775, 0.3925, 1.175, 0.49, 1.2725, 0.5875, 1.37, 0.685, 0, 0.7825, 0.0975, 0.88, 0.195, 0.98, 0.2925, 1.0775, 0.3925, 1.175, 0.49, 1.2725, 0.5875, 1.37, 0.685, 0, 0.7825, 0.0975, 0.88, 0.195, 0.98, 0.2925, 1.0775, 0.3925, 1.175, 0.49, 1.2725, 0.5875, 1.37, 0.685],
  "SoftwareVersions": "syngo MR E11",
  "SpacingBetweenSlices": 2,
  "StationName": "MRC35049",
  "TaskName": "s07e15a",
  "TotalReadoutTime": 0.0576811,
  "TxRefAmp": 263.591,
  "WipMemBlock": "81a6b7c8-d146-49b0-a20d-6c772196786b||Sequence: R017 ve11c/master r/75a17815+; Jun 28 2022 16:32:11 by eja",
  "dcmmeta_affine": [
    [-1.996782660484314, 0.11338547617197037, 0.0017101308330893517, 96.72889709472656],
    [0.10570485889911652, 1.8720195293426514, -0.6959666013717651, -78.95539093017578],
    [0.041056953370571136, 0.6947566270828247, 1.8750007152557373, -70.95712280273438],
    [0.0, 0.0, 0.0, 1.0]
],
  "dcmmeta_reorient_transform": [
    [0.0, -1.0, 0.0, 103.0],
    [1.0, 0.0, 0.0, 0.0],
    [0.0, 0.0, 1.0, 0.0],
    [0.0, 0.0, 0.0, 1.0]
],
  "dcmmeta_shape": [104, 104, 60, 566],
  "dcmmeta_slice_dim": 2,
  "dcmmeta_version": 0.6,
  "global": {
    "const": {
      "AcquisitionMatrix": [104, 0, 0, 104],
      "AngioFlag": "N",
      "BitsAllocated": 16,
      "BitsStored": 16,
      "BodyPartExamined": "BRAIN",
      "Columns": 832,
      "EchoNumbers": 1,
      "EchoTime": 37.0,
      "EchoTrainLength": 104,
      "FlipAngle": 52.0,
      "HighBit": 15,
      "ImageOrientationPatient": [0.99839130713959, -0.0528524312262, 0.02052847635784, 0.05669273931696, 0.9360097434102, -0.3473783147376],
      "ImagePositionPatient": [-876.50878648175, -756.80113926075, 238.54949338838],
      "ImageType": [
        "ORIGINAL",
        "PRIMARY",
        "M",
        "MB",
        "ND",
        "MOSAIC"
],
      "ImagedNucleus": "1H",
      "ImagingFrequency": 123.2499,
      "InPlanePhaseEncodingDirection": "COL",
      "MRAcquisitionType": "2D",
      "MagneticFieldStrength": 3.0,
      "Manufacturer": "SIEMENS",
      "ManufacturerModelName": "Prisma_fit",
      "Modality": "MR",
      "NumberOfAverages": 1.0,
      "NumberOfPhaseEncodingSteps": 104,
      "PercentPhaseFieldOfView": 100.0,
      "PercentSampling": 100.0,
      "PerformedProcedureStepStartTime": "153745.883000",
      "PhotometricInterpretation": "MONOCHROME2",
      "PixelBandwidth": 2290.0,
      "PixelRepresentation": 0,
      "PixelSpacing": [2.0, 2.0],
      "ProtocolName": "func_task-friends-s07e15a",
      "RepetitionTime": 1490.0,
      "Rows": 832,
      "SAR": 0.0637101471126,
      "SamplesPerPixel": 1,
      "ScanOptions": "FS",
      "ScanningSequence": "EP",
      "SequenceName": "epfid2d1_104",
      "SequenceVariant": [
        "SK",
        "SS"
],
      "SeriesDescription": "func_task-friends-s07e15a",
      "SeriesNumber": 12,
      "SeriesTime": "155825.377000",
      "SliceLocation": -38.964458309561,
      "SliceThickness": 2.0,
      "SmallestImagePixelValue": 0,
      "SoftwareVersions": "syngo MR E11",
      "SpacingBetweenSlices": 1.9999999838234,
      "SpecificCharacterSet": "ISO_IR 100",
      "StudyID": "1",
      "StudyTime": "153745.809000",
      "TransmitCoilName": "Body",
      "VariableFlipAngleFlag": "N",
      "WindowCenterWidthExplanation": "Algo1",
      "dBdt": 0.0},
    "slices": {}
  },
  "time": {
    "samples": {
      "AcquisitionNumber": [1, 2, 3, 4, 5, 6, 7, 8, 9, 10, 11, 12, 13, 14, 15, 16, 17, 18, 19, 20, 21, 22, 23, 24, 25, 26, 27, 28, 29, 30, 31, 32, 33, 34, 35, 36, 37, 38, 39, 40, 41, 42, 43, 44, 45, 46, 47, 48, 49, 50, 51, 52, 53, 54, 55, 56, 57, 58, 59, 60, 61, 62, 63, 64, 65, 66, 67, 68, 69, 70, 71, 72, 73, 74, 75, 76, 77, 78, 79, 80, 81, 82, 83, 84, 85, 86, 87, 88, 89, 90, 91, 92, 93, 94, 95, 96, 97, 98, 99, 100, 101, 102, 103, 104, 105, 106, 107, 108, 109, 110, 111, 112, 113, 114, 115, 116, 117, 118, 119, 120, 121, 122, 123, 124, 125, 126, 127, 128, 129, 130, 131, 132, 133, 134, 135, 136, 137, 138, 139, 140, 141, 142, 143, 144, 145, 146, 147, 148, 149, 150, 151, 152, 153, 154, 155, 156, 157, 158, 159, 160, 161, 162, 163, 164, 165, 166, 167, 168, 169, 170, 171, 172, 173, 174, 175, 176, 177, 178, 179, 180, 181, 182, 183, 184, 185, 186, 187, 188, 189, 190, 191, 192, 193, 194, 195, 196, 197, 198, 199, 200, 201, 202, 203, 204, 205, 206, 207, 208, 209, 210, 211, 212, 213, 214, 215, 216, 217, 218, 219, 220, 221, 222, 223, 224, 225, 226, 227, 228, 229, 230, 231, 232, 233, 234, 235, 236, 237, 238, 239, 240, 241, 242, 243, 244, 245, 246, 247, 248, 249, 250, 251, 252, 253, 254, 255, 256, 257, 258, 259, 260, 261, 262, 263, 264, 265, 266, 267, 268, 269, 270, 271, 272, 273, 274, 275, 276, 277, 278, 279, 280, 281, 282, 283, 284, 285, 286, 287, 288, 289, 290, 291, 292, 293, 294, 295, 296, 297, 298, 299, 300, 301, 302, 303, 304, 305, 306, 307, 308, 309, 310, 311, 312, 313, 314, 315, 316, 317, 318, 319, 320, 321, 322, 323, 324, 325, 326, 327, 328, 329, 330, 331, 332, 333, 334, 335, 336, 337, 338, 339, 340, 341, 342, 343, 344, 345, 346, 347, 348, 349, 350, 351, 352, 353, 354, 355, 356, 357, 358, 359, 360, 361, 362, 363, 364, 365, 366, 367, 368, 369, 370, 371, 372, 373, 374, 375, 376, 377, 378, 379, 380, 381, 382, 383, 384, 385, 386, 387, 388, 389, 390, 391, 392, 393, 394, 395, 396, 397, 398, 399, 400, 401, 402, 403, 404, 405, 406, 407, 408, 409, 410, 411, 412, 413, 414, 415, 416, 417, 418, 419, 420, 421, 422, 423, 424, 425, 426, 427, 428, 429, 430, 431, 432, 433, 434, 435, 436, 437, 438, 439, 440, 441, 442, 443, 444, 445, 446, 447, 448, 449, 450, 451, 452, 453, 454, 455, 456, 457, 458, 459, 460, 461, 462, 463, 464, 465, 466, 467, 468, 469, 470, 471, 472, 473, 474, 475, 476, 477, 478, 479, 480, 481, 482, 483, 484, 485, 486, 487, 488, 489, 490, 491, 492, 493, 494, 495, 496, 497, 498, 499, 500, 501, 502, 503, 504, 505, 506, 507, 508, 509, 510, 511, 512, 513, 514, 515, 516, 517, 518, 519, 520, 521, 522, 523, 524, 525, 526, 527, 528, 529, 530, 531, 532, 533, 534, 535, 536, 537, 538, 539, 540, 541, 542, 543, 544, 545, 546, 547, 548, 549, 550, 551, 552, 553, 554, 555, 556, 557, 558, 559, 560, 561, 562, 563, 564, 565, 566],
      "AcquisitionTime": ["155713.540000", "155715.030000", "155716.520000", "155718.010000", "155719.500000", "155720.990000", "155722.480000", "155723.970000", "155725.460000", "155726.950000", "155728.440000", "155729.930000", "155731.420000", "155732.910000", "155734.400000", "155735.890000", "155737.380000", "155738.870000", "155740.360000", "155741.850000", "155743.340000", "155744.830000", "155746.320000", "155747.810000", "155749.300000", "155750.790000", "155752.280000", "155753.770000", "155755.260000", "155756.750000", "155758.240000", "155759.730000", "155801.220000", "155802.710000", "155804.200000", "155805.690000", "155807.180000", "155808.670000", "155810.160000", "155811.650000", "155813.140000", "155814.630000", "155816.120000", "155817.610000", "155819.100000", "155820.590000", "155822.080000", "155823.570000", "155825.060000", "155826.550000", "155828.040000", "155829.530000", "155831.020000", "155832.510000", "155834.000000", "155835.490000", "155836.980000", "155838.470000", "155839.960000", "155841.450000", "155842.940000", "155844.430000", "155845.920000", "155847.410000", "155848.900000", "155850.390000", "155851.880000", "155853.370000", "155854.860000", "155856.350000", "155857.840000", "155859.330000", "155900.820000", "155902.310000", "155903.800000", "155905.290000", "155906.780000", "155908.270000", "155909.760000", "155911.250000", "155912.740000", "155914.230000", "155915.720000", "155917.210000", "155918.700000", "155920.190000", "155921.680000", "155923.170000", "155924.660000", "155926.150000", "155927.640000", "155929.130000", "155930.620000", "155932.110000", "155933.600000", "155935.090000", "155936.580000", "155938.070000", "155939.560000", "155941.050000", "155942.540000", "155944.030000", "155945.520000", "155947.010000", "155948.500000", "155949.990000", "155951.480000", "155952.970000", "155954.460000", "155955.950000", "155957.440000", "155958.930000", "160000.420000", "160001.910000", "160003.400000", "160004.890000", "160006.380000", "160007.870000", "160009.360000", "160010.850000", "160012.340000", "160013.830000", "160015.320000", "160016.810000", "160018.300000", "160019.790000", "160021.280000", "160022.770000", "160024.260000", "160025.750000", "160027.240000", "160028.730000", "160030.220000", "160031.710000", "160033.200000", "160034.690000", "160036.180000", "160037.670000", "160039.160000", "160040.650000", "160042.140000", "160043.630000", "160045.120000", "160046.610000", "160048.100000", "160049.590000", "160051.080000", "160052.570000", "160054.060000", "160055.550000", "160057.040000", "160058.530000", "160100.020000", "160101.510000", "160103.000000", "160104.490000", "160105.980000", "160107.470000", "160108.960000", "160110.450000", "160111.940000", "160113.430000", "160114.920000", "160116.410000", "160117.900000", "160119.390000", "160120.880000", "160122.370000", "160123.860000", "160125.350000", "160126.840000", "160128.330000", "160129.820000", "160131.310000", "160132.800000", "160134.290000", "160135.780000", "160137.270000", "160138.760000", "160140.250000", "160141.740000", "160143.230000", "160144.720000", "160146.210000", "160147.700000", "160149.190000", "160150.680000", "160152.170000", "160153.660000", "160155.150000", "160156.640000", "160158.130000", "160159.620000", "160201.110000", "160202.600000", "160204.090000", "160205.580000", "160207.070000", "160208.560000", "160210.050000", "160211.540000", "160213.030000", "160214.520000", "160216.010000", "160217.500000", "160218.990000", "160220.480000", "160221.970000", "160223.460000", "160224.950000", "160226.440000", "160227.930000", "160229.420000", "160230.910000", "160232.400000", "160233.890000", "160235.380000", "160236.870000", "160238.360000", "160239.850000", "160241.340000", "160242.830000", "160244.320000", "160245.810000", "160247.300000", "160248.790000", "160250.280000", "160251.770000", "160253.260000", "160254.750000", "160256.240000", "160257.730000", "160259.220000", "160300.710000", "160302.200000", "160303.690000", "160305.180000", "160306.670000", "160308.160000", "160309.650000", "160311.140000", "160312.630000", "160314.120000", "160315.610000", "160317.100000", "160318.590000", "160320.080000", "160321.570000", "160323.060000", "160324.550000", "160326.040000", "160327.530000", "160329.020000", "160330.510000", "160332.000000", "160333.490000", "160334.980000", "160336.470000", "160337.960000", "160339.450000", "160340.940000", "160342.430000", "160343.920000", "160345.410000", "160346.900000", "160348.390000", "160349.880000", "160351.370000", "160352.860000", "160354.350000", "160355.840000", "160357.330000", "160358.820000", "160400.310000", "160401.800000", "160403.290000", "160404.780000", "160406.270000", "160407.760000", "160409.250000", "160410.740000", "160412.230000", "160413.720000", "160415.210000", "160416.700000", "160418.190000", "160419.680000", "160421.170000", "160422.660000", "160424.150000", "160425.640000", "160427.130000", "160428.620000", "160430.110000", "160431.600000", "160433.090000", "160434.580000", "160436.070000", "160437.560000", "160439.050000", "160440.540000", "160442.030000", "160443.520000", "160445.010000", "160446.500000", "160447.990000", "160449.480000", "160450.970000", "160452.460000", "160453.950000", "160455.440000", "160456.930000", "160458.420000", "160459.910000", "160501.400000", "160502.890000", "160504.380000", "160505.870000", "160507.360000", "160508.850000", "160510.340000", "160511.830000", "160513.320000", "160514.810000", "160516.300000", "160517.790000", "160519.280000", "160520.770000", "160522.260000", "160523.750000", "160525.240000", "160526.730000", "160528.220000", "160529.710000", "160531.200000", "160532.690000", "160534.180000", "160535.670000", "160537.160000", "160538.650000", "160540.140000", "160541.630000", "160543.120000", "160544.610000", "160546.100000", "160547.590000", "160549.080000", "160550.570000", "160552.060000", "160553.550000", "160555.040000", "160556.530000", "160558.020000", "160559.510000", "160601.000000", "160602.490000", "160603.980000", "160605.470000", "160606.960000", "160608.450000", "160609.940000", "160611.430000", "160612.920000", "160614.410000", "160615.900000", "160617.390000", "160618.880000", "160620.370000", "160621.860000", "160623.350000", "160624.840000", "160626.330000", "160627.820000", "160629.310000", "160630.800000", "160632.290000", "160633.780000", "160635.270000", "160636.760000", "160638.250000", "160639.740000", "160641.230000", "160642.720000", "160644.210000", "160645.700000", "160647.190000", "160648.680000", "160650.170000", "160651.660000", "160653.150000", "160654.640000", "160656.130000", "160657.620000", "160659.110000", "160700.600000", "160702.090000", "160703.580000", "160705.070000", "160706.560000", "160708.050000", "160709.540000", "160711.030000", "160712.520000", "160714.010000", "160715.500000", "160716.990000", "160718.480000", "160719.970000", "160721.460000", "160722.950000", "160724.440000", "160725.930000", "160727.420000", "160728.910000", "160730.400000", "160731.890000", "160733.380000", "160734.870000", "160736.360000", "160737.850000", "160739.340000", "160740.830000", "160742.320000", "160743.810000", "160745.300000", "160746.790000", "160748.280000", "160749.770000", "160751.260000", "160752.750000", "160754.240000", "160755.730000", "160757.220000", "160758.710000", "160800.200000", "160801.690000", "160803.180000", "160804.670000", "160806.160000", "160807.650000", "160809.140000", "160810.630000", "160812.120000", "160813.610000", "160815.100000", "160816.590000", "160818.080000", "160819.570000", "160821.060000", "160822.550000", "160824.040000", "160825.530000", "160827.020000", "160828.510000", "160830.000000", "160831.490000", "160832.980000", "160834.470000", "160835.960000", "160837.450000", "160838.940000", "160840.430000", "160841.920000", "160843.410000", "160844.900000", "160846.390000", "160847.880000", "160849.370000", "160850.860000", "160852.350000", "160853.840000", "160855.330000", "160856.820000", "160858.310000", "160859.800000", "160901.290000", "160902.780000", "160904.270000", "160905.760000", "160907.250000", "160908.740000", "160910.230000", "160911.720000", "160913.210000", "160914.700000", "160916.190000", "160917.680000", "160919.170000", "160920.660000", "160922.150000", "160923.640000", "160925.130000", "160926.620000", "160928.110000", "160929.600000", "160931.090000", "160932.580000", "160934.070000", "160935.560000", "160937.050000", "160938.540000", "160940.030000", "160941.520000", "160943.010000", "160944.500000", "160945.990000", "160947.480000", "160948.970000", "160950.460000", "160951.950000", "160953.440000", "160954.930000", "160956.420000", "160957.910000", "160959.400000", "161000.890000", "161002.380000", "161003.870000", "161005.360000", "161006.850000", "161008.340000", "161009.830000", "161011.320000", "161012.810000", "161014.300000", "161015.790000", "161017.280000", "161018.770000", "161020.260000", "161021.750000", "161023.240000", "161024.730000", "161026.220000", "161027.710000", "161029.200000", "161030.690000", "161032.180000", "161033.670000", "161035.160000", "161036.650000", "161038.140000", "161039.630000", "161041.120000", "161042.610000", "161044.100000", "161045.590000", "161047.080000", "161048.570000", "161050.060000", "161051.550000", "161053.040000", "161054.530000", "161056.020000", "161057.510000", "161059.000000", "161100.490000", "161101.980000", "161103.470000", "161104.960000", "161106.450000", "161107.940000", "161109.430000", "161110.920000", "161112.410000", "161113.900000", "161115.390000"],
      "ContentTime": ["155825.382000", "155825.393000", "155825.396000", "155825.399000", "155825.402000", "155825.405000", "155825.408000", "155825.411000", "155825.414000", "155825.417000", "155825.425000", "155825.428000", "155825.431000", "155825.434000", "155825.437000", "155825.443000", "155825.446000", "155825.449000", "155825.451000", "155825.454000", "155825.457000", "155825.460000", "155845.336000", "155845.339000", "155845.342000", "155845.345000", "155845.348000", "155845.351000", "155845.354000", "155845.357000", "155845.360000", "155845.363000", "155845.367000", "155845.370000", "155845.373000", "155845.376000", "155845.379000", "155845.382000", "155845.385000", "155845.388000", "155845.391000", "155845.394000", "155905.336000", "155905.339000", "155905.342000", "155905.345000", "155905.348000", "155905.351000", "155905.354000", "155905.356000", "155905.359000", "155905.367000", "155905.370000", "155905.373000", "155905.376000", "155905.379000", "155905.382000", "155905.385000", "155905.388000", "155905.391000", "155905.394000", "155905.397000", "155905.400000", "155925.336000", "155925.339000", "155925.342000", "155925.345000", "155925.348000", "155925.351000", "155925.358000", "155925.360000", "155925.363000", "155925.366000", "155925.369000", "155925.372000", "155925.375000", "155925.378000", "155925.381000", "155925.384000", "155925.387000", "155925.390000", "155925.393000", "155925.396000", "160005.337000", "160005.340000", "160005.343000", "160005.346000", "160005.349000", "160005.352000", "160005.355000", "160005.357000", "160005.360000", "160005.363000", "160005.366000", "160005.369000", "160005.372000", "160005.375000", "160005.378000", "160005.381000", "160005.384000", "160005.387000", "160005.390000", "160005.392000", "160005.398000", "160005.401000", "160005.404000", "160005.407000", "160005.410000", "160005.413000", "160005.416000", "160005.419000", "160005.422000", "160005.424000", "160005.427000", "160045.335000", "160045.338000", "160045.341000", "160045.344000", "160045.347000", "160045.350000", "160045.353000", "160045.356000", "160045.358000", "160045.361000", "160045.364000", "160045.367000", "160045.370000", "160045.373000", "160045.376000", "160045.379000", "160045.382000", "160045.390000", "160045.393000", "160045.396000", "160045.398000", "160045.401000", "160045.404000", "160045.407000", "160045.410000", "160045.413000", "160045.416000", "160125.336000", "160125.339000", "160125.342000", "160125.345000", "160125.348000", "160125.351000", "160125.354000", "160125.357000", "160125.360000", "160125.363000", "160125.366000", "160125.369000", "160125.371000", "160125.375000", "160125.378000", "160125.381000", "160125.383000", "160125.387000", "160125.389000", "160125.392000", "160125.395000", "160125.399000", "160125.402000", "160125.404000", "160125.407000", "160125.410000", "160125.413000", "160205.336000", "160205.339000", "160205.342000", "160205.345000", "160205.348000", "160205.351000", "160205.354000", "160205.357000", "160205.360000", "160205.363000", "160205.366000", "160205.369000", "160205.372000", "160205.375000", "160205.377000", "160205.380000", "160205.383000", "160205.386000", "160205.389000", "160205.392000", "160205.395000", "160205.398000", "160205.401000", "160205.404000", "160205.407000", "160205.410000", "160205.413000", "160245.335000", "160245.338000", "160245.341000", "160245.344000", "160245.347000", "160245.350000", "160245.353000", "160245.356000", "160245.359000", "160245.362000", "160245.365000", "160245.368000", "160245.370000", "160245.373000", "160245.376000", "160245.379000", "160245.382000", "160245.385000", "160245.399000", "160245.402000", "160245.405000", "160245.408000", "160245.411000", "160245.414000", "160245.417000", "160245.420000", "160245.423000", "160325.336000", "160325.339000", "160325.342000", "160325.345000", "160325.348000", "160325.358000", "160325.361000", "160325.364000", "160325.367000", "160325.369000", "160325.372000", "160325.375000", "160325.378000", "160325.381000", "160325.384000", "160325.387000", "160325.390000", "160325.393000", "160325.396000", "160325.399000", "160325.402000", "160325.405000", "160325.408000", "160325.410000", "160325.413000", "160325.416000", "160325.419000", "160405.336000", "160405.339000", "160405.342000", "160405.345000", "160405.348000", "160405.351000", "160405.354000", "160405.356000", "160405.359000", "160405.362000", "160405.365000", "160405.368000", "160405.371000", "160405.374000", "160405.377000", "160405.380000", "160405.383000", "160405.386000", "160405.389000", "160405.392000", "160405.395000", "160405.397000", "160405.400000", "160405.403000", "160405.406000", "160405.409000", "160405.412000", "160445.336000", "160445.339000", "160445.342000", "160445.345000", "160445.348000", "160445.351000", "160445.354000", "160445.357000", "160445.360000", "160445.363000", "160445.366000", "160445.368000", "160445.371000", "160445.374000", "160445.377000", "160445.380000", "160445.383000", "160445.386000", "160445.389000", "160445.392000", "160445.395000", "160445.398000", "160445.401000", "160445.404000", "160445.422000", "160445.425000", "160525.335000", "160525.338000", "160525.341000", "160525.344000", "160525.347000", "160525.350000", "160525.353000", "160525.356000", "160525.359000", "160525.362000", "160525.365000", "160525.368000", "160525.371000", "160525.374000", "160525.376000", "160525.379000", "160525.382000", "160525.385000", "160525.388000", "160525.391000", "160525.394000", "160525.397000", "160525.400000", "160525.403000", "160525.406000", "160525.409000", "160525.412000", "160605.336000", "160605.339000", "160605.342000", "160605.345000", "160605.348000", "160605.351000", "160605.354000", "160605.357000", "160605.360000", "160605.363000", "160605.366000", "160605.369000", "160605.372000", "160605.375000", "160605.378000", "160605.381000", "160605.384000", "160605.387000", "160605.389000", "160605.392000", "160605.395000", "160605.398000", "160605.401000", "160605.404000", "160605.407000", "160605.410000", "160605.413000", "160645.336000", "160645.339000", "160645.342000", "160645.345000", "160645.348000", "160645.351000", "160645.354000", "160645.357000", "160645.360000", "160645.363000", "160645.366000", "160645.369000", "160645.372000", "160645.375000", "160645.377000", "160645.380000", "160645.383000", "160645.386000", "160645.389000", "160645.392000", "160645.395000", "160645.398000", "160645.401000", "160645.404000", "160645.407000", "160645.409000", "160645.412000", "160725.335000", "160725.338000", "160725.341000", "160725.344000", "160725.347000", "160725.350000", "160725.353000", "160725.356000", "160725.359000", "160725.362000", "160725.365000", "160725.368000", "160725.371000", "160725.374000", "160725.377000", "160725.386000", "160725.389000", "160725.392000", "160725.395000", "160725.417000", "160725.420000", "160725.423000", "160725.426000", "160725.428000", "160725.431000", "160725.434000", "160725.437000", "160805.336000", "160805.339000", "160805.342000", "160805.360000", "160805.363000", "160805.366000", "160805.369000", "160805.372000", "160805.375000", "160805.378000", "160805.381000", "160805.384000", "160805.387000", "160805.390000", "160805.393000", "160805.396000", "160805.399000", "160805.402000", "160805.405000", "160805.408000", "160805.411000", "160805.414000", "160805.417000", "160805.419000", "160805.422000", "160805.425000", "160805.428000", "160845.337000", "160845.340000", "160845.343000", "160845.346000", "160845.349000", "160845.352000", "160845.355000", "160845.358000", "160845.361000", "160845.364000", "160845.367000", "160845.370000", "160845.373000", "160845.376000", "160845.379000", "160845.382000", "160845.385000", "160845.388000", "160845.391000", "160845.394000", "160845.397000", "160845.400000", "160845.403000", "160845.406000", "160845.408000", "160845.411000", "160925.336000", "160925.339000", "160925.342000", "160925.345000", "160925.348000", "160925.351000", "160925.354000", "160925.357000", "160925.360000", "160925.363000", "160925.366000", "160925.369000", "160925.372000", "160925.375000", "160925.378000", "160925.381000", "160925.384000", "160925.387000", "160925.390000", "160925.393000", "160925.396000", "160925.399000", "160925.402000", "160925.405000", "160925.408000", "160925.411000", "160925.414000", "161005.335000", "161005.338000", "161005.341000", "161005.344000", "161005.347000", "161005.350000", "161005.353000", "161005.356000", "161005.359000", "161005.362000", "161005.365000", "161005.368000", "161005.371000", "161005.374000", "161005.377000", "161005.380000", "161005.383000", "161005.386000", "161005.389000", "161005.392000", "161005.395000", "161005.398000", "161005.401000", "161005.404000", "161005.407000", "161005.410000", "161005.413000", "161045.336000", "161045.339000", "161045.342000", "161045.345000", "161045.348000", "161045.351000", "161045.354000", "161045.357000", "161045.360000", "161045.362000", "161045.365000", "161045.368000", "161045.371000", "161045.374000", "161045.377000", "161045.380000", "161045.383000", "161045.386000", "161045.389000", "161045.392000", "161045.395000", "161045.398000", "161045.401000", "161045.403000", "161045.406000", "161045.409000", "161045.412000", "161117.375000", "161117.378000", "161117.381000", "161117.384000", "161117.387000", "161117.390000", "161117.393000", "161117.396000", "161117.399000", "161117.402000", "161117.405000", "161117.408000", "161117.411000", "161117.414000", "161117.418000", "161117.421000", "161117.424000", "161117.427000", "161117.430000", "161117.433000", "161117.436000", "161117.439000"],
