{
  "AcquisitionMatrixPE": 104,
  "AcquisitionNumber": 1,
  "AcquisitionTime": "15:34:4.755000",
  "BandwidthPerPixelPhaseEncode": 17.17,
  "BaseResolution": 104,
  "BodyPartExamined": "BRAIN",
  "CoilString": "HC1-7;NC1_2",
  "ConsistencyInfo": "N4_VE11C_LATEST_20160120",
  "ConversionSoftware": "dcm2niix",
  "ConversionSoftwareVersion": "v1.0.20190720  (JP2:OpenJPEG) GCC7.3.0",
  "DerivedVendorReportedEchoSpacing": 0.000560011,
  "DeviceSerialNumber": "167006",
  "DwellTime": 2.1e-06,
  "EchoTime": 0.037,
  "EchoTrainLength": 104,
  "EffectiveEchoSpacing": 0.000560011,
  "FlipAngle": 52,
  "ImageComments": "Unaliased_MB4_PE3_LB",
  "ImageOrientationPatientDICOM": [0.998524, -0.050373, 0.0203055, 0.054253, 0.907735, -0.416022],
  "ImageType": [
    "ORIGINAL",
    "PRIMARY",
    "M",
    "MB",
    "ND",
    "MOSAIC"
],
  "ImagingFrequency": 123.259,
  "InPlanePhaseEncodingDirectionDICOM": "COL",
  "InstitutionAddress": "Chemin_Queen-Mary_4565_Montreal_District_CA_H3W_1W5",
  "InstitutionName": "IUGM",
  "InstitutionalDepartmentName": "Department",
  "MRAcquisitionType": "2D",
  "MagneticFieldStrength": 3,
  "Manufacturer": "Siemens",
  "ManufacturersModelName": "Prisma_fit",
  "Modality": "MR",
  "MultibandAccelerationFactor": 4,
  "PartialFourier": 1,
  "PatientPosition": "HFS",
  "PercentPhaseFOV": 100,
  "PhaseEncodingDirection": "j",
  "PhaseEncodingSteps": 104,
  "PhaseResolution": 1,
  "PixelBandwidth": 2290,
  "ProcedureStepDescription": "video_friends",
  "ProtocolName": "func_task-s01e02a",
  "PulseSequenceDetails": "%CustomerSeq%_cmrr_mbep2d_bold",
  "ReceiveCoilActiveElements": "HC1-7;NC1,2",
  "ReceiveCoilName": "HeadNeck_64",
  "ReconMatrixPE": 104,
  "RepetitionTime": 1.49,
  "SAR": 0.0300104,
  "ScanOptions": "FS",
  "ScanningSequence": "EP",
  "SequenceName": "epfid2d1_104",
  "SequenceVariant": "SK_SS",
  "SeriesDescription": "func_task-s01e02a",
  "SeriesNumber": 44,
  "ShimSetting": [633, -7281, -8855, 570, 42, -302, -25, -17],
  "SliceThickness": 2,
  "SliceTiming": [0, 0.785, 0.1, 0.8825, 0.1975, 0.98, 0.295, 1.08, 0.3925, 1.1775, 0.49, 1.275, 0.59, 1.3725, 0.6875, 0, 0.785, 0.1, 0.8825, 0.1975, 0.98, 0.295, 1.08, 0.3925, 1.1775, 0.49, 1.275, 0.59, 1.3725, 0.6875, 0, 0.785, 0.1, 0.8825, 0.1975, 0.98, 0.295, 1.08, 0.3925, 1.1775, 0.49, 1.275, 0.59, 1.3725, 0.6875, 0, 0.785, 0.1, 0.8825, 0.1975, 0.98, 0.295, 1.08, 0.3925, 1.1775, 0.49, 1.275, 0.59, 1.3725, 0.6875],
  "SoftwareVersions": "syngo_MR_E11",
  "SpacingBetweenSlices": 2,
  "StationName": "MRC35049",
  "TaskName": "friends",
  "TotalReadoutTime": 0.0576811,
  "TxRefAmp": 227.312,
  "WipMemBlock": "e8c16270-5ff3-41fc-8190-d8851473f656||Sequence: R016 ve11c/master r/e634e98; Dec 19 2017 11:00:25 by eja",
  "dcmmeta_affine": [
    [-1.997048020362854, 0.10850591957569122, -0.005048569291830063, 97.02053833007812],
    [0.10074608027935028, 1.815469741821289, -0.8330186009407043, -72.95211791992188],
    [0.040610965341329575, 0.8320434093475342, 1.81825590133667, -77.89495849609375],
    [0.0, 0.0, 0.0, 1.0]
],
  "dcmmeta_reorient_transform": [
    [0.0, -1.0, 0.0, 103.0],
    [1.0, 0.0, 0.0, 0.0],
    [0.0, 0.0, 1.0, 0.0],
    [0.0, 0.0, 0.0, 1.0]
],
  "dcmmeta_shape": [104, 104, 60, 472],
  "dcmmeta_slice_dim": 2,
  "dcmmeta_version": 0.6,
  "global": {
    "const": {
      "AcquisitionMatrix": [104, 0, 0, 104],
      "AngioFlag": "N",
      "BitsAllocated": 16,
      "BitsStored": 16,
      "BodyPartExamined": "BRAIN",
      "Columns": 832,
      "EchoNumbers": 1,
      "EchoTime": 37.0,
      "EchoTrainLength": 104,
      "FlipAngle": 52.0,
      "HighBit": 15,
      "ImageOrientationPatient": [0.99852403288137, -0.0503730399807, 0.02030548205354, 0.05425296070483, 0.90773484665606, -0.416021711478],
      "ImagePositionPatient": [-874.61830220582, -738.20065257898, 295.88693056057],
      "ImageType": [
        "ORIGINAL",
        "PRIMARY",
        "M",
        "MB",
        "ND",
        "MOSAIC"
],
      "ImagedNucleus": "1H",
      "ImagingFrequency": 123.259377,
      "InPlanePhaseEncodingDirection": "COL",
      "MRAcquisitionType": "2D",
      "MagneticFieldStrength": 3.0,
      "Manufacturer": "SIEMENS",
      "ManufacturerModelName": "Prisma_fit",
      "Modality": "MR",
      "NumberOfAverages": 1.0,
      "NumberOfPhaseEncodingSteps": 104,
      "PercentPhaseFieldOfView": 100.0,
      "PercentSampling": 100.0,
      "PerformedProcedureStepStartTime": "130237.452000",
      "PhotometricInterpretation": "MONOCHROME2",
      "PixelBandwidth": 2290.0,
      "PixelRepresentation": 0,
      "PixelSpacing": [2.0, 2.0],
      "ProtocolName": "func_task-s01e02a",
      "RepetitionTime": 1490.0,
      "Rows": 832,
      "SAR": 0.03001035865439,
      "SamplesPerPixel": 1,
      "ScanOptions": "FS",
      "ScanningSequence": "EP",
      "SequenceName": "epfid2d1_104",
      "SequenceVariant": [
        "SK",
        "SS"
],
      "SeriesDescription": "func_task-s01e02a",
      "SeriesNumber": 44,
      "SeriesTime": "153538.625000",
      "SliceLocation": -40.676152189026,
      "SliceThickness": 2.0,
      "SmallestImagePixelValue": 0,
      "SoftwareVersions": "syngo MR E11",
      "SpacingBetweenSlices": 1.9999999671031,
      "SpecificCharacterSet": "ISO_IR 100",
      "StudyID": "1",
      "StudyTime": "130237.300000",
      "TransmitCoilName": "Body",
      "VariableFlipAngleFlag": "N",
      "WindowCenterWidthExplanation": "Algo1",
      "dBdt": 0.0},
    "slices": {}
  },
  "time": {
    "samples": {
      "AcquisitionNumber": [1, 2, 3, 4, 5, 6, 7, 8, 9, 10, 11, 12, 13, 14, 15, 16, 17, 18, 19, 20, 21, 22, 23, 24, 25, 26, 27, 28, 29, 30, 31, 32, 33, 34, 35, 36, 37, 38, 39, 40, 41, 42, 43, 44, 45, 46, 47, 48, 49, 50, 51, 52, 53, 54, 55, 56, 57, 58, 59, 60, 61, 62, 63, 64, 65, 66, 67, 68, 69, 70, 71, 72, 73, 74, 75, 76, 77, 78, 79, 80, 81, 82, 83, 84, 85, 86, 87, 88, 89, 90, 91, 92, 93, 94, 95, 96, 97, 98, 99, 100, 101, 102, 103, 104, 105, 106, 107, 108, 109, 110, 111, 112, 113, 114, 115, 116, 117, 118, 119, 120, 121, 122, 123, 124, 125, 126, 127, 128, 129, 130, 131, 132, 133, 134, 135, 136, 137, 138, 139, 140, 141, 142, 143, 144, 145, 146, 147, 148, 149, 150, 151, 152, 153, 154, 155, 156, 157, 158, 159, 160, 161, 162, 163, 164, 165, 166, 167, 168, 169, 170, 171, 172, 173, 174, 175, 176, 177, 178, 179, 180, 181, 182, 183, 184, 185, 186, 187, 188, 189, 190, 191, 192, 193, 194, 195, 196, 197, 198, 199, 200, 201, 202, 203, 204, 205, 206, 207, 208, 209, 210, 211, 212, 213, 214, 215, 216, 217, 218, 219, 220, 221, 222, 223, 224, 225, 226, 227, 228, 229, 230, 231, 232, 233, 234, 235, 236, 237, 238, 239, 240, 241, 242, 243, 244, 245, 246, 247, 248, 249, 250, 251, 252, 253, 254, 255, 256, 257, 258, 259, 260, 261, 262, 263, 264, 265, 266, 267, 268, 269, 270, 271, 272, 273, 274, 275, 276, 277, 278, 279, 280, 281, 282, 283, 284, 285, 286, 287, 288, 289, 290, 291, 292, 293, 294, 295, 296, 297, 298, 299, 300, 301, 302, 303, 304, 305, 306, 307, 308, 309, 310, 311, 312, 313, 314, 315, 316, 317, 318, 319, 320, 321, 322, 323, 324, 325, 326, 327, 328, 329, 330, 331, 332, 333, 334, 335, 336, 337, 338, 339, 340, 341, 342, 343, 344, 345, 346, 347, 348, 349, 350, 351, 352, 353, 354, 355, 356, 357, 358, 359, 360, 361, 362, 363, 364, 365, 366, 367, 368, 369, 370, 371, 372, 373, 374, 375, 376, 377, 378, 379, 380, 381, 382, 383, 384, 385, 386, 387, 388, 389, 390, 391, 392, 393, 394, 395, 396, 397, 398, 399, 400, 401, 402, 403, 404, 405, 406, 407, 408, 409, 410, 411, 412, 413, 414, 415, 416, 417, 418, 419, 420, 421, 422, 423, 424, 425, 426, 427, 428, 429, 430, 431, 432, 433, 434, 435, 436, 437, 438, 439, 440, 441, 442, 443, 444, 445, 446, 447, 448, 449, 450, 451, 452, 453, 454, 455, 456, 457, 458, 459, 460, 461, 462, 463, 464, 465, 466, 467, 468, 469, 470, 471, 472],
      "AcquisitionTime": ["153404.755000", "153406.245000", "153407.735000", "153409.225000", "153410.715000", "153412.205000", "153413.695000", "153415.185000", "153416.675000", "153418.165000", "153419.655000", "153421.145000", "153422.635000", "153424.125000", "153425.615000", "153427.105000", "153428.595000", "153430.085000", "153431.575000", "153433.065000", "153434.555000", "153436.045000", "153437.535000", "153439.025000", "153440.515000", "153442.005000", "153443.495000", "153444.985000", "153446.475000", "153447.965000", "153449.455000", "153450.945000", "153452.435000", "153453.925000", "153455.415000", "153456.905000", "153458.395000", "153459.885000", "153501.375000", "153502.865000", "153504.355000", "153505.845000", "153507.335000", "153508.825000", "153510.315000", "153511.805000", "153513.295000", "153514.785000", "153516.275000", "153517.765000", "153519.255000", "153520.745000", "153522.235000", "153523.725000", "153525.215000", "153526.705000", "153528.195000", "153529.685000", "153531.175000", "153532.665000", "153534.155000", "153535.645000", "153537.135000", "153538.625000", "153540.115000", "153541.605000", "153543.095000", "153544.585000", "153546.075000", "153547.565000", "153549.055000", "153550.545000", "153552.035000", "153553.525000", "153555.015000", "153556.505000", "153557.995000", "153559.485000", "153600.975000", "153602.465000", "153603.955000", "153605.445000", "153606.935000", "153608.425000", "153609.915000", "153611.405000", "153612.895000", "153614.385000", "153615.875000", "153617.365000", "153618.855000", "153620.345000", "153621.835000", "153623.325000", "153624.815000", "153626.305000", "153627.795000", "153629.285000", "153630.775000", "153632.265000", "153633.755000", "153635.245000", "153636.735000", "153638.225000", "153639.715000", "153641.205000", "153642.695000", "153644.185000", "153645.675000", "153647.165000", "153648.655000", "153650.145000", "153651.635000", "153653.125000", "153654.615000", "153656.105000", "153657.595000", "153659.085000", "153700.575000", "153702.065000", "153703.555000", "153705.045000", "153706.535000", "153708.025000", "153709.515000", "153711.005000", "153712.495000", "153713.985000", "153715.475000", "153716.965000", "153718.455000", "153719.945000", "153721.435000", "153722.925000", "153724.415000", "153725.905000", "153727.395000", "153728.885000", "153730.375000", "153731.865000", "153733.355000", "153734.845000", "153736.335000", "153737.825000", "153739.315000", "153740.805000", "153742.295000", "153743.785000", "153745.275000", "153746.765000", "153748.255000", "153749.745000", "153751.235000", "153752.725000", "153754.215000", "153755.705000", "153757.195000", "153758.685000", "153800.175000", "153801.665000", "153803.155000", "153804.645000", "153806.135000", "153807.625000", "153809.115000", "153810.605000", "153812.095000", "153813.585000", "153815.075000", "153816.565000", "153818.055000", "153819.545000", "153821.035000", "153822.525000", "153824.015000", "153825.505000", "153826.995000", "153828.485000", "153829.975000", "153831.465000", "153832.955000", "153834.445000", "153835.935000", "153837.425000", "153838.915000", "153840.405000", "153841.895000", "153843.385000", "153844.875000", "153846.365000", "153847.855000", "153849.345000", "153850.835000", "153852.325000", "153853.815000", "153855.305000", "153856.795000", "153858.285000", "153859.775000", "153901.265000", "153902.755000", "153904.245000", "153905.735000", "153907.225000", "153908.715000", "153910.205000", "153911.695000", "153913.185000", "153914.675000", "153916.165000", "153917.655000", "153919.145000", "153920.635000", "153922.125000", "153923.615000", "153925.105000", "153926.595000", "153928.085000", "153929.575000", "153931.065000", "153932.555000", "153934.045000", "153935.535000", "153937.025000", "153938.515000", "153940.005000", "153941.495000", "153942.985000", "153944.475000", "153945.965000", "153947.455000", "153948.945000", "153950.435000", "153951.925000", "153953.415000", "153954.905000", "153956.395000", "153957.885000", "153959.375000", "154000.865000", "154002.355000", "154003.845000", "154005.335000", "154006.825000", "154008.315000", "154009.805000", "154011.295000", "154012.785000", "154014.275000", "154015.765000", "154017.255000", "154018.745000", "154020.235000", "154021.725000", "154023.215000", "154024.705000", "154026.195000", "154027.685000", "154029.175000", "154030.665000", "154032.155000", "154033.645000", "154035.135000", "154036.625000", "154038.115000", "154039.605000", "154041.095000", "154042.585000", "154044.075000", "154045.565000", "154047.055000", "154048.545000", "154050.035000", "154051.525000", "154053.015000", "154054.505000", "154055.995000", "154057.485000", "154058.975000", "154100.465000", "154101.955000", "154103.445000", "154104.935000", "154106.425000", "154107.915000", "154109.405000", "154110.895000", "154112.385000", "154113.875000", "154115.365000", "154116.855000", "154118.345000", "154119.835000", "154121.325000", "154122.815000", "154124.305000", "154125.795000", "154127.285000", "154128.775000", "154130.265000", "154131.755000", "154133.245000", "154134.735000", "154136.225000", "154137.715000", "154139.205000", "154140.695000", "154142.185000", "154143.675000", "154145.165000", "154146.655000", "154148.145000", "154149.635000", "154151.125000", "154152.615000", "154154.105000", "154155.595000", "154157.085000", "154158.575000", "154200.065000", "154201.555000", "154203.045000", "154204.535000", "154206.025000", "154207.515000", "154209.005000", "154210.495000", "154211.985000", "154213.475000", "154214.965000", "154216.455000", "154217.945000", "154219.435000", "154220.925000", "154222.415000", "154223.905000", "154225.395000", "154226.885000", "154228.375000", "154229.865000", "154231.355000", "154232.845000", "154234.335000", "154235.825000", "154237.315000", "154238.805000", "154240.295000", "154241.785000", "154243.275000", "154244.765000", "154246.255000", "154247.745000", "154249.235000", "154250.725000", "154252.215000", "154253.705000", "154255.195000", "154256.685000", "154258.175000", "154259.665000", "154301.155000", "154302.645000", "154304.135000", "154305.625000", "154307.115000", "154308.605000", "154310.095000", "154311.585000", "154313.075000", "154314.565000", "154316.055000", "154317.545000", "154319.035000", "154320.525000", "154322.015000", "154323.505000", "154324.995000", "154326.485000", "154327.975000", "154329.465000", "154330.955000", "154332.445000", "154333.935000", "154335.425000", "154336.915000", "154338.405000", "154339.895000", "154341.385000", "154342.875000", "154344.365000", "154345.855000", "154347.345000", "154348.835000", "154350.325000", "154351.815000", "154353.305000", "154354.795000", "154356.285000", "154357.775000", "154359.265000", "154400.755000", "154402.245000", "154403.735000", "154405.225000", "154406.715000", "154408.205000", "154409.695000", "154411.185000", "154412.675000", "154414.165000", "154415.655000", "154417.145000", "154418.635000", "154420.125000", "154421.615000", "154423.105000", "154424.595000", "154426.085000", "154427.575000", "154429.065000", "154430.555000", "154432.045000", "154433.535000", "154435.025000", "154436.515000", "154438.005000", "154439.495000", "154440.985000", "154442.475000", "154443.965000", "154445.455000", "154446.945000", "154448.435000", "154449.925000", "154451.415000", "154452.905000", "154454.395000", "154455.885000", "154457.375000", "154458.865000", "154500.355000", "154501.845000", "154503.335000", "154504.825000", "154506.315000", "154507.805000", "154509.295000", "154510.785000", "154512.275000", "154513.765000", "154515.255000", "154516.745000", "154518.235000", "154519.725000", "154521.215000", "154522.705000", "154524.195000", "154525.685000", "154527.175000", "154528.665000", "154530.155000", "154531.645000", "154533.135000", "154534.625000", "154536.115000", "154537.605000", "154539.095000", "154540.585000", "154542.075000", "154543.565000", "154545.055000", "154546.545000"],
      "ContentTime": ["153538.627000", "153538.631000", "153538.634000", "153538.636000", "153538.639000", "153538.642000", "153538.645000", "153538.648000", "153538.651000", "153538.654000", "153538.657000", "153538.660000", "153538.663000", "153538.666000", "153538.669000", "153538.671000", "153538.674000", "153538.677000", "153538.680000", "153538.683000", "153538.686000", "153538.689000", "153538.692000", "153538.695000", "153538.698000", "153538.701000", "153538.704000", "153538.706000", "153538.709000", "153538.712000", "153538.715000", "153538.718000", "153538.721000", "153538.724000", "153538.737000", "153538.740000", "153538.744000", "153538.748000", "153558.588000", "153558.591000", "153558.594000", "153558.597000", "153558.600000", "153558.603000", "153558.606000", "153558.608000", "153558.611000", "153558.624000", "153558.627000", "153558.630000", "153558.632000", "153558.635000", "153558.638000", "153558.641000", "153558.644000", "153558.647000", "153558.650000", "153558.653000", "153618.587000", "153618.590000", "153618.593000", "153618.596000", "153618.599000", "153618.602000", "153618.605000", "153618.607000", "153618.610000", "153618.613000", "153618.616000", "153618.619000", "153618.622000", "153618.625000", "153618.628000", "153618.631000", "153618.633000", "153618.636000", "153618.639000", "153618.642000", "153618.645000", "153638.587000", "153638.590000", "153638.593000", "153638.596000", "153638.599000", "153638.602000", "153638.605000", "153638.607000", "153638.610000", "153638.613000", "153638.616000", "153638.626000", "153638.629000", "153638.632000", "153638.635000", "153638.638000", "153638.641000", "153638.644000", "153638.647000", "153638.649000", "153718.587000", "153718.590000", "153718.593000", "153718.596000", "153718.599000", "153718.602000", "153718.605000", "153718.608000", "153718.611000", "153718.614000", "153718.616000", "153718.619000", "153718.622000", "153718.625000", "153718.628000", "153718.631000", "153718.634000", "153718.637000", "153718.640000", "153718.642000", "153718.645000", "153718.648000", "153718.651000", "153718.654000", "153718.657000", "153718.660000", "153718.663000", "153718.666000", "153718.668000", "153718.671000", "153758.588000", "153758.591000", "153758.594000", "153758.597000", "153758.600000", "153758.603000", "153758.606000", "153758.609000", "153758.611000", "153758.614000", "153758.617000", "153758.620000", "153758.623000", "153758.626000", "153758.629000", "153758.632000", "153758.635000", "153758.638000", "153758.641000", "153758.644000", "153758.646000", "153758.649000", "153758.652000", "153758.655000", "153758.658000", "153758.661000", "153758.664000", "153838.587000", "153838.590000", "153838.593000", "153838.596000", "153838.599000", "153838.602000", "153838.605000", "153838.608000", "153838.611000", "153838.614000", "153838.616000", "153838.619000", "153838.622000", "153838.625000", "153838.628000", "153838.631000", "153838.634000", "153838.637000", "153838.640000", "153838.643000", "153838.646000", "153838.649000", "153838.652000", "153838.654000", "153838.657000", "153838.660000", "153838.663000", "153918.587000", "153918.591000", "153918.594000", "153918.597000", "153918.600000", "153918.603000", "153918.606000", "153918.609000", "153918.612000", "153918.614000", "153918.617000", "153918.620000", "153918.623000", "153918.626000", "153918.629000", "153918.632000", "153918.635000", "153918.638000", "153918.641000", "153918.643000", "153918.646000", "153918.649000", "153918.652000", "153918.655000", "153918.658000", "153918.661000", "153918.664000", "153958.587000", "153958.590000", "153958.593000", "153958.596000", "153958.599000", "153958.602000", "153958.605000", "153958.608000", "153958.611000", "153958.613000", "153958.616000", "153958.619000", "153958.622000", "153958.625000", "153958.628000", "153958.631000", "153958.634000", "153958.637000", "153958.640000", "153958.643000", "153958.646000", "153958.649000", "153958.652000", "153958.654000", "153958.657000", "153958.660000", "153958.663000", "154038.588000", "154038.591000", "154038.594000", "154038.597000", "154038.600000", "154038.603000", "154038.606000", "154038.609000", "154038.612000", "154038.615000", "154038.618000", "154038.620000", "154038.623000", "154038.626000", "154038.629000", "154038.632000", "154038.635000", "154038.638000", "154038.641000", "154038.644000", "154038.647000", "154038.649000", "154038.652000", "154038.655000", "154038.658000", "154038.661000", "154038.664000", "154118.587000", "154118.590000", "154118.593000", "154118.596000", "154118.599000", "154118.602000", "154118.605000", "154118.608000", "154118.611000", "154118.614000", "154118.617000", "154118.620000", "154118.622000", "154118.625000", "154118.628000", "154118.631000", "154118.634000", "154118.637000", "154118.640000", "154118.643000", "154118.646000", "154118.649000", "154118.652000", "154118.655000", "154118.658000", "154118.661000", "154158.587000", "154158.590000", "154158.593000", "154158.596000", "154158.599000", "154158.602000", "154158.605000", "154158.608000", "154158.611000", "154158.613000", "154158.616000", "154158.619000", "154158.622000", "154158.625000", "154158.628000", "154158.631000", "154158.634000", "154158.637000", "154158.640000", "154158.642000", "154158.645000", "154158.648000", "154158.651000", "154158.654000", "154158.657000", "154158.660000", "154158.663000", "154238.588000", "154238.591000", "154238.594000", "154238.597000", "154238.600000", "154238.603000", "154238.606000", "154238.609000", "154238.612000", "154238.615000", "154238.618000", "154238.621000", "154238.624000", "154238.627000", "154238.630000", "154238.633000", "154238.636000", "154238.639000", "154238.641000", "154238.644000", "154238.647000", "154238.650000", "154238.653000", "154238.656000", "154238.659000", "154238.662000", "154238.665000", "154318.587000", "154318.590000", "154318.593000", "154318.596000", "154318.599000", "154318.602000", "154318.605000", "154318.608000", "154318.611000", "154318.614000", "154318.617000", "154318.620000", "154318.622000", "154318.625000", "154318.628000", "154318.631000", "154318.634000", "154318.637000", "154318.640000", "154318.643000", "154318.646000", "154318.649000", "154318.652000", "154318.654000", "154318.657000", "154318.660000", "154318.663000", "154358.587000", "154358.590000", "154358.593000", "154358.596000", "154358.599000", "154358.602000", "154358.605000", "154358.608000", "154358.611000", "154358.614000", "154358.617000", "154358.620000", "154358.623000", "154358.626000", "154358.629000", "154358.631000", "154358.634000", "154358.637000", "154358.640000", "154358.643000", "154358.646000", "154358.649000", "154358.652000", "154358.655000", "154358.658000", "154358.661000", "154358.664000", "154438.587000", "154438.590000", "154438.593000", "154438.602000", "154438.605000", "154438.608000", "154438.611000", "154438.614000", "154438.617000", "154438.619000", "154438.622000", "154438.625000", "154438.628000", "154438.631000", "154438.634000", "154438.637000", "154438.640000", "154438.643000", "154438.646000", "154438.649000", "154438.652000", "154438.655000", "154438.658000", "154438.660000", "154438.663000", "154438.666000", "154438.669000", "154518.588000", "154518.591000", "154518.594000", "154518.597000", "154518.601000", "154518.604000", "154518.607000", "154518.610000", "154518.614000", "154518.617000", "154518.620000", "154518.623000", "154518.626000", "154518.629000", "154518.632000", "154518.634000", "154518.637000", "154518.640000", "154518.643000", "154518.646000", "154518.649000", "154518.652000", "154518.655000", "154518.658000", "154518.661000", "154518.664000", "154548.448000", "154548.451000", "154548.454000", "154548.458000", "154548.460000", "154548.464000", "154548.467000", "154548.470000", "154548.474000", "154548.477000", "154548.479000", "154548.482000", "154548.485000", "154548.488000", "154548.491000", "154548.494000", "154548.497000", "154548.500000", "154548.503000", "154548.513000", "154548.516000"],
