{
  "AcquisitionMatrixPE": 104,
  "AcquisitionNumber": 1,
  "AcquisitionTime": "14:39:22.522500",
  "BandwidthPerPixelPhaseEncode": 17.17,
  "BaseResolution": 104,
  "BodyPartExamined": "BRAIN",
  "CoilString": "HC1-7;NC1_2",
  "ConsistencyInfo": "N4_VE11C_LATEST_20160120",
  "ConversionSoftware": "dcm2niix",
  "ConversionSoftwareVersion": "v1.0.20190720  (JP2:OpenJPEG) GCC7.3.0",
  "DerivedVendorReportedEchoSpacing": 0.000560011,
  "DeviceSerialNumber": "167006",
  "DwellTime": 2.1e-06,
  "EchoTime": 0.037,
  "EchoTrainLength": 104,
  "EffectiveEchoSpacing": 0.000560011,
  "FlipAngle": 52,
  "ImageComments": "Unaliased_MB4_PE3_LB",
  "ImageOrientationPatientDICOM": [0.997389, -0.0694963, 0.0196273, 0.0716688, 0.91923, -0.387144],
  "ImageType": [
    "ORIGINAL",
    "PRIMARY",
    "M",
    "MB",
    "ND",
    "MOSAIC"
],
  "ImagingFrequency": 123.259,
  "InPlanePhaseEncodingDirectionDICOM": "COL",
  "InstitutionAddress": "Chemin_Queen-Mary_4565_Montreal_District_CA_H3W_1W5",
  "InstitutionName": "IUGM",
  "InstitutionalDepartmentName": "Department",
  "MRAcquisitionType": "2D",
  "MagneticFieldStrength": 3,
  "Manufacturer": "Siemens",
  "ManufacturersModelName": "Prisma_fit",
  "Modality": "MR",
  "MultibandAccelerationFactor": 4,
  "PartialFourier": 1,
  "PatientPosition": "HFS",
  "PercentPhaseFOV": 100,
  "PhaseEncodingDirection": "j",
  "PhaseEncodingSteps": 104,
  "PhaseResolution": 1,
  "PixelBandwidth": 2290,
  "ProcedureStepDescription": "video_friends",
  "ProtocolName": "func_task-s01e04a",
  "PulseSequenceDetails": "%CustomerSeq%_cmrr_mbep2d_bold",
  "ReceiveCoilActiveElements": "HC1-7;NC1,2",
  "ReceiveCoilName": "HeadNeck_64",
  "ReconMatrixPE": 104,
  "RepetitionTime": 1.49,
  "SAR": 0.0300093,
  "ScanOptions": "FS",
  "ScanningSequence": "EP",
  "SequenceName": "epfid2d1_104",
  "SequenceVariant": "SK_SS",
  "SeriesDescription": "func_task-s01e04a",
  "SeriesNumber": 30,
  "ShimSetting": [633, -7278, -8855, 569, 34, -288, -44, -23],
  "SliceThickness": 2,
  "SliceTiming": [0, 0.785, 0.0975, 0.8825, 0.1975, 0.98, 0.295, 1.0775, 0.3925, 1.1775, 0.49, 1.275, 0.5875, 1.3725, 0.6875, 0, 0.785, 0.0975, 0.8825, 0.1975, 0.98, 0.295, 1.0775, 0.3925, 1.1775, 0.49, 1.275, 0.5875, 1.3725, 0.6875, 0, 0.785, 0.0975, 0.8825, 0.1975, 0.98, 0.295, 1.0775, 0.3925, 1.1775, 0.49, 1.275, 0.5875, 1.3725, 0.6875, 0, 0.785, 0.0975, 0.8825, 0.1975, 0.98, 0.295, 1.0775, 0.3925, 1.1775, 0.49, 1.275, 0.5875, 1.3725, 0.6875],
  "SoftwareVersions": "syngo_MR_E11",
  "SpacingBetweenSlices": 2,
  "StationName": "MRC35049",
  "TaskName": "friends",
  "TotalReadoutTime": 0.0576811,
  "TxRefAmp": 227.312,
  "WipMemBlock": "8f55eb65-2520-40d1-b6bd-a7974d9b363c||Sequence: R016 ve11c/master r/e634e98; Dec 19 2017 11:00:25 by eja",
  "dcmmeta_affine": [
    [-1.9947782754898071, 0.14333753287792206, -0.017726117745041847, 95.35079956054688],
    [0.13899260759353638, 1.8384596109390259, -0.7750788927078247, -76.56263732910156],
    [0.0392545722424984, 0.7742871046066284, 1.843621015548706, -76.73834228515625],
    [0.0, 0.0, 0.0, 1.0]
],
  "dcmmeta_reorient_transform": [
    [0.0, -1.0, 0.0, 103.0],
    [1.0, 0.0, 0.0, 0.0],
    [0.0, 0.0, 1.0, 0.0],
    [0.0, 0.0, 0.0, 1.0]
],
  "dcmmeta_shape": [104, 104, 60, 468],
  "dcmmeta_slice_dim": 2,
  "dcmmeta_version": 0.6,
  "global": {
    "const": {
      "AcquisitionMatrix": [104, 0, 0, 104],
      "AngioFlag": "N",
      "BitsAllocated": 16,
      "BitsStored": 16,
      "BodyPartExamined": "BRAIN",
      "Columns": 832,
      "EchoNumbers": 1,
      "EchoTime": 37.0,
      "EchoTrainLength": 104,
      "FlipAngle": 52.0,
      "HighBit": 15,
      "ImageOrientationPatient": [0.99738910849068, -0.0694963011415, 0.0196272869194, 0.07166876905677, 0.91922981221843, -0.3871435649352],
      "ImagePositionPatient": [-888.38870013904, -731.4047014278, 270.56508536238],
      "ImageType": [
        "ORIGINAL",
        "PRIMARY",
        "M",
        "MB",
        "ND",
        "MOSAIC"
],
      "ImagedNucleus": "1H",
      "ImagingFrequency": 123.259372,
      "InPlanePhaseEncodingDirection": "COL",
      "MRAcquisitionType": "2D",
      "MagneticFieldStrength": 3.0,
      "Manufacturer": "SIEMENS",
      "ManufacturerModelName": "Prisma_fit",
      "Modality": "MR",
      "NumberOfAverages": 1.0,
      "NumberOfPhaseEncodingSteps": 104,
      "PercentPhaseFieldOfView": 100.0,
      "PercentSampling": 100.0,
      "PerformedProcedureStepStartTime": "130237.452000",
      "PhotometricInterpretation": "MONOCHROME2",
      "PixelBandwidth": 2290.0,
      "PixelRepresentation": 0,
      "PixelSpacing": [2.0, 2.0],
      "ProtocolName": "func_task-s01e04a",
      "RepetitionTime": 1490.0,
      "Rows": 832,
      "SAR": 0.03000928678979,
      "SamplesPerPixel": 1,
      "ScanOptions": "FS",
      "ScanningSequence": "EP",
      "SequenceName": "epfid2d1_104",
      "SequenceVariant": [
        "SK",
        "SS"
],
      "SeriesDescription": "func_task-s01e04a",
      "SeriesNumber": 30,
      "SeriesTime": "144056.352000",
      "SliceLocation": -41.912267100334,
      "SliceThickness": 2.0,
      "SmallestImagePixelValue": 0,
      "SoftwareVersions": "syngo MR E11",
      "SpacingBetweenSlices": 2.0000000419061,
      "SpecificCharacterSet": "ISO_IR 100",
      "StudyID": "1",
      "StudyTime": "130237.300000",
      "TransmitCoilName": "Body",
      "VariableFlipAngleFlag": "N",
      "WindowCenterWidthExplanation": "Algo1",
      "dBdt": 0.0},
    "slices": {}
  },
  "time": {
    "samples": {
      "AcquisitionNumber": [1, 2, 3, 4, 5, 6, 7, 8, 9, 10, 11, 12, 13, 14, 15, 16, 17, 18, 19, 20, 21, 22, 23, 24, 25, 26, 27, 28, 29, 30, 31, 32, 33, 34, 35, 36, 37, 38, 39, 40, 41, 42, 43, 44, 45, 46, 47, 48, 49, 50, 51, 52, 53, 54, 55, 56, 57, 58, 59, 60, 61, 62, 63, 64, 65, 66, 67, 68, 69, 70, 71, 72, 73, 74, 75, 76, 77, 78, 79, 80, 81, 82, 83, 84, 85, 86, 87, 88, 89, 90, 91, 92, 93, 94, 95, 96, 97, 98, 99, 100, 101, 102, 103, 104, 105, 106, 107, 108, 109, 110, 111, 112, 113, 114, 115, 116, 117, 118, 119, 120, 121, 122, 123, 124, 125, 126, 127, 128, 129, 130, 131, 132, 133, 134, 135, 136, 137, 138, 139, 140, 141, 142, 143, 144, 145, 146, 147, 148, 149, 150, 151, 152, 153, 154, 155, 156, 157, 158, 159, 160, 161, 162, 163, 164, 165, 166, 167, 168, 169, 170, 171, 172, 173, 174, 175, 176, 177, 178, 179, 180, 181, 182, 183, 184, 185, 186, 187, 188, 189, 190, 191, 192, 193, 194, 195, 196, 197, 198, 199, 200, 201, 202, 203, 204, 205, 206, 207, 208, 209, 210, 211, 212, 213, 214, 215, 216, 217, 218, 219, 220, 221, 222, 223, 224, 225, 226, 227, 228, 229, 230, 231, 232, 233, 234, 235, 236, 237, 238, 239, 240, 241, 242, 243, 244, 245, 246, 247, 248, 249, 250, 251, 252, 253, 254, 255, 256, 257, 258, 259, 260, 261, 262, 263, 264, 265, 266, 267, 268, 269, 270, 271, 272, 273, 274, 275, 276, 277, 278, 279, 280, 281, 282, 283, 284, 285, 286, 287, 288, 289, 290, 291, 292, 293, 294, 295, 296, 297, 298, 299, 300, 301, 302, 303, 304, 305, 306, 307, 308, 309, 310, 311, 312, 313, 314, 315, 316, 317, 318, 319, 320, 321, 322, 323, 324, 325, 326, 327, 328, 329, 330, 331, 332, 333, 334, 335, 336, 337, 338, 339, 340, 341, 342, 343, 344, 345, 346, 347, 348, 349, 350, 351, 352, 353, 354, 355, 356, 357, 358, 359, 360, 361, 362, 363, 364, 365, 366, 367, 368, 369, 370, 371, 372, 373, 374, 375, 376, 377, 378, 379, 380, 381, 382, 383, 384, 385, 386, 387, 388, 389, 390, 391, 392, 393, 394, 395, 396, 397, 398, 399, 400, 401, 402, 403, 404, 405, 406, 407, 408, 409, 410, 411, 412, 413, 414, 415, 416, 417, 418, 419, 420, 421, 422, 423, 424, 425, 426, 427, 428, 429, 430, 431, 432, 433, 434, 435, 436, 437, 438, 439, 440, 441, 442, 443, 444, 445, 446, 447, 448, 449, 450, 451, 452, 453, 454, 455, 456, 457, 458, 459, 460, 461, 462, 463, 464, 465, 466, 467, 468],
      "AcquisitionTime": ["143922.522500", "143924.012500", "143925.502500", "143926.992500", "143928.482500", "143929.972500", "143931.462500", "143932.952500", "143934.442500", "143935.932500", "143937.422500", "143938.912500", "143940.402500", "143941.892500", "143943.382500", "143944.872500", "143946.362500", "143947.852500", "143949.342500", "143950.832500", "143952.322500", "143953.812500", "143955.302500", "143956.792500", "143958.282500", "143959.772500", "144001.262500", "144002.752500", "144004.242500", "144005.732500", "144007.222500", "144008.712500", "144010.202500", "144011.692500", "144013.182500", "144014.672500", "144016.162500", "144017.652500", "144019.142500", "144020.632500", "144022.122500", "144023.612500", "144025.102500", "144026.592500", "144028.082500", "144029.572500", "144031.062500", "144032.552500", "144034.042500", "144035.532500", "144037.022500", "144038.512500", "144040.002500", "144041.492500", "144042.982500", "144044.472500", "144045.962500", "144047.452500", "144048.942500", "144050.432500", "144051.922500", "144053.412500", "144054.902500", "144056.392500", "144057.882500", "144059.372500", "144100.862500", "144102.352500", "144103.842500", "144105.332500", "144106.822500", "144108.312500", "144109.802500", "144111.292500", "144112.782500", "144114.272500", "144115.762500", "144117.252500", "144118.742500", "144120.232500", "144121.722500", "144123.212500", "144124.702500", "144126.192500", "144127.682500", "144129.172500", "144130.662500", "144132.152500", "144133.642500", "144135.132500", "144136.622500", "144138.112500", "144139.602500", "144141.092500", "144142.582500", "144144.072500", "144145.562500", "144147.052500", "144148.542500", "144150.032500", "144151.522500", "144153.012500", "144154.502500", "144155.992500", "144157.482500", "144158.972500", "144200.462500", "144201.952500", "144203.442500", "144204.932500", "144206.422500", "144207.912500", "144209.402500", "144210.892500", "144212.382500", "144213.872500", "144215.362500", "144216.852500", "144218.342500", "144219.832500", "144221.322500", "144222.812500", "144224.302500", "144225.792500", "144227.282500", "144228.772500", "144230.262500", "144231.752500", "144233.242500", "144234.732500", "144236.222500", "144237.712500", "144239.202500", "144240.692500", "144242.182500", "144243.672500", "144245.162500", "144246.652500", "144248.142500", "144249.632500", "144251.122500", "144252.612500", "144254.102500", "144255.592500", "144257.082500", "144258.572500", "144300.062500", "144301.552500", "144303.042500", "144304.532500", "144306.022500", "144307.512500", "144309.002500", "144310.492500", "144311.982500", "144313.472500", "144314.962500", "144316.452500", "144317.942500", "144319.432500", "144320.922500", "144322.412500", "144323.902500", "144325.392500", "144326.882500", "144328.372500", "144329.862500", "144331.352500", "144332.842500", "144334.332500", "144335.822500", "144337.312500", "144338.802500", "144340.292500", "144341.782500", "144343.272500", "144344.762500", "144346.252500", "144347.742500", "144349.232500", "144350.722500", "144352.212500", "144353.702500", "144355.192500", "144356.682500", "144358.172500", "144359.662500", "144401.152500", "144402.642500", "144404.132500", "144405.622500", "144407.112500", "144408.602500", "144410.092500", "144411.582500", "144413.072500", "144414.562500", "144416.052500", "144417.542500", "144419.032500", "144420.522500", "144422.012500", "144423.502500", "144424.992500", "144426.482500", "144427.972500", "144429.462500", "144430.952500", "144432.442500", "144433.932500", "144435.422500", "144436.912500", "144438.402500", "144439.892500", "144441.382500", "144442.872500", "144444.362500", "144445.852500", "144447.342500", "144448.832500", "144450.322500", "144451.812500", "144453.302500", "144454.792500", "144456.282500", "144457.772500", "144459.262500", "144500.752500", "144502.242500", "144503.732500", "144505.222500", "144506.712500", "144508.202500", "144509.692500", "144511.182500", "144512.672500", "144514.162500", "144515.652500", "144517.142500", "144518.632500", "144520.122500", "144521.612500", "144523.102500", "144524.592500", "144526.082500", "144527.572500", "144529.062500", "144530.552500", "144532.042500", "144533.532500", "144535.022500", "144536.512500", "144538.002500", "144539.492500", "144540.982500", "144542.472500", "144543.962500", "144545.452500", "144546.942500", "144548.432500", "144549.922500", "144551.412500", "144552.902500", "144554.392500", "144555.882500", "144557.372500", "144558.862500", "144600.352500", "144601.842500", "144603.332500", "144604.822500", "144606.312500", "144607.802500", "144609.292500", "144610.782500", "144612.272500", "144613.762500", "144615.252500", "144616.742500", "144618.232500", "144619.722500", "144621.212500", "144622.702500", "144624.192500", "144625.682500", "144627.172500", "144628.662500", "144630.152500", "144631.642500", "144633.132500", "144634.622500", "144636.112500", "144637.602500", "144639.092500", "144640.582500", "144642.072500", "144643.562500", "144645.052500", "144646.542500", "144648.032500", "144649.522500", "144651.012500", "144652.502500", "144653.992500", "144655.482500", "144656.972500", "144658.462500", "144659.952500", "144701.442500", "144702.932500", "144704.422500", "144705.912500", "144707.402500", "144708.892500", "144710.382500", "144711.872500", "144713.362500", "144714.852500", "144716.342500", "144717.832500", "144719.322500", "144720.812500", "144722.302500", "144723.792500", "144725.282500", "144726.772500", "144728.262500", "144729.752500", "144731.242500", "144732.732500", "144734.222500", "144735.712500", "144737.202500", "144738.692500", "144740.182500", "144741.672500", "144743.162500", "144744.652500", "144746.142500", "144747.632500", "144749.122500", "144750.612500", "144752.102500", "144753.592500", "144755.082500", "144756.572500", "144758.062500", "144759.552500", "144801.042500", "144802.532500", "144804.022500", "144805.512500", "144807.002500", "144808.492500", "144809.982500", "144811.472500", "144812.962500", "144814.452500", "144815.942500", "144817.432500", "144818.922500", "144820.412500", "144821.902500", "144823.392500", "144824.882500", "144826.372500", "144827.862500", "144829.352500", "144830.842500", "144832.332500", "144833.822500", "144835.312500", "144836.802500", "144838.292500", "144839.782500", "144841.272500", "144842.762500", "144844.252500", "144845.742500", "144847.232500", "144848.722500", "144850.212500", "144851.702500", "144853.192500", "144854.682500", "144856.172500", "144857.662500", "144859.152500", "144900.642500", "144902.132500", "144903.622500", "144905.112500", "144906.602500", "144908.092500", "144909.582500", "144911.072500", "144912.562500", "144914.052500", "144915.542500", "144917.032500", "144918.522500", "144920.012500", "144921.502500", "144922.992500", "144924.482500", "144925.972500", "144927.462500", "144928.952500", "144930.442500", "144931.932500", "144933.422500", "144934.912500", "144936.402500", "144937.892500", "144939.382500", "144940.872500", "144942.362500", "144943.852500", "144945.342500", "144946.832500", "144948.322500", "144949.812500", "144951.302500", "144952.792500", "144954.282500", "144955.772500", "144957.262500", "144958.752500", "145000.242500", "145001.732500", "145003.222500", "145004.712500", "145006.202500", "145007.692500", "145009.182500", "145010.672500", "145012.162500", "145013.652500", "145015.142500", "145016.632500", "145018.122500", "145019.612500", "145021.102500", "145022.592500", "145024.082500", "145025.572500", "145027.062500", "145028.552500", "145030.042500", "145031.532500", "145033.022500", "145034.512500", "145036.002500", "145037.492500", "145038.982500", "145040.472500", "145041.962500", "145043.452500", "145044.942500", "145046.432500", "145047.922500", "145049.412500", "145050.902500", "145052.392500", "145053.882500", "145055.372500", "145056.862500", "145058.352500"],
      "ContentTime": ["144056.355000", "144056.358000", "144056.361000", "144056.364000", "144056.367000", "144056.370000", "144056.373000", "144056.376000", "144056.379000", "144056.382000", "144056.384000", "144056.387000", "144056.390000", "144056.393000", "144056.396000", "144056.399000", "144056.402000", "144056.405000", "144056.407000", "144056.410000", "144056.413000", "144056.416000", "144056.419000", "144056.422000", "144056.425000", "144056.428000", "144056.431000", "144056.433000", "144056.436000", "144056.439000", "144056.442000", "144056.445000", "144056.448000", "144056.451000", "144056.454000", "144056.456000", "144056.459000", "144056.462000", "144056.470000", "144056.473000", "144116.307000", "144116.310000", "144116.313000", "144116.316000", "144116.319000", "144116.322000", "144116.325000", "144116.327000", "144116.330000", "144116.333000", "144116.336000", "144116.339000", "144116.342000", "144116.345000", "144116.348000", "144116.351000", "144116.353000", "144116.356000", "144116.359000", "144116.362000", "144136.307000", "144136.310000", "144136.313000", "144136.316000", "144136.318000", "144136.321000", "144136.324000", "144136.327000", "144136.330000", "144136.333000", "144136.336000", "144136.339000", "144136.341000", "144136.344000", "144136.347000", "144136.350000", "144136.353000", "144136.356000", "144136.359000", "144136.373000", "144156.307000", "144156.321000", "144156.323000", "144156.326000", "144156.329000", "144156.332000", "144156.335000", "144156.338000", "144156.341000", "144156.343000", "144156.346000", "144156.350000", "144156.353000", "144156.355000", "144156.358000", "144156.361000", "144156.364000", "144156.367000", "144156.370000", "144156.373000", "144236.308000", "144236.311000", "144236.314000", "144236.317000", "144236.320000", "144236.323000", "144236.326000", "144236.328000", "144236.331000", "144236.334000", "144236.337000", "144236.340000", "144236.343000", "144236.346000", "144236.349000", "144236.351000", "144236.354000", "144236.357000", "144236.360000", "144236.363000", "144236.366000", "144236.369000", "144236.372000", "144236.383000", "144236.386000", "144236.389000", "144236.392000", "144236.395000", "144236.398000", "144316.308000", "144316.311000", "144316.314000", "144316.317000", "144316.320000", "144316.322000", "144316.325000", "144316.328000", "144316.331000", "144316.334000", "144316.341000", "144316.343000", "144316.346000", "144316.349000", "144316.352000", "144316.355000", "144316.358000", "144316.361000", "144316.364000", "144316.367000", "144316.369000", "144316.373000", "144316.376000", "144316.379000", "144316.381000", "144316.384000", "144316.387000", "144356.307000", "144356.310000", "144356.313000", "144356.316000", "144356.319000", "144356.322000", "144356.325000", "144356.328000", "144356.331000", "144356.334000", "144356.337000", "144356.340000", "144356.343000", "144356.345000", "144356.348000", "144356.351000", "144356.354000", "144356.357000", "144356.360000", "144356.363000", "144356.366000", "144356.369000", "144356.372000", "144356.374000", "144356.377000", "144356.380000", "144356.383000", "144436.307000", "144436.310000", "144436.313000", "144436.316000", "144436.319000", "144436.322000", "144436.325000", "144436.328000", "144436.330000", "144436.333000", "144436.336000", "144436.339000", "144436.342000", "144436.345000", "144436.348000", "144436.351000", "144436.354000", "144436.357000", "144436.359000", "144436.362000", "144436.365000", "144436.368000", "144436.371000", "144436.374000", "144436.377000", "144436.380000", "144436.383000", "144516.308000", "144516.311000", "144516.314000", "144516.317000", "144516.320000", "144516.323000", "144516.326000", "144516.329000", "144516.331000", "144516.334000", "144516.337000", "144516.340000", "144516.343000", "144516.346000", "144516.349000", "144516.352000", "144516.355000", "144516.357000", "144516.360000", "144516.363000", "144516.366000", "144516.369000", "144516.372000", "144516.375000", "144516.378000", "144516.381000", "144516.384000", "144556.307000", "144556.310000", "144556.313000", "144556.330000", "144556.333000", "144556.336000", "144556.339000", "144556.342000", "144556.345000", "144556.348000", "144556.351000", "144556.355000", "144556.358000", "144556.361000", "144556.371000", "144556.374000", "144556.377000", "144556.380000", "144556.383000", "144556.386000", "144556.389000", "144556.392000", "144556.395000", "144556.397000", "144556.400000", "144556.403000", "144636.307000", "144636.310000", "144636.313000", "144636.316000", "144636.319000", "144636.322000", "144636.325000", "144636.328000", "144636.330000", "144636.333000", "144636.336000", "144636.339000", "144636.342000", "144636.345000", "144636.348000", "144636.351000", "144636.354000", "144636.357000", "144636.360000", "144636.362000", "144636.365000", "144636.368000", "144636.371000", "144636.374000", "144636.377000", "144636.380000", "144636.383000", "144716.308000", "144716.311000", "144716.314000", "144716.317000", "144716.320000", "144716.323000", "144716.326000", "144716.329000", "144716.332000", "144716.335000", "144716.338000", "144716.340000", "144716.343000", "144716.346000", "144716.349000", "144716.352000", "144716.355000", "144716.358000", "144716.361000", "144716.368000", "144716.371000", "144716.373000", "144716.376000", "144716.379000", "144716.382000", "144716.385000", "144716.388000", "144756.308000", "144756.311000", "144756.314000", "144756.317000", "144756.320000", "144756.323000", "144756.326000", "144756.329000", "144756.332000", "144756.335000", "144756.338000", "144756.341000", "144756.344000", "144756.347000", "144756.350000", "144756.353000", "144756.356000", "144756.358000", "144756.361000", "144756.364000", "144756.367000", "144756.370000", "144756.373000", "144756.376000", "144756.379000", "144756.382000", "144756.385000", "144836.307000", "144836.313000", "144836.316000", "144836.319000", "144836.322000", "144836.325000", "144836.328000", "144836.330000", "144836.333000", "144836.336000", "144836.339000", "144836.342000", "144836.345000", "144836.348000", "144836.351000", "144836.354000", "144836.357000", "144836.359000", "144836.362000", "144836.365000", "144836.368000", "144836.371000", "144836.374000", "144836.377000", "144836.380000", "144836.383000", "144836.385000", "144916.307000", "144916.310000", "144916.313000", "144916.316000", "144916.319000", "144916.322000", "144916.325000", "144916.327000", "144916.330000", "144916.333000", "144916.336000", "144916.339000", "144916.342000", "144916.345000", "144916.348000", "144916.351000", "144916.354000", "144916.357000", "144916.359000", "144916.362000", "144916.365000", "144916.368000", "144916.371000", "144916.374000", "144916.377000", "144916.380000", "144916.383000", "144956.308000", "144956.311000", "144956.314000", "144956.317000", "144956.320000", "144956.323000", "144956.326000", "144956.329000", "144956.331000", "144956.334000", "144956.337000", "144956.340000", "144956.343000", "144956.346000", "144956.349000", "144956.352000", "144956.355000", "144956.358000", "144956.361000", "144956.363000", "144956.366000", "144956.369000", "144956.372000", "144956.375000", "144956.378000", "144956.381000", "144956.384000", "145036.307000", "145036.310000", "145036.313000", "145036.316000", "145036.331000", "145036.334000", "145036.337000", "145036.340000", "145036.343000", "145036.345000", "145036.348000", "145036.352000", "145036.355000", "145036.358000", "145036.361000", "145036.364000", "145036.367000", "145036.370000", "145036.373000", "145036.375000", "145036.378000", "145036.381000", "145036.384000", "145036.387000", "145036.390000", "145036.393000", "145100.404000", "145100.408000", "145100.411000", "145100.414000", "145100.417000", "145100.420000", "145100.423000", "145100.426000", "145100.429000", "145100.432000", "145100.435000", "145100.438000", "145100.441000", "145100.444000", "145100.447000", "145100.450000", "145100.452000"],
