{
  "AcquisitionMatrixPE": 104,
  "AcquisitionNumber": 1,
  "AcquisitionTime": "13:46:12.112500",
  "BandwidthPerPixelPhaseEncode": 17.17,
  "BaseResolution": 104,
  "BodyPartExamined": "BRAIN",
  "CoilString": "HC1-7;NC1_2",
  "ConsistencyInfo": "N4_VE11C_LATEST_20160120",
  "ConversionSoftware": "dcm2niix",
  "ConversionSoftwareVersion": "v1.0.20190720  (JP2:OpenJPEG) GCC7.3.0",
  "DerivedVendorReportedEchoSpacing": 0.000560011,
  "DeviceSerialNumber": "167006",
  "DwellTime": 2.1e-06,
  "EchoTime": 0.037,
  "EchoTrainLength": 104,
  "EffectiveEchoSpacing": 0.000560011,
  "FlipAngle": 52,
  "ImageComments": "Unaliased_MB4_PE3_LB",
  "ImageOrientationPatientDICOM": [0.998754, -0.0492901, 0.00781196, 0.0488472, 0.933464, -0.35533],
  "ImageType": [
    "ORIGINAL",
    "PRIMARY",
    "M",
    "MB",
    "ND",
    "MOSAIC"
],
  "ImagingFrequency": 123.259,
  "InPlanePhaseEncodingDirectionDICOM": "COL",
  "InstitutionAddress": "Chemin_Queen-Mary_4565_Montreal_District_CA_H3W_1W5",
  "InstitutionName": "IUGM",
  "InstitutionalDepartmentName": "Department",
  "MRAcquisitionType": "2D",
  "MagneticFieldStrength": 3,
  "Manufacturer": "Siemens",
  "ManufacturersModelName": "Prisma_fit",
  "Modality": "MR",
  "MultibandAccelerationFactor": 4,
  "PartialFourier": 1,
  "PatientPosition": "HFS",
  "PercentPhaseFOV": 100,
  "PhaseEncodingDirection": "j",
  "PhaseEncodingSteps": 104,
  "PhaseResolution": 1,
  "PixelBandwidth": 2290,
  "ProcedureStepDescription": "video_friends",
  "ProtocolName": "func_task-s01e02a",
  "PulseSequenceDetails": "%CustomerSeq%_cmrr_mbep2d_bold",
  "ReceiveCoilActiveElements": "HC1-7;NC1,2",
  "ReceiveCoilName": "HeadNeck_64",
  "ReconMatrixPE": 104,
  "RepetitionTime": 1.49,
  "SAR": 0.0267919,
  "ScanOptions": "FS",
  "ScanningSequence": "EP",
  "SequenceName": "epfid2d1_104",
  "SequenceVariant": "SK_SS",
  "SeriesDescription": "func_task-s01e02a",
  "SeriesNumber": 12,
  "ShimSetting": [633, -7264, -8826, 607, 41, -258, -104, 4],
  "SliceThickness": 2,
  "SliceTiming": [0, 0.7825, 0.0975, 0.88, 0.195, 0.98, 0.2925, 1.0775, 0.39, 1.175, 0.49, 1.2725, 0.5875, 1.37, 0.685, 0, 0.7825, 0.0975, 0.88, 0.195, 0.98, 0.2925, 1.0775, 0.39, 1.175, 0.49, 1.2725, 0.5875, 1.37, 0.685, 0, 0.7825, 0.0975, 0.88, 0.195, 0.98, 0.2925, 1.0775, 0.39, 1.175, 0.49, 1.2725, 0.5875, 1.37, 0.685, 0, 0.7825, 0.0975, 0.88, 0.195, 0.98, 0.2925, 1.0775, 0.39, 1.175, 0.49, 1.2725, 0.5875, 1.37, 0.685],
  "SoftwareVersions": "syngo_MR_E11",
  "SpacingBetweenSlices": 2,
  "StationName": "MRC35049",
  "TaskName": "friends",
  "TotalReadoutTime": 0.0576811,
  "TxRefAmp": 218.175,
  "WipMemBlock": "aa95fd98-7400-4450-8d02-1ec177a14dfa||Sequence: R016 ve11c/master r/e634e98; Dec 19 2017 11:00:25 by eja",
  "dcmmeta_affine": [
    [-1.997507929801941, 0.09769442677497864, -0.020444201305508614, 97.49701690673828],
    [0.09858021885156631, 1.8669270277023315, -0.7105386853218079, -73.05086517333984],
    [0.015623918734490871, 0.710660994052887, 1.8694162368774414, -68.10543060302734],
    [0.0, 0.0, 0.0, 1.0]
],
  "dcmmeta_reorient_transform": [
    [0.0, -1.0, 0.0, 103.0],
    [1.0, 0.0, 0.0, 0.0],
    [0.0, 0.0, 1.0, 0.0],
    [0.0, 0.0, 0.0, 1.0]
],
  "dcmmeta_shape": [104, 104, 60, 472],
  "dcmmeta_slice_dim": 2,
  "dcmmeta_version": 0.6,
  "global": {
    "const": {
      "AcquisitionMatrix": [104, 0, 0, 104],
      "AngioFlag": "N",
      "BitsAllocated": 16,
      "BitsStored": 16,
      "BodyPartExamined": "BRAIN",
      "Columns": 832,
      "EchoNumbers": 1,
      "EchoTime": 37.0,
      "EchoTrainLength": 104,
      "FlipAngle": 52.0,
      "HighBit": 15,
      "ImageOrientationPatient": [0.99875395294044, -0.0492901083151, 0.00781195930131, 0.04884721235583, 0.93346353913251, -0.3553305094631],
      "ImagePositionPatient": [-870.21319250146, -762.9208839176, 258.08615547529],
      "ImageType": [
        "ORIGINAL",
        "PRIMARY",
        "M",
        "MB",
        "ND",
        "MOSAIC"
],
      "ImagedNucleus": "1H",
      "ImagingFrequency": 123.259352,
      "InPlanePhaseEncodingDirection": "COL",
      "MRAcquisitionType": "2D",
      "MagneticFieldStrength": 3.0,
      "Manufacturer": "SIEMENS",
      "ManufacturerModelName": "Prisma_fit",
      "Modality": "MR",
      "NumberOfAverages": 1.0,
      "NumberOfPhaseEncodingSteps": 104,
      "PercentPhaseFieldOfView": 100.0,
      "PercentSampling": 100.0,
      "PerformedProcedureStepStartTime": "130237.452000",
      "PhotometricInterpretation": "MONOCHROME2",
      "PixelBandwidth": 2290.0,
      "PixelRepresentation": 0,
      "PixelSpacing": [2.0, 2.0],
      "ProtocolName": "func_task-s01e02a",
      "RepetitionTime": 1490.0,
      "Rows": 832,
      "SAR": 0.02679191809306,
      "SamplesPerPixel": 1,
      "ScanOptions": "FS",
      "ScanningSequence": "EP",
      "SequenceName": "epfid2d1_104",
      "SequenceVariant": [
        "SK",
        "SS"
],
      "SeriesDescription": "func_task-s01e02a",
      "SeriesNumber": 12,
      "SeriesTime": "134736.346000",
      "SliceLocation": -38.702591950532,
      "SliceThickness": 2.0,
      "SmallestImagePixelValue": 0,
      "SoftwareVersions": "syngo MR E11",
      "SpacingBetweenSlices": 2.0000000188839,
      "SpecificCharacterSet": "ISO_IR 100",
      "StudyID": "1",
      "StudyTime": "130237.300000",
      "TransmitCoilName": "Body",
      "VariableFlipAngleFlag": "N",
      "dBdt": 0.0},
    "slices": {}
  },
  "time": {
    "samples": {
      "AcquisitionNumber": [1, 2, 3, 4, 5, 6, 7, 8, 9, 10, 11, 12, 13, 14, 15, 16, 17, 18, 19, 20, 21, 22, 23, 24, 25, 26, 27, 28, 29, 30, 31, 32, 33, 34, 35, 36, 37, 38, 39, 40, 41, 42, 43, 44, 45, 46, 47, 48, 49, 50, 51, 52, 53, 54, 55, 56, 57, 58, 59, 60, 61, 62, 63, 64, 65, 66, 67, 68, 69, 70, 71, 72, 73, 74, 75, 76, 77, 78, 79, 80, 81, 82, 83, 84, 85, 86, 87, 88, 89, 90, 91, 92, 93, 94, 95, 96, 97, 98, 99, 100, 101, 102, 103, 104, 105, 106, 107, 108, 109, 110, 111, 112, 113, 114, 115, 116, 117, 118, 119, 120, 121, 122, 123, 124, 125, 126, 127, 128, 129, 130, 131, 132, 133, 134, 135, 136, 137, 138, 139, 140, 141, 142, 143, 144, 145, 146, 147, 148, 149, 150, 151, 152, 153, 154, 155, 156, 157, 158, 159, 160, 161, 162, 163, 164, 165, 166, 167, 168, 169, 170, 171, 172, 173, 174, 175, 176, 177, 178, 179, 180, 181, 182, 183, 184, 185, 186, 187, 188, 189, 190, 191, 192, 193, 194, 195, 196, 197, 198, 199, 200, 201, 202, 203, 204, 205, 206, 207, 208, 209, 210, 211, 212, 213, 214, 215, 216, 217, 218, 219, 220, 221, 222, 223, 224, 225, 226, 227, 228, 229, 230, 231, 232, 233, 234, 235, 236, 237, 238, 239, 240, 241, 242, 243, 244, 245, 246, 247, 248, 249, 250, 251, 252, 253, 254, 255, 256, 257, 258, 259, 260, 261, 262, 263, 264, 265, 266, 267, 268, 269, 270, 271, 272, 273, 274, 275, 276, 277, 278, 279, 280, 281, 282, 283, 284, 285, 286, 287, 288, 289, 290, 291, 292, 293, 294, 295, 296, 297, 298, 299, 300, 301, 302, 303, 304, 305, 306, 307, 308, 309, 310, 311, 312, 313, 314, 315, 316, 317, 318, 319, 320, 321, 322, 323, 324, 325, 326, 327, 328, 329, 330, 331, 332, 333, 334, 335, 336, 337, 338, 339, 340, 341, 342, 343, 344, 345, 346, 347, 348, 349, 350, 351, 352, 353, 354, 355, 356, 357, 358, 359, 360, 361, 362, 363, 364, 365, 366, 367, 368, 369, 370, 371, 372, 373, 374, 375, 376, 377, 378, 379, 380, 381, 382, 383, 384, 385, 386, 387, 388, 389, 390, 391, 392, 393, 394, 395, 396, 397, 398, 399, 400, 401, 402, 403, 404, 405, 406, 407, 408, 409, 410, 411, 412, 413, 414, 415, 416, 417, 418, 419, 420, 421, 422, 423, 424, 425, 426, 427, 428, 429, 430, 431, 432, 433, 434, 435, 436, 437, 438, 439, 440, 441, 442, 443, 444, 445, 446, 447, 448, 449, 450, 451, 452, 453, 454, 455, 456, 457, 458, 459, 460, 461, 462, 463, 464, 465, 466, 467, 468, 469, 470, 471, 472],
      "AcquisitionTime": ["134612.112500", "134613.602500", "134615.092500", "134616.582500", "134618.072500", "134619.562500", "134621.052500", "134622.542500", "134624.032500", "134625.522500", "134627.012500", "134628.502500", "134629.992500", "134631.482500", "134632.972500", "134634.462500", "134635.952500", "134637.442500", "134638.932500", "134640.422500", "134641.912500", "134643.402500", "134644.892500", "134646.382500", "134647.872500", "134649.362500", "134650.852500", "134652.342500", "134653.832500", "134655.322500", "134656.812500", "134658.302500", "134659.792500", "134701.282500", "134702.772500", "134704.262500", "134705.752500", "134707.242500", "134708.732500", "134710.222500", "134711.712500", "134713.202500", "134714.692500", "134716.182500", "134717.672500", "134719.162500", "134720.652500", "134722.142500", "134723.632500", "134725.122500", "134726.612500", "134728.102500", "134729.592500", "134731.082500", "134732.572500", "134734.062500", "134735.552500", "134737.042500", "134738.532500", "134740.022500", "134741.512500", "134743.002500", "134744.492500", "134745.982500", "134747.472500", "134748.962500", "134750.452500", "134751.942500", "134753.432500", "134754.922500", "134756.412500", "134757.902500", "134759.392500", "134800.882500", "134802.372500", "134803.862500", "134805.352500", "134806.842500", "134808.332500", "134809.822500", "134811.312500", "134812.802500", "134814.292500", "134815.782500", "134817.272500", "134818.762500", "134820.252500", "134821.742500", "134823.232500", "134824.722500", "134826.212500", "134827.702500", "134829.192500", "134830.682500", "134832.172500", "134833.662500", "134835.152500", "134836.642500", "134838.132500", "134839.622500", "134841.112500", "134842.602500", "134844.092500", "134845.582500", "134847.072500", "134848.562500", "134850.052500", "134851.542500", "134853.032500", "134854.522500", "134856.012500", "134857.502500", "134858.992500", "134900.482500", "134901.972500", "134903.462500", "134904.952500", "134906.442500", "134907.932500", "134909.422500", "134910.912500", "134912.402500", "134913.892500", "134915.382500", "134916.872500", "134918.362500", "134919.852500", "134921.342500", "134922.832500", "134924.322500", "134925.812500", "134927.302500", "134928.792500", "134930.282500", "134931.772500", "134933.262500", "134934.752500", "134936.242500", "134937.732500", "134939.222500", "134940.712500", "134942.202500", "134943.692500", "134945.182500", "134946.672500", "134948.162500", "134949.652500", "134951.142500", "134952.632500", "134954.122500", "134955.612500", "134957.102500", "134958.592500", "135000.082500", "135001.572500", "135003.062500", "135004.552500", "135006.042500", "135007.532500", "135009.022500", "135010.512500", "135012.002500", "135013.492500", "135014.982500", "135016.472500", "135017.962500", "135019.452500", "135020.942500", "135022.432500", "135023.922500", "135025.412500", "135026.902500", "135028.392500", "135029.882500", "135031.372500", "135032.862500", "135034.352500", "135035.842500", "135037.332500", "135038.822500", "135040.312500", "135041.802500", "135043.292500", "135044.782500", "135046.272500", "135047.762500", "135049.252500", "135050.742500", "135052.232500", "135053.722500", "135055.212500", "135056.702500", "135058.192500", "135059.682500", "135101.172500", "135102.662500", "135104.152500", "135105.642500", "135107.132500", "135108.622500", "135110.112500", "135111.602500", "135113.092500", "135114.582500", "135116.072500", "135117.562500", "135119.052500", "135120.542500", "135122.032500", "135123.522500", "135125.012500", "135126.502500", "135127.992500", "135129.482500", "135130.972500", "135132.462500", "135133.952500", "135135.442500", "135136.932500", "135138.422500", "135139.912500", "135141.402500", "135142.892500", "135144.382500", "135145.872500", "135147.362500", "135148.852500", "135150.342500", "135151.832500", "135153.322500", "135154.812500", "135156.302500", "135157.792500", "135159.282500", "135200.772500", "135202.262500", "135203.752500", "135205.242500", "135206.732500", "135208.222500", "135209.712500", "135211.202500", "135212.692500", "135214.182500", "135215.672500", "135217.162500", "135218.652500", "135220.142500", "135221.632500", "135223.122500", "135224.612500", "135226.102500", "135227.592500", "135229.082500", "135230.572500", "135232.062500", "135233.552500", "135235.042500", "135236.532500", "135238.022500", "135239.512500", "135241.002500", "135242.492500", "135243.982500", "135245.472500", "135246.962500", "135248.452500", "135249.942500", "135251.432500", "135252.922500", "135254.412500", "135255.902500", "135257.392500", "135258.882500", "135300.372500", "135301.862500", "135303.352500", "135304.842500", "135306.332500", "135307.822500", "135309.312500", "135310.802500", "135312.292500", "135313.782500", "135315.272500", "135316.762500", "135318.252500", "135319.742500", "135321.232500", "135322.722500", "135324.212500", "135325.702500", "135327.192500", "135328.682500", "135330.172500", "135331.662500", "135333.152500", "135334.642500", "135336.132500", "135337.622500", "135339.112500", "135340.602500", "135342.092500", "135343.582500", "135345.072500", "135346.562500", "135348.052500", "135349.542500", "135351.032500", "135352.522500", "135354.012500", "135355.502500", "135356.992500", "135358.482500", "135359.972500", "135401.462500", "135402.952500", "135404.442500", "135405.932500", "135407.422500", "135408.912500", "135410.402500", "135411.892500", "135413.382500", "135414.872500", "135416.362500", "135417.852500", "135419.342500", "135420.832500", "135422.322500", "135423.812500", "135425.302500", "135426.792500", "135428.282500", "135429.772500", "135431.262500", "135432.752500", "135434.242500", "135435.732500", "135437.222500", "135438.712500", "135440.202500", "135441.692500", "135443.182500", "135444.672500", "135446.162500", "135447.652500", "135449.142500", "135450.632500", "135452.122500", "135453.612500", "135455.102500", "135456.592500", "135458.082500", "135459.572500", "135501.062500", "135502.552500", "135504.042500", "135505.532500", "135507.022500", "135508.512500", "135510.002500", "135511.492500", "135512.982500", "135514.472500", "135515.962500", "135517.452500", "135518.942500", "135520.432500", "135521.922500", "135523.412500", "135524.902500", "135526.392500", "135527.882500", "135529.372500", "135530.862500", "135532.352500", "135533.842500", "135535.332500", "135536.822500", "135538.312500", "135539.802500", "135541.292500", "135542.782500", "135544.272500", "135545.762500", "135547.252500", "135548.742500", "135550.232500", "135551.722500", "135553.212500", "135554.702500", "135556.192500", "135557.682500", "135559.172500", "135600.662500", "135602.152500", "135603.642500", "135605.132500", "135606.622500", "135608.112500", "135609.602500", "135611.092500", "135612.582500", "135614.072500", "135615.562500", "135617.052500", "135618.542500", "135620.032500", "135621.522500", "135623.012500", "135624.502500", "135625.992500", "135627.482500", "135628.972500", "135630.462500", "135631.952500", "135633.442500", "135634.932500", "135636.422500", "135637.912500", "135639.402500", "135640.892500", "135642.382500", "135643.872500", "135645.362500", "135646.852500", "135648.342500", "135649.832500", "135651.322500", "135652.812500", "135654.302500", "135655.792500", "135657.282500", "135658.772500", "135700.262500", "135701.752500", "135703.242500", "135704.732500", "135706.222500", "135707.712500", "135709.202500", "135710.692500", "135712.182500", "135713.672500", "135715.162500", "135716.652500", "135718.142500", "135719.632500", "135721.122500", "135722.612500", "135724.102500", "135725.592500", "135727.082500", "135728.572500", "135730.062500", "135731.552500", "135733.042500", "135734.532500", "135736.022500", "135737.512500", "135739.002500", "135740.492500", "135741.982500", "135743.472500", "135744.962500", "135746.452500", "135747.942500", "135749.432500", "135750.922500", "135752.412500", "135753.902500"],
      "ContentTime": ["134736.349000", "134736.352000", "134736.355000", "134736.358000", "134736.361000", "134736.364000", "134736.367000", "134736.370000", "134736.372000", "134736.375000", "134736.378000", "134736.381000", "134736.384000", "134736.387000", "134736.390000", "134736.393000", "134736.396000", "134736.399000", "134736.402000", "134736.404000", "134736.407000", "134736.410000", "134736.413000", "134736.416000", "134736.421000", "134736.424000", "134736.427000", "134736.430000", "134736.433000", "134736.436000", "134736.439000", "134756.307000", "134756.310000", "134756.313000", "134756.316000", "134756.319000", "134756.321000", "134756.324000", "134756.327000", "134756.330000", "134756.333000", "134756.336000", "134756.339000", "134756.342000", "134756.344000", "134756.347000", "134756.350000", "134756.353000", "134756.356000", "134756.359000", "134756.362000", "134816.307000", "134816.310000", "134816.313000", "134816.316000", "134816.318000", "134816.321000", "134816.324000", "134816.327000", "134816.330000", "134816.333000", "134816.336000", "134816.350000", "134816.353000", "134816.355000", "134816.358000", "134816.361000", "134816.364000", "134816.367000", "134816.370000", "134816.373000", "134836.307000", "134836.310000", "134836.313000", "134836.316000", "134836.319000", "134836.321000", "134836.324000", "134836.327000", "134836.346000", "134836.349000", "134836.352000", "134836.355000", "134836.358000", "134836.361000", "134836.363000", "134836.366000", "134836.369000", "134836.372000", "134836.382000", "134836.385000", "134916.308000", "134916.311000", "134916.314000", "134916.317000", "134916.320000", "134916.323000", "134916.325000", "134916.328000", "134916.331000", "134916.334000", "134916.337000", "134916.340000", "134916.343000", "134916.345000", "134916.348000", "134916.351000", "134916.354000", "134916.357000", "134916.360000", "134916.363000", "134916.366000", "134916.368000", "134916.371000", "134916.374000", "134916.377000", "134916.380000", "134916.383000", "134916.386000", "134916.389000", "134916.391000", "134916.394000", "134916.397000", "134956.308000", "134956.311000", "134956.314000", "134956.317000", "134956.320000", "134956.323000", "134956.325000", "134956.328000", "134956.331000", "134956.334000", "134956.337000", "134956.340000", "134956.343000", "134956.346000", "134956.349000", "134956.351000", "134956.354000", "134956.357000", "134956.360000", "134956.363000", "134956.366000", "134956.369000", "134956.372000", "134956.375000", "134956.377000", "134956.380000", "134956.383000", "135036.307000", "135036.310000", "135036.313000", "135036.316000", "135036.319000", "135036.322000", "135036.325000", "135036.327000", "135036.330000", "135036.333000", "135036.336000", "135036.339000", "135036.342000", "135036.345000", "135036.348000", "135036.350000", "135036.353000", "135036.356000", "135036.359000", "135036.362000", "135036.365000", "135036.368000", "135036.371000", "135036.374000", "135036.376000", "135036.379000", "135036.382000", "135116.307000", "135116.310000", "135116.313000", "135116.316000", "135116.319000", "135116.322000", "135116.325000", "135116.328000", "135116.331000", "135116.334000", "135116.337000", "135116.340000", "135116.343000", "135116.346000", "135116.349000", "135116.352000", "135116.361000", "135116.364000", "135116.367000", "135116.370000", "135116.373000", "135116.376000", "135116.379000", "135116.382000", "135116.384000", "135116.387000", "135156.308000", "135156.311000", "135156.314000", "135156.317000", "135156.320000", "135156.322000", "135156.325000", "135156.328000", "135156.331000", "135156.334000", "135156.337000", "135156.340000", "135156.343000", "135156.346000", "135156.348000", "135156.351000", "135156.354000", "135156.357000", "135156.360000", "135156.363000", "135156.366000", "135156.369000", "135156.372000", "135156.374000", "135156.384000", "135156.386000", "135156.389000", "135236.307000", "135236.310000", "135236.313000", "135236.316000", "135236.319000", "135236.322000", "135236.324000", "135236.327000", "135236.330000", "135236.333000", "135236.336000", "135236.339000", "135236.342000", "135236.345000", "135236.348000", "135236.351000", "135236.353000", "135236.356000", "135236.359000", "135236.362000", "135236.365000", "135236.368000", "135236.371000", "135236.374000", "135236.377000", "135236.380000", "135236.383000", "135316.307000", "135316.310000", "135316.313000", "135316.316000", "135316.319000", "135316.322000", "135316.324000", "135316.327000", "135316.330000", "135316.333000", "135316.350000", "135316.353000", "135316.363000", "135316.366000", "135316.369000", "135316.371000", "135316.374000", "135316.377000", "135316.380000", "135316.383000", "135316.386000", "135316.389000", "135316.392000", "135316.395000", "135316.397000", "135316.400000", "135316.403000", "135356.308000", "135356.311000", "135356.314000", "135356.317000", "135356.320000", "135356.323000", "135356.326000", "135356.329000", "135356.332000", "135356.335000", "135356.337000", "135356.340000", "135356.343000", "135356.346000", "135356.349000", "135356.352000", "135356.355000", "135356.358000", "135356.360000", "135356.363000", "135356.366000", "135356.369000", "135356.372000", "135356.375000", "135356.378000", "135356.381000", "135356.384000", "135436.308000", "135436.311000", "135436.314000", "135436.317000", "135436.320000", "135436.323000", "135436.326000", "135436.328000", "135436.331000", "135436.334000", "135436.337000", "135436.340000", "135436.343000", "135436.346000", "135436.349000", "135436.352000", "135436.355000", "135436.357000", "135436.360000", "135436.363000", "135436.366000", "135436.369000", "135436.372000", "135436.375000", "135436.378000", "135436.381000", "135436.384000", "135516.307000", "135516.310000", "135516.313000", "135516.316000", "135516.319000", "135516.322000", "135516.325000", "135516.328000", "135516.330000", "135516.333000", "135516.336000", "135516.339000", "135516.342000", "135516.345000", "135516.348000", "135516.351000", "135516.354000", "135516.357000", "135516.359000", "135516.362000", "135516.365000", "135516.368000", "135516.371000", "135516.374000", "135516.377000", "135516.380000", "135516.383000", "135556.308000", "135556.311000", "135556.314000", "135556.317000", "135556.320000", "135556.323000", "135556.326000", "135556.329000", "135556.331000", "135556.334000", "135556.337000", "135556.340000", "135556.343000", "135556.346000", "135556.349000", "135556.352000", "135556.355000", "135556.358000", "135556.360000", "135556.363000", "135556.366000", "135556.369000", "135556.372000", "135556.375000", "135556.378000", "135556.381000", "135636.308000", "135636.311000", "135636.314000", "135636.317000", "135636.320000", "135636.323000", "135636.325000", "135636.328000", "135636.331000", "135636.334000", "135636.337000", "135636.340000", "135636.343000", "135636.346000", "135636.349000", "135636.352000", "135636.354000", "135636.357000", "135636.360000", "135636.363000", "135636.366000", "135636.369000", "135636.372000", "135636.375000", "135636.378000", "135636.380000", "135636.383000", "135716.307000", "135716.310000", "135716.313000", "135716.316000", "135716.319000", "135716.322000", "135716.325000", "135716.328000", "135716.331000", "135716.334000", "135716.337000", "135716.340000", "135716.343000", "135716.345000", "135716.348000", "135716.351000", "135716.354000", "135716.357000", "135716.360000", "135716.363000", "135716.366000", "135716.369000", "135716.372000", "135716.374000", "135716.377000", "135716.380000", "135716.383000", "135755.692000", "135755.695000", "135755.698000", "135755.701000", "135755.704000", "135755.707000", "135755.709000", "135755.712000", "135755.715000", "135755.718000", "135755.721000", "135755.736000", "135755.739000", "135755.742000", "135755.745000", "135755.748000", "135755.751000", "135755.754000", "135755.757000", "135755.760000", "135755.763000", "135755.766000", "135755.769000", "135755.772000", "135755.775000", "135755.778000", "135755.781000"],
