{
  "AcquisitionMatrixPE": 104,
  "AcquisitionNumber": 1,
  "AcquisitionTime": "13:21:11.185000",
  "BandwidthPerPixelPhaseEncode": 17.17,
  "BaseResolution": 104,
  "BodyPartExamined": "BRAIN",
  "CoilString": "HC1-7;NC1_2",
  "ConsistencyInfo": "N4_VE11C_LATEST_20160120",
  "ConversionSoftware": "dcm2niix",
  "ConversionSoftwareVersion": "v1.0.20190720  (JP2:OpenJPEG) GCC7.3.0",
  "DerivedVendorReportedEchoSpacing": 0.000560011,
  "DeviceSerialNumber": "167006",
  "DwellTime": 2.1e-06,
  "EchoTime": 0.037,
  "EchoTrainLength": 104,
  "EffectiveEchoSpacing": 0.000560011,
  "FlipAngle": 52,
  "ImageComments": "Unaliased_MB4_PE3_LB",
  "ImageOrientationPatientDICOM": [0.998754, -0.0492901, 0.00781196, 0.0488472, 0.933464, -0.35533],
  "ImageType": [
    "ORIGINAL",
    "PRIMARY",
    "M",
    "MB",
    "ND",
    "MOSAIC"
],
  "ImagingFrequency": 123.259,
  "InPlanePhaseEncodingDirectionDICOM": "COL",
  "InstitutionAddress": "Chemin_Queen-Mary_4565_Montreal_District_CA_H3W_1W5",
  "InstitutionName": "IUGM",
  "InstitutionalDepartmentName": "Department",
  "MRAcquisitionType": "2D",
  "MagneticFieldStrength": 3,
  "Manufacturer": "Siemens",
  "ManufacturersModelName": "Prisma_fit",
  "Modality": "MR",
  "MultibandAccelerationFactor": 4,
  "PartialFourier": 1,
  "PatientPosition": "HFS",
  "PercentPhaseFOV": 100,
  "PhaseEncodingDirection": "j",
  "PhaseEncodingSteps": 104,
  "PhaseResolution": 1,
  "PixelBandwidth": 2290,
  "ProcedureStepDescription": "video_friends",
  "ProtocolName": "func_task-s01e01a",
  "PulseSequenceDetails": "%CustomerSeq%_cmrr_mbep2d_bold",
  "ReceiveCoilActiveElements": "HC1-7;NC1,2",
  "ReceiveCoilName": "HeadNeck_64",
  "ReconMatrixPE": 104,
  "RepetitionTime": 1.49,
  "SAR": 0.0267942,
  "ScanOptions": "FS",
  "ScanningSequence": "EP",
  "SequenceName": "epfid2d1_104",
  "SequenceVariant": "SK_SS",
  "SeriesDescription": "func_task-s01e01a",
  "SeriesNumber": 8,
  "ShimSetting": [633, -7264, -8826, 607, 41, -258, -104, 4],
  "SliceThickness": 2,
  "SliceTiming": [0, 0.7825, 0.0975, 0.8825, 0.195, 0.98, 0.2925, 1.0775, 0.3925, 1.175, 0.49, 1.2725, 0.5875, 1.3725, 0.685, 0, 0.7825, 0.0975, 0.8825, 0.195, 0.98, 0.2925, 1.0775, 0.3925, 1.175, 0.49, 1.2725, 0.5875, 1.3725, 0.685, 0, 0.7825, 0.0975, 0.8825, 0.195, 0.98, 0.2925, 1.0775, 0.3925, 1.175, 0.49, 1.2725, 0.5875, 1.3725, 0.685, 0, 0.7825, 0.0975, 0.8825, 0.195, 0.98, 0.2925, 1.0775, 0.3925, 1.175, 0.49, 1.2725, 0.5875, 1.3725, 0.685],
  "SoftwareVersions": "syngo_MR_E11",
  "SpacingBetweenSlices": 2,
  "StationName": "MRC35049",
  "TaskName": "friends",
  "TotalReadoutTime": 0.0576811,
  "TxRefAmp": 218.175,
  "WipMemBlock": "796af6bf-5cc3-422a-92e4-ceadafa0e39b||Sequence: R016 ve11c/master r/e634e98; Dec 19 2017 11:00:25 by eja",
  "dcmmeta_affine": [
    [-1.997507929801941, 0.09769442677497864, -0.020444201305508614, 97.49701690673828],
    [0.09858021885156631, 1.8669270277023315, -0.7105386853218079, -73.05086517333984],
    [0.015623918734490871, 0.710660994052887, 1.8694162368774414, -68.10543060302734],
    [0.0, 0.0, 0.0, 1.0]
],
  "dcmmeta_reorient_transform": [
    [0.0, -1.0, 0.0, 103.0],
    [1.0, 0.0, 0.0, 0.0],
    [0.0, 0.0, 1.0, 0.0],
    [0.0, 0.0, 0.0, 1.0]
],
  "dcmmeta_shape": [104, 104, 60, 482],
  "dcmmeta_slice_dim": 2,
  "dcmmeta_version": 0.6,
  "global": {
    "const": {
      "AcquisitionMatrix": [104, 0, 0, 104],
      "AngioFlag": "N",
      "BitsAllocated": 16,
      "BitsStored": 16,
      "BodyPartExamined": "BRAIN",
      "Columns": 832,
      "EchoNumbers": 1,
      "EchoTime": 37.0,
      "EchoTrainLength": 104,
      "FlipAngle": 52.0,
      "HighBit": 15,
      "ImageOrientationPatient": [0.99875395294044, -0.0492901083151, 0.00781195930131, 0.04884721235583, 0.93346353913251, -0.3553305094631],
      "ImagePositionPatient": [-870.21319250146, -762.9208839176, 258.08615547529],
      "ImageType": [
        "ORIGINAL",
        "PRIMARY",
        "M",
        "MB",
        "ND",
        "MOSAIC"
],
      "ImagedNucleus": "1H",
      "ImagingFrequency": 123.259339,
      "InPlanePhaseEncodingDirection": "COL",
      "MRAcquisitionType": "2D",
      "MagneticFieldStrength": 3.0,
      "Manufacturer": "SIEMENS",
      "ManufacturerModelName": "Prisma_fit",
      "Modality": "MR",
      "NumberOfAverages": 1.0,
      "NumberOfPhaseEncodingSteps": 104,
      "PercentPhaseFieldOfView": 100.0,
      "PercentSampling": 100.0,
      "PerformedProcedureStepStartTime": "130237.452000",
      "PhotometricInterpretation": "MONOCHROME2",
      "PixelBandwidth": 2290.0,
      "PixelRepresentation": 0,
      "PixelSpacing": [2.0, 2.0],
      "ProtocolName": "func_task-s01e01a",
      "RepetitionTime": 1490.0,
      "Rows": 832,
      "SAR": 0.02679424747818,
      "SamplesPerPixel": 1,
      "ScanOptions": "FS",
      "ScanningSequence": "EP",
      "SequenceName": "epfid2d1_104",
      "SequenceVariant": [
        "SK",
        "SS"
],
      "SeriesDescription": "func_task-s01e01a",
      "SeriesNumber": 8,
      "SeriesTime": "132238.624000",
      "SliceLocation": -38.702591950532,
      "SliceThickness": 2.0,
      "SmallestImagePixelValue": 0,
      "SoftwareVersions": "syngo MR E11",
      "SpacingBetweenSlices": 2.0000000188839,
      "SpecificCharacterSet": "ISO_IR 100",
      "StudyID": "1",
      "StudyTime": "130237.300000",
      "TransmitCoilName": "Body",
      "VariableFlipAngleFlag": "N",
      "WindowCenterWidthExplanation": "Algo1",
      "dBdt": 0.0},
    "slices": {}
  },
  "time": {
    "samples": {
      "AcquisitionNumber": [1, 2, 3, 4, 5, 6, 7, 8, 9, 10, 11, 12, 13, 14, 15, 16, 17, 18, 19, 20, 21, 22, 23, 24, 25, 26, 27, 28, 29, 30, 31, 32, 33, 34, 35, 36, 37, 38, 39, 40, 41, 42, 43, 44, 45, 46, 47, 48, 49, 50, 51, 52, 53, 54, 55, 56, 57, 58, 59, 60, 61, 62, 63, 64, 65, 66, 67, 68, 69, 70, 71, 72, 73, 74, 75, 76, 77, 78, 79, 80, 81, 82, 83, 84, 85, 86, 87, 88, 89, 90, 91, 92, 93, 94, 95, 96, 97, 98, 99, 100, 101, 102, 103, 104, 105, 106, 107, 108, 109, 110, 111, 112, 113, 114, 115, 116, 117, 118, 119, 120, 121, 122, 123, 124, 125, 126, 127, 128, 129, 130, 131, 132, 133, 134, 135, 136, 137, 138, 139, 140, 141, 142, 143, 144, 145, 146, 147, 148, 149, 150, 151, 152, 153, 154, 155, 156, 157, 158, 159, 160, 161, 162, 163, 164, 165, 166, 167, 168, 169, 170, 171, 172, 173, 174, 175, 176, 177, 178, 179, 180, 181, 182, 183, 184, 185, 186, 187, 188, 189, 190, 191, 192, 193, 194, 195, 196, 197, 198, 199, 200, 201, 202, 203, 204, 205, 206, 207, 208, 209, 210, 211, 212, 213, 214, 215, 216, 217, 218, 219, 220, 221, 222, 223, 224, 225, 226, 227, 228, 229, 230, 231, 232, 233, 234, 235, 236, 237, 238, 239, 240, 241, 242, 243, 244, 245, 246, 247, 248, 249, 250, 251, 252, 253, 254, 255, 256, 257, 258, 259, 260, 261, 262, 263, 264, 265, 266, 267, 268, 269, 270, 271, 272, 273, 274, 275, 276, 277, 278, 279, 280, 281, 282, 283, 284, 285, 286, 287, 288, 289, 290, 291, 292, 293, 294, 295, 296, 297, 298, 299, 300, 301, 302, 303, 304, 305, 306, 307, 308, 309, 310, 311, 312, 313, 314, 315, 316, 317, 318, 319, 320, 321, 322, 323, 324, 325, 326, 327, 328, 329, 330, 331, 332, 333, 334, 335, 336, 337, 338, 339, 340, 341, 342, 343, 344, 345, 346, 347, 348, 349, 350, 351, 352, 353, 354, 355, 356, 357, 358, 359, 360, 361, 362, 363, 364, 365, 366, 367, 368, 369, 370, 371, 372, 373, 374, 375, 376, 377, 378, 379, 380, 381, 382, 383, 384, 385, 386, 387, 388, 389, 390, 391, 392, 393, 394, 395, 396, 397, 398, 399, 400, 401, 402, 403, 404, 405, 406, 407, 408, 409, 410, 411, 412, 413, 414, 415, 416, 417, 418, 419, 420, 421, 422, 423, 424, 425, 426, 427, 428, 429, 430, 431, 432, 433, 434, 435, 436, 437, 438, 439, 440, 441, 442, 443, 444, 445, 446, 447, 448, 449, 450, 451, 452, 453, 454, 455, 456, 457, 458, 459, 460, 461, 462, 463, 464, 465, 466, 467, 468, 469, 470, 471, 472, 473, 474, 475, 476, 477, 478, 479, 480, 481, 482],
      "AcquisitionTime": ["132111.185000", "132112.675000", "132114.165000", "132115.655000", "132117.145000", "132118.635000", "132120.125000", "132121.615000", "132123.105000", "132124.595000", "132126.085000", "132127.575000", "132129.065000", "132130.555000", "132132.045000", "132133.535000", "132135.025000", "132136.515000", "132138.005000", "132139.495000", "132140.985000", "132142.475000", "132143.965000", "132145.455000", "132146.945000", "132148.435000", "132149.925000", "132151.415000", "132152.905000", "132154.395000", "132155.885000", "132157.375000", "132158.865000", "132200.355000", "132201.845000", "132203.335000", "132204.825000", "132206.315000", "132207.805000", "132209.295000", "132210.785000", "132212.275000", "132213.765000", "132215.255000", "132216.745000", "132218.235000", "132219.725000", "132221.215000", "132222.705000", "132224.195000", "132225.685000", "132227.175000", "132228.665000", "132230.155000", "132231.645000", "132233.135000", "132234.625000", "132236.115000", "132237.605000", "132239.095000", "132240.585000", "132242.075000", "132243.565000", "132245.055000", "132246.545000", "132248.035000", "132249.525000", "132251.015000", "132252.505000", "132253.995000", "132255.485000", "132256.975000", "132258.465000", "132259.955000", "132301.445000", "132302.935000", "132304.425000", "132305.915000", "132307.405000", "132308.895000", "132310.385000", "132311.875000", "132313.365000", "132314.855000", "132316.345000", "132317.835000", "132319.325000", "132320.815000", "132322.305000", "132323.795000", "132325.285000", "132326.775000", "132328.265000", "132329.755000", "132331.245000", "132332.735000", "132334.225000", "132335.715000", "132337.205000", "132338.695000", "132340.185000", "132341.675000", "132343.165000", "132344.655000", "132346.145000", "132347.635000", "132349.125000", "132350.615000", "132352.105000", "132353.595000", "132355.085000", "132356.575000", "132358.065000", "132359.555000", "132401.045000", "132402.535000", "132404.025000", "132405.515000", "132407.005000", "132408.495000", "132409.985000", "132411.475000", "132412.965000", "132414.455000", "132415.945000", "132417.435000", "132418.925000", "132420.415000", "132421.905000", "132423.395000", "132424.885000", "132426.375000", "132427.865000", "132429.355000", "132430.845000", "132432.335000", "132433.825000", "132435.315000", "132436.805000", "132438.295000", "132439.785000", "132441.275000", "132442.765000", "132444.255000", "132445.745000", "132447.235000", "132448.725000", "132450.215000", "132451.705000", "132453.195000", "132454.685000", "132456.175000", "132457.665000", "132459.155000", "132500.645000", "132502.135000", "132503.625000", "132505.115000", "132506.605000", "132508.095000", "132509.585000", "132511.075000", "132512.565000", "132514.055000", "132515.545000", "132517.035000", "132518.525000", "132520.015000", "132521.505000", "132522.995000", "132524.485000", "132525.975000", "132527.465000", "132528.955000", "132530.445000", "132531.935000", "132533.425000", "132534.915000", "132536.405000", "132537.895000", "132539.385000", "132540.875000", "132542.365000", "132543.855000", "132545.345000", "132546.835000", "132548.325000", "132549.815000", "132551.305000", "132552.795000", "132554.285000", "132555.775000", "132557.265000", "132558.755000", "132600.245000", "132601.735000", "132603.225000", "132604.715000", "132606.205000", "132607.695000", "132609.185000", "132610.675000", "132612.165000", "132613.655000", "132615.145000", "132616.635000", "132618.125000", "132619.615000", "132621.105000", "132622.595000", "132624.085000", "132625.575000", "132627.065000", "132628.555000", "132630.045000", "132631.535000", "132633.025000", "132634.515000", "132636.005000", "132637.495000", "132638.985000", "132640.475000", "132641.965000", "132643.455000", "132644.945000", "132646.435000", "132647.925000", "132649.415000", "132650.905000", "132652.395000", "132653.885000", "132655.375000", "132656.865000", "132658.355000", "132659.845000", "132701.335000", "132702.825000", "132704.315000", "132705.805000", "132707.295000", "132708.785000", "132710.275000", "132711.765000", "132713.255000", "132714.745000", "132716.235000", "132717.725000", "132719.215000", "132720.705000", "132722.195000", "132723.685000", "132725.175000", "132726.665000", "132728.155000", "132729.645000", "132731.135000", "132732.625000", "132734.115000", "132735.605000", "132737.095000", "132738.585000", "132740.075000", "132741.565000", "132743.055000", "132744.545000", "132746.035000", "132747.525000", "132749.015000", "132750.505000", "132751.995000", "132753.485000", "132754.975000", "132756.465000", "132757.955000", "132759.445000", "132800.935000", "132802.425000", "132803.915000", "132805.405000", "132806.895000", "132808.385000", "132809.875000", "132811.365000", "132812.855000", "132814.345000", "132815.835000", "132817.325000", "132818.815000", "132820.305000", "132821.795000", "132823.285000", "132824.775000", "132826.265000", "132827.755000", "132829.245000", "132830.735000", "132832.225000", "132833.715000", "132835.205000", "132836.695000", "132838.185000", "132839.675000", "132841.165000", "132842.655000", "132844.145000", "132845.635000", "132847.125000", "132848.615000", "132850.105000", "132851.595000", "132853.085000", "132854.575000", "132856.065000", "132857.555000", "132859.045000", "132900.535000", "132902.025000", "132903.515000", "132905.005000", "132906.495000", "132907.985000", "132909.475000", "132910.965000", "132912.455000", "132913.945000", "132915.435000", "132916.925000", "132918.415000", "132919.905000", "132921.395000", "132922.885000", "132924.375000", "132925.865000", "132927.355000", "132928.845000", "132930.335000", "132931.825000", "132933.315000", "132934.805000", "132936.295000", "132937.785000", "132939.275000", "132940.765000", "132942.255000", "132943.745000", "132945.235000", "132946.725000", "132948.215000", "132949.705000", "132951.195000", "132952.685000", "132954.175000", "132955.665000", "132957.155000", "132958.645000", "133000.135000", "133001.625000", "133003.115000", "133004.605000", "133006.095000", "133007.585000", "133009.075000", "133010.565000", "133012.055000", "133013.545000", "133015.035000", "133016.525000", "133018.015000", "133019.505000", "133020.995000", "133022.485000", "133023.975000", "133025.465000", "133026.955000", "133028.445000", "133029.935000", "133031.425000", "133032.915000", "133034.405000", "133035.895000", "133037.385000", "133038.875000", "133040.365000", "133041.855000", "133043.345000", "133044.835000", "133046.325000", "133047.815000", "133049.305000", "133050.795000", "133052.285000", "133053.775000", "133055.265000", "133056.755000", "133058.245000", "133059.735000", "133101.225000", "133102.715000", "133104.205000", "133105.695000", "133107.185000", "133108.675000", "133110.165000", "133111.655000", "133113.145000", "133114.635000", "133116.125000", "133117.615000", "133119.105000", "133120.595000", "133122.085000", "133123.575000", "133125.065000", "133126.555000", "133128.045000", "133129.535000", "133131.025000", "133132.515000", "133134.005000", "133135.495000", "133136.985000", "133138.475000", "133139.965000", "133141.455000", "133142.945000", "133144.435000", "133145.925000", "133147.415000", "133148.905000", "133150.395000", "133151.885000", "133153.375000", "133154.865000", "133156.355000", "133157.845000", "133159.335000", "133200.825000", "133202.315000", "133203.805000", "133205.295000", "133206.785000", "133208.275000", "133209.765000", "133211.255000", "133212.745000", "133214.235000", "133215.725000", "133217.215000", "133218.705000", "133220.195000", "133221.685000", "133223.175000", "133224.665000", "133226.155000", "133227.645000", "133229.135000", "133230.625000", "133232.115000", "133233.605000", "133235.095000", "133236.585000", "133238.075000", "133239.565000", "133241.055000", "133242.545000", "133244.035000", "133245.525000", "133247.015000", "133248.505000", "133249.995000", "133251.485000", "133252.975000", "133254.465000", "133255.955000", "133257.445000", "133258.935000", "133300.425000", "133301.915000", "133303.405000", "133304.895000", "133306.385000", "133307.875000"],
      "ContentTime": ["132238.628000", "132238.631000", "132238.634000", "132238.637000", "132238.640000", "132238.643000", "132238.646000", "132238.649000", "132238.652000", "132238.655000", "132238.657000", "132238.660000", "132238.663000", "132238.666000", "132238.669000", "132238.672000", "132238.675000", "132238.678000", "132238.681000", "132238.684000", "132238.687000", "132238.690000", "132238.700000", "132238.703000", "132238.706000", "132238.709000", "132238.711000", "132238.714000", "132238.717000", "132238.720000", "132238.723000", "132258.587000", "132258.590000", "132258.593000", "132258.596000", "132258.599000", "132258.601000", "132258.604000", "132258.607000", "132258.610000", "132258.613000", "132258.616000", "132258.619000", "132258.622000", "132258.624000", "132258.627000", "132258.630000", "132258.633000", "132258.636000", "132258.639000", "132258.642000", "132258.644000", "132318.587000", "132318.590000", "132318.593000", "132318.596000", "132318.599000", "132318.602000", "132318.605000", "132318.608000", "132318.611000", "132318.614000", "132318.617000", "132318.620000", "132318.625000", "132318.633000", "132318.638000", "132318.641000", "132318.644000", "132318.646000", "132318.660000", "132318.663000", "132338.588000", "132338.591000", "132338.594000", "132338.597000", "132338.600000", "132338.603000", "132338.605000", "132338.608000", "132338.611000", "132338.614000", "132338.617000", "132338.620000", "132338.623000", "132338.626000", "132338.629000", "132338.631000", "132338.634000", "132338.637000", "132338.640000", "132338.643000", "132358.601000", "132358.604000", "132358.607000", "132358.610000", "132358.613000", "132358.616000", "132358.618000", "132358.621000", "132358.624000", "132358.627000", "132358.630000", "132358.633000", "132358.636000", "132358.639000", "132358.641000", "132358.644000", "132358.647000", "132358.650000", "132358.653000", "132358.656000", "132438.587000", "132438.590000", "132438.593000", "132438.596000", "132438.599000", "132438.602000", "132438.604000", "132438.607000", "132438.610000", "132438.613000", "132438.616000", "132438.619000", "132438.622000", "132438.625000", "132438.628000", "132438.630000", "132438.633000", "132438.643000", "132438.646000", "132438.649000", "132438.652000", "132438.655000", "132438.658000", "132438.661000", "132438.664000", "132438.666000", "132438.669000", "132518.587000", "132518.590000", "132518.594000", "132518.596000", "132518.599000", "132518.602000", "132518.605000", "132518.608000", "132518.611000", "132518.614000", "132518.622000", "132518.625000", "132518.628000", "132518.630000", "132518.633000", "132518.636000", "132518.639000", "132518.642000", "132518.645000", "132518.648000", "132518.651000", "132518.654000", "132518.657000", "132518.660000", "132518.663000", "132518.666000", "132558.588000", "132558.591000", "132558.600000", "132558.603000", "132558.606000", "132558.609000", "132558.612000", "132558.615000", "132558.618000", "132558.621000", "132558.624000", "132558.626000", "132558.630000", "132558.632000", "132558.635000", "132558.638000", "132558.641000", "132558.644000", "132558.647000", "132558.650000", "132558.653000", "132558.656000", "132558.659000", "132558.662000", "132558.664000", "132558.667000", "132558.670000", "132638.587000", "132638.590000", "132638.593000", "132638.596000", "132638.599000", "132638.601000", "132638.604000", "132638.607000", "132638.616000", "132638.619000", "132638.621000", "132638.625000", "132638.627000", "132638.630000", "132638.633000", "132638.636000", "132638.639000", "132638.642000", "132638.645000", "132638.648000", "132638.651000", "132638.654000", "132638.657000", "132638.659000", "132638.662000", "132638.665000", "132638.668000", "132718.587000", "132718.590000", "132718.597000", "132718.600000", "132718.603000", "132718.606000", "132718.609000", "132718.611000", "132718.614000", "132718.617000", "132718.620000", "132718.623000", "132718.626000", "132718.629000", "132718.632000", "132718.635000", "132718.638000", "132718.641000", "132718.644000", "132718.647000", "132718.650000", "132718.653000", "132718.656000", "132718.659000", "132718.661000", "132718.664000", "132718.667000", "132758.587000", "132758.590000", "132758.593000", "132758.596000", "132758.599000", "132758.602000", "132758.604000", "132758.607000", "132758.610000", "132758.613000", "132758.616000", "132758.619000", "132758.622000", "132758.625000", "132758.628000", "132758.630000", "132758.633000", "132758.636000", "132758.639000", "132758.642000", "132758.645000", "132758.648000", "132758.651000", "132758.654000", "132758.657000", "132758.659000", "132758.662000", "132838.588000", "132838.591000", "132838.594000", "132838.597000", "132838.600000", "132838.603000", "132838.606000", "132838.609000", "132838.612000", "132838.615000", "132838.617000", "132838.620000", "132838.623000", "132838.626000", "132838.629000", "132838.632000", "132838.635000", "132838.638000", "132838.641000", "132838.644000", "132838.647000", "132838.662000", "132838.665000", "132838.668000", "132838.671000", "132838.673000", "132838.676000", "132918.587000", "132918.590000", "132918.593000", "132918.596000", "132918.599000", "132918.602000", "132918.605000", "132918.608000", "132918.611000", "132918.614000", "132918.616000", "132918.619000", "132918.622000", "132918.625000", "132918.628000", "132918.631000", "132918.634000", "132918.637000", "132918.640000", "132918.642000", "132918.645000", "132918.648000", "132918.651000", "132918.654000", "132918.657000", "132918.660000", "132918.663000", "132958.587000", "132958.590000", "132958.593000", "132958.596000", "132958.599000", "132958.602000", "132958.605000", "132958.607000", "132958.610000", "132958.613000", "132958.616000", "132958.619000", "132958.622000", "132958.625000", "132958.628000", "132958.631000", "132958.634000", "132958.637000", "132958.646000", "132958.650000", "132958.653000", "132958.656000", "132958.659000", "132958.661000", "132958.664000", "132958.667000", "133038.588000", "133038.591000", "133038.594000", "133038.597000", "133038.600000", "133038.603000", "133038.606000", "133038.609000", "133038.612000", "133038.624000", "133038.626000", "133038.629000", "133038.632000", "133038.635000", "133038.638000", "133038.641000", "133038.644000", "133038.647000", "133038.649000", "133038.652000", "133038.655000", "133038.658000", "133038.661000", "133038.664000", "133038.667000", "133038.670000", "133038.672000", "133118.587000", "133118.590000", "133118.593000", "133118.596000", "133118.599000", "133118.602000", "133118.605000", "133118.608000", "133118.611000", "133118.614000", "133118.617000", "133118.619000", "133118.622000", "133118.625000", "133118.628000", "133118.631000", "133118.634000", "133118.637000", "133118.647000", "133118.650000", "133118.653000", "133118.656000", "133118.659000", "133118.662000", "133118.665000", "133118.668000", "133118.671000", "133158.587000", "133158.590000", "133158.593000", "133158.596000", "133158.599000", "133158.602000", "133158.605000", "133158.615000", "133158.618000", "133158.621000", "133158.624000", "133158.627000", "133158.630000", "133158.633000", "133158.636000", "133158.639000", "133158.642000", "133158.645000", "133158.647000", "133158.650000", "133158.653000", "133158.656000", "133158.659000", "133158.662000", "133158.665000", "133158.668000", "133158.671000", "133238.587000", "133238.590000", "133238.593000", "133238.596000", "133238.599000", "133238.602000", "133238.605000", "133238.608000", "133238.611000", "133238.613000", "133238.616000", "133238.619000", "133238.622000", "133238.625000", "133238.628000", "133238.631000", "133238.634000", "133238.637000", "133238.640000", "133238.642000", "133238.645000", "133238.648000", "133238.651000", "133238.654000", "133238.659000", "133238.662000", "133238.665000", "133309.551000", "133309.554000", "133309.557000", "133309.560000", "133309.563000", "133309.566000", "133309.569000", "133309.572000", "133309.588000", "133309.591000", "133309.595000", "133309.598000", "133309.601000", "133309.603000", "133309.606000", "133309.609000", "133309.612000", "133309.615000", "133309.618000", "133309.621000", "133309.624000"],
