{
  "AcquisitionMatrixPE": 104,
  "AcquisitionNumber": 1,
  "AcquisitionTime": "15:18:25.665000",
  "BandwidthPerPixelPhaseEncode": 17.17,
  "BaseResolution": 104,
  "BodyPartExamined": "BRAIN",
  "CoilString": "HC1-7;NC1_2",
  "ConsistencyInfo": "N4_VE11C_LATEST_20160120",
  "ConversionSoftware": "dcm2niix",
  "ConversionSoftwareVersion": "v1.0.20190720  (JP2:OpenJPEG) GCC7.3.0",
  "DerivedVendorReportedEchoSpacing": 0.000560011,
  "DeviceSerialNumber": "167006",
  "DwellTime": 2.1e-06,
  "EchoTime": 0.037,
  "EchoTrainLength": 104,
  "EffectiveEchoSpacing": 0.000560011,
  "FlipAngle": 52,
  "ImageComments": "Unaliased_MB4_PE3_LB",
  "ImageOrientationPatientDICOM": [0.997389, -0.0694963, 0.0196273, 0.0716688, 0.91923, -0.387144],
  "ImageType": [
    "ORIGINAL",
    "PRIMARY",
    "M",
    "MB",
    "ND",
    "MOSAIC"
],
  "ImagingFrequency": 123.259,
  "InPlanePhaseEncodingDirectionDICOM": "COL",
  "InstitutionAddress": "Chemin_Queen-Mary_4565_Montreal_District_CA_H3W_1W5",
  "InstitutionName": "IUGM",
  "InstitutionalDepartmentName": "Department",
  "MRAcquisitionType": "2D",
  "MagneticFieldStrength": 3,
  "Manufacturer": "Siemens",
  "ManufacturersModelName": "Prisma_fit",
  "Modality": "MR",
  "MultibandAccelerationFactor": 4,
  "PartialFourier": 1,
  "PatientPosition": "HFS",
  "PercentPhaseFOV": 100,
  "PhaseEncodingDirection": "j",
  "PhaseEncodingSteps": 104,
  "PhaseResolution": 1,
  "PixelBandwidth": 2290,
  "ProcedureStepDescription": "video_friends",
  "ProtocolName": "func_task-s01e05b",
  "PulseSequenceDetails": "%CustomerSeq%_cmrr_mbep2d_bold",
  "ReceiveCoilActiveElements": "HC1-7;NC1,2",
  "ReceiveCoilName": "HeadNeck_64",
  "ReconMatrixPE": 104,
  "RepetitionTime": 1.49,
  "SAR": 0.0300145,
  "ScanOptions": "FS",
  "ScanningSequence": "EP",
  "SequenceName": "epfid2d1_104",
  "SequenceVariant": "SK_SS",
  "SeriesDescription": "func_task-s01e05b",
  "SeriesNumber": 36,
  "ShimSetting": [633, -7278, -8855, 569, 34, -288, -44, -23],
  "SliceThickness": 2,
  "SliceTiming": [0, 0.7825, 0.0975, 0.8825, 0.195, 0.98, 0.295, 1.0775, 0.3925, 1.175, 0.49, 1.2725, 0.5875, 1.3725, 0.685, 0, 0.7825, 0.0975, 0.8825, 0.195, 0.98, 0.295, 1.0775, 0.3925, 1.175, 0.49, 1.2725, 0.5875, 1.3725, 0.685, 0, 0.7825, 0.0975, 0.8825, 0.195, 0.98, 0.295, 1.0775, 0.3925, 1.175, 0.49, 1.2725, 0.5875, 1.3725, 0.685, 0, 0.7825, 0.0975, 0.8825, 0.195, 0.98, 0.295, 1.0775, 0.3925, 1.175, 0.49, 1.2725, 0.5875, 1.3725, 0.685],
  "SoftwareVersions": "syngo_MR_E11",
  "SpacingBetweenSlices": 2,
  "StationName": "MRC35049",
  "TaskName": "friends",
  "TotalReadoutTime": 0.0576811,
  "TxRefAmp": 227.312,
  "WipMemBlock": "5bc0c2ae-b1dc-4dbc-8408-1018e6c7ee40||Sequence: R016 ve11c/master r/e634e98; Dec 19 2017 11:00:25 by eja",
  "dcmmeta_affine": [
    [-1.9947782754898071, 0.14333753287792206, -0.017726117745041847, 95.35079956054688],
    [0.13899260759353638, 1.8384596109390259, -0.7750788927078247, -76.56263732910156],
    [0.0392545722424984, 0.7742871046066284, 1.843621015548706, -76.73834228515625],
    [0.0, 0.0, 0.0, 1.0]
],
  "dcmmeta_reorient_transform": [
    [0.0, -1.0, 0.0, 103.0],
    [1.0, 0.0, 0.0, 0.0],
    [0.0, 0.0, 1.0, 0.0],
    [0.0, 0.0, 0.0, 1.0]
],
  "dcmmeta_shape": [104, 104, 60, 488],
  "dcmmeta_slice_dim": 2,
  "dcmmeta_version": 0.6,
  "global": {
    "const": {
      "AcquisitionMatrix": [104, 0, 0, 104],
      "AngioFlag": "N",
      "BitsAllocated": 16,
      "BitsStored": 16,
      "BodyPartExamined": "BRAIN",
      "Columns": 832,
      "EchoNumbers": 1,
      "EchoTime": 37.0,
      "EchoTrainLength": 104,
      "FlipAngle": 52.0,
      "HighBit": 15,
      "ImageOrientationPatient": [0.99738910849068, -0.0694963011415, 0.0196272869194, 0.07166876905677, 0.91922981221843, -0.3871435649352],
      "ImagePositionPatient": [-888.38870013904, -731.4047014278, 270.56508536238],
      "ImageType": [
        "ORIGINAL",
        "PRIMARY",
        "M",
        "MB",
        "ND",
        "MOSAIC"
],
      "ImagedNucleus": "1H",
      "ImagingFrequency": 123.25938,
      "InPlanePhaseEncodingDirection": "COL",
      "MRAcquisitionType": "2D",
      "MagneticFieldStrength": 3.0,
      "Manufacturer": "SIEMENS",
      "ManufacturerModelName": "Prisma_fit",
      "Modality": "MR",
      "NumberOfAverages": 1.0,
      "NumberOfPhaseEncodingSteps": 104,
      "PercentPhaseFieldOfView": 100.0,
      "PercentSampling": 100.0,
      "PerformedProcedureStepStartTime": "130237.452000",
      "PhotometricInterpretation": "MONOCHROME2",
      "PixelBandwidth": 2290.0,
      "PixelRepresentation": 0,
      "PixelSpacing": [2.0, 2.0],
      "ProtocolName": "func_task-s01e05b",
      "RepetitionTime": 1490.0,
      "Rows": 832,
      "SAR": 0.03001448171654,
      "SamplesPerPixel": 1,
      "ScanOptions": "FS",
      "ScanningSequence": "EP",
      "SequenceName": "epfid2d1_104",
      "SequenceVariant": [
        "SK",
        "SS"
],
      "SeriesDescription": "func_task-s01e05b",
      "SeriesNumber": 36,
      "SeriesTime": "151936.350000",
      "SliceLocation": -41.912267100334,
      "SliceThickness": 2.0,
      "SmallestImagePixelValue": 0,
      "SoftwareVersions": "syngo MR E11",
      "SpacingBetweenSlices": 2.0000000419061,
      "SpecificCharacterSet": "ISO_IR 100",
      "StudyID": "1",
      "StudyTime": "130237.300000",
      "TransmitCoilName": "Body",
      "VariableFlipAngleFlag": "N",
      "WindowCenterWidthExplanation": "Algo1",
      "dBdt": 0.0},
    "slices": {}
  },
  "time": {
    "samples": {
      "AcquisitionNumber": [1, 2, 3, 4, 5, 6, 7, 8, 9, 10, 11, 12, 13, 14, 15, 16, 17, 18, 19, 20, 21, 22, 23, 24, 25, 26, 27, 28, 29, 30, 31, 32, 33, 34, 35, 36, 37, 38, 39, 40, 41, 42, 43, 44, 45, 46, 47, 48, 49, 50, 51, 52, 53, 54, 55, 56, 57, 58, 59, 60, 61, 62, 63, 64, 65, 66, 67, 68, 69, 70, 71, 72, 73, 74, 75, 76, 77, 78, 79, 80, 81, 82, 83, 84, 85, 86, 87, 88, 89, 90, 91, 92, 93, 94, 95, 96, 97, 98, 99, 100, 101, 102, 103, 104, 105, 106, 107, 108, 109, 110, 111, 112, 113, 114, 115, 116, 117, 118, 119, 120, 121, 122, 123, 124, 125, 126, 127, 128, 129, 130, 131, 132, 133, 134, 135, 136, 137, 138, 139, 140, 141, 142, 143, 144, 145, 146, 147, 148, 149, 150, 151, 152, 153, 154, 155, 156, 157, 158, 159, 160, 161, 162, 163, 164, 165, 166, 167, 168, 169, 170, 171, 172, 173, 174, 175, 176, 177, 178, 179, 180, 181, 182, 183, 184, 185, 186, 187, 188, 189, 190, 191, 192, 193, 194, 195, 196, 197, 198, 199, 200, 201, 202, 203, 204, 205, 206, 207, 208, 209, 210, 211, 212, 213, 214, 215, 216, 217, 218, 219, 220, 221, 222, 223, 224, 225, 226, 227, 228, 229, 230, 231, 232, 233, 234, 235, 236, 237, 238, 239, 240, 241, 242, 243, 244, 245, 246, 247, 248, 249, 250, 251, 252, 253, 254, 255, 256, 257, 258, 259, 260, 261, 262, 263, 264, 265, 266, 267, 268, 269, 270, 271, 272, 273, 274, 275, 276, 277, 278, 279, 280, 281, 282, 283, 284, 285, 286, 287, 288, 289, 290, 291, 292, 293, 294, 295, 296, 297, 298, 299, 300, 301, 302, 303, 304, 305, 306, 307, 308, 309, 310, 311, 312, 313, 314, 315, 316, 317, 318, 319, 320, 321, 322, 323, 324, 325, 326, 327, 328, 329, 330, 331, 332, 333, 334, 335, 336, 337, 338, 339, 340, 341, 342, 343, 344, 345, 346, 347, 348, 349, 350, 351, 352, 353, 354, 355, 356, 357, 358, 359, 360, 361, 362, 363, 364, 365, 366, 367, 368, 369, 370, 371, 372, 373, 374, 375, 376, 377, 378, 379, 380, 381, 382, 383, 384, 385, 386, 387, 388, 389, 390, 391, 392, 393, 394, 395, 396, 397, 398, 399, 400, 401, 402, 403, 404, 405, 406, 407, 408, 409, 410, 411, 412, 413, 414, 415, 416, 417, 418, 419, 420, 421, 422, 423, 424, 425, 426, 427, 428, 429, 430, 431, 432, 433, 434, 435, 436, 437, 438, 439, 440, 441, 442, 443, 444, 445, 446, 447, 448, 449, 450, 451, 452, 453, 454, 455, 456, 457, 458, 459, 460, 461, 462, 463, 464, 465, 466, 467, 468, 469, 470, 471, 472, 473, 474, 475, 476, 477, 478, 479, 480, 481, 482, 483, 484, 485, 486, 487, 488],
      "AcquisitionTime": ["151825.665000", "151827.155000", "151828.645000", "151830.135000", "151831.625000", "151833.115000", "151834.605000", "151836.095000", "151837.585000", "151839.075000", "151840.565000", "151842.055000", "151843.545000", "151845.035000", "151846.525000", "151848.015000", "151849.505000", "151850.995000", "151852.485000", "151853.975000", "151855.465000", "151856.955000", "151858.445000", "151859.935000", "151901.425000", "151902.915000", "151904.405000", "151905.895000", "151907.385000", "151908.875000", "151910.365000", "151911.855000", "151913.345000", "151914.835000", "151916.325000", "151917.815000", "151919.305000", "151920.795000", "151922.285000", "151923.775000", "151925.265000", "151926.755000", "151928.245000", "151929.735000", "151931.225000", "151932.715000", "151934.205000", "151935.695000", "151937.185000", "151938.675000", "151940.165000", "151941.655000", "151943.145000", "151944.635000", "151946.125000", "151947.615000", "151949.105000", "151950.595000", "151952.085000", "151953.575000", "151955.065000", "151956.555000", "151958.045000", "151959.535000", "152001.025000", "152002.515000", "152004.005000", "152005.495000", "152006.985000", "152008.475000", "152009.965000", "152011.455000", "152012.945000", "152014.435000", "152015.925000", "152017.415000", "152018.905000", "152020.395000", "152021.885000", "152023.375000", "152024.865000", "152026.355000", "152027.845000", "152029.335000", "152030.825000", "152032.315000", "152033.805000", "152035.295000", "152036.785000", "152038.275000", "152039.765000", "152041.255000", "152042.745000", "152044.235000", "152045.725000", "152047.215000", "152048.705000", "152050.195000", "152051.685000", "152053.175000", "152054.665000", "152056.155000", "152057.645000", "152059.135000", "152100.625000", "152102.115000", "152103.605000", "152105.095000", "152106.585000", "152108.075000", "152109.565000", "152111.055000", "152112.545000", "152114.035000", "152115.525000", "152117.015000", "152118.505000", "152119.995000", "152121.485000", "152122.975000", "152124.465000", "152125.955000", "152127.445000", "152128.935000", "152130.425000", "152131.915000", "152133.405000", "152134.895000", "152136.385000", "152137.875000", "152139.365000", "152140.855000", "152142.345000", "152143.835000", "152145.325000", "152146.815000", "152148.305000", "152149.795000", "152151.285000", "152152.775000", "152154.265000", "152155.755000", "152157.245000", "152158.735000", "152200.225000", "152201.715000", "152203.205000", "152204.695000", "152206.185000", "152207.675000", "152209.165000", "152210.655000", "152212.145000", "152213.635000", "152215.125000", "152216.615000", "152218.105000", "152219.595000", "152221.085000", "152222.575000", "152224.065000", "152225.555000", "152227.045000", "152228.535000", "152230.025000", "152231.515000", "152233.005000", "152234.495000", "152235.985000", "152237.475000", "152238.965000", "152240.455000", "152241.945000", "152243.435000", "152244.925000", "152246.415000", "152247.905000", "152249.395000", "152250.885000", "152252.375000", "152253.865000", "152255.355000", "152256.845000", "152258.335000", "152259.825000", "152301.315000", "152302.805000", "152304.295000", "152305.785000", "152307.275000", "152308.765000", "152310.255000", "152311.745000", "152313.235000", "152314.725000", "152316.215000", "152317.705000", "152319.195000", "152320.685000", "152322.175000", "152323.665000", "152325.155000", "152326.645000", "152328.135000", "152329.625000", "152331.115000", "152332.605000", "152334.095000", "152335.585000", "152337.075000", "152338.565000", "152340.055000", "152341.545000", "152343.035000", "152344.525000", "152346.015000", "152347.505000", "152348.995000", "152350.485000", "152351.975000", "152353.465000", "152354.955000", "152356.445000", "152357.935000", "152359.425000", "152400.915000", "152402.405000", "152403.895000", "152405.385000", "152406.875000", "152408.365000", "152409.855000", "152411.345000", "152412.835000", "152414.325000", "152415.815000", "152417.305000", "152418.795000", "152420.285000", "152421.775000", "152423.265000", "152424.755000", "152426.245000", "152427.735000", "152429.225000", "152430.715000", "152432.205000", "152433.695000", "152435.185000", "152436.675000", "152438.165000", "152439.655000", "152441.145000", "152442.635000", "152444.125000", "152445.615000", "152447.105000", "152448.595000", "152450.085000", "152451.575000", "152453.065000", "152454.555000", "152456.045000", "152457.535000", "152459.025000", "152500.515000", "152502.005000", "152503.495000", "152504.985000", "152506.475000", "152507.965000", "152509.455000", "152510.945000", "152512.435000", "152513.925000", "152515.415000", "152516.905000", "152518.395000", "152519.885000", "152521.375000", "152522.865000", "152524.355000", "152525.845000", "152527.335000", "152528.825000", "152530.315000", "152531.805000", "152533.295000", "152534.785000", "152536.275000", "152537.765000", "152539.255000", "152540.745000", "152542.235000", "152543.725000", "152545.215000", "152546.705000", "152548.195000", "152549.685000", "152551.175000", "152552.665000", "152554.155000", "152555.645000", "152557.135000", "152558.625000", "152600.115000", "152601.605000", "152603.095000", "152604.585000", "152606.075000", "152607.565000", "152609.055000", "152610.545000", "152612.035000", "152613.525000", "152615.015000", "152616.505000", "152617.995000", "152619.485000", "152620.975000", "152622.465000", "152623.955000", "152625.445000", "152626.935000", "152628.425000", "152629.915000", "152631.405000", "152632.895000", "152634.385000", "152635.875000", "152637.365000", "152638.855000", "152640.345000", "152641.835000", "152643.325000", "152644.815000", "152646.305000", "152647.795000", "152649.285000", "152650.775000", "152652.265000", "152653.755000", "152655.245000", "152656.735000", "152658.225000", "152659.715000", "152701.205000", "152702.695000", "152704.185000", "152705.675000", "152707.165000", "152708.655000", "152710.145000", "152711.635000", "152713.125000", "152714.615000", "152716.105000", "152717.595000", "152719.085000", "152720.575000", "152722.065000", "152723.555000", "152725.045000", "152726.535000", "152728.025000", "152729.515000", "152731.005000", "152732.495000", "152733.985000", "152735.475000", "152736.965000", "152738.455000", "152739.945000", "152741.435000", "152742.925000", "152744.415000", "152745.905000", "152747.395000", "152748.885000", "152750.375000", "152751.865000", "152753.355000", "152754.845000", "152756.335000", "152757.825000", "152759.315000", "152800.805000", "152802.295000", "152803.785000", "152805.275000", "152806.765000", "152808.255000", "152809.745000", "152811.235000", "152812.725000", "152814.215000", "152815.705000", "152817.195000", "152818.685000", "152820.175000", "152821.665000", "152823.155000", "152824.645000", "152826.135000", "152827.625000", "152829.115000", "152830.605000", "152832.095000", "152833.585000", "152835.075000", "152836.565000", "152838.055000", "152839.545000", "152841.035000", "152842.525000", "152844.015000", "152845.505000", "152846.995000", "152848.485000", "152849.975000", "152851.465000", "152852.955000", "152854.445000", "152855.935000", "152857.425000", "152858.915000", "152900.405000", "152901.895000", "152903.385000", "152904.875000", "152906.365000", "152907.855000", "152909.345000", "152910.835000", "152912.325000", "152913.815000", "152915.305000", "152916.795000", "152918.285000", "152919.775000", "152921.265000", "152922.755000", "152924.245000", "152925.735000", "152927.225000", "152928.715000", "152930.205000", "152931.695000", "152933.185000", "152934.675000", "152936.165000", "152937.655000", "152939.145000", "152940.635000", "152942.125000", "152943.615000", "152945.105000", "152946.595000", "152948.085000", "152949.575000", "152951.065000", "152952.555000", "152954.045000", "152955.535000", "152957.025000", "152958.515000", "153000.005000", "153001.495000", "153002.985000", "153004.475000", "153005.965000", "153007.455000", "153008.945000", "153010.435000", "153011.925000", "153013.415000", "153014.905000", "153016.395000", "153017.885000", "153019.375000", "153020.865000", "153022.355000", "153023.845000", "153025.335000", "153026.825000", "153028.315000", "153029.805000", "153031.295000"],
      "ContentTime": ["151936.352000", "151936.356000", "151936.359000", "151936.370000", "151936.373000", "151936.376000", "151936.379000", "151936.382000", "151936.385000", "151936.388000", "151936.394000", "151936.397000", "151936.400000", "151936.403000", "151936.406000", "151936.411000", "151956.308000", "151956.317000", "151956.320000", "151956.322000", "151956.325000", "151956.328000", "151956.331000", "151956.334000", "151956.337000", "151956.340000", "151956.342000", "151956.345000", "151956.348000", "151956.351000", "151956.354000", "151956.357000", "151956.360000", "151956.363000", "151956.365000", "151956.368000", "151956.371000", "152016.308000", "152016.311000", "152016.314000", "152016.317000", "152016.320000", "152016.322000", "152016.325000", "152016.328000", "152016.331000", "152016.334000", "152016.337000", "152016.351000", "152016.353000", "152016.356000", "152016.359000", "152016.362000", "152016.365000", "152016.368000", "152016.371000", "152016.374000", "152036.307000", "152036.310000", "152036.313000", "152036.316000", "152036.319000", "152036.321000", "152036.324000", "152036.327000", "152036.330000", "152036.333000", "152036.336000", "152036.339000", "152036.342000", "152036.344000", "152036.347000", "152036.350000", "152036.353000", "152036.356000", "152036.359000", "152036.362000", "152056.307000", "152056.310000", "152056.313000", "152056.316000", "152056.318000", "152056.321000", "152056.324000", "152056.327000", "152056.330000", "152056.333000", "152056.336000", "152056.339000", "152056.342000", "152056.344000", "152056.347000", "152056.350000", "152056.353000", "152056.356000", "152056.359000", "152056.362000", "152136.307000", "152136.310000", "152136.313000", "152136.316000", "152136.319000", "152136.322000", "152136.324000", "152136.327000", "152136.330000", "152136.346000", "152136.349000", "152136.352000", "152136.355000", "152136.358000", "152136.360000", "152136.363000", "152136.366000", "152136.369000", "152136.372000", "152136.379000", "152136.382000", "152136.384000", "152136.387000", "152136.390000", "152136.393000", "152136.396000", "152136.399000", "152136.402000", "152136.405000", "152136.408000", "152216.308000", "152216.311000", "152216.314000", "152216.317000", "152216.320000", "152216.322000", "152216.325000", "152216.328000", "152216.331000", "152216.334000", "152216.337000", "152216.340000", "152216.343000", "152216.346000", "152216.348000", "152216.351000", "152216.354000", "152216.357000", "152216.360000", "152216.363000", "152216.366000", "152216.369000", "152216.372000", "152216.375000", "152216.377000", "152216.380000", "152216.383000", "152256.307000", "152256.310000", "152256.313000", "152256.316000", "152256.319000", "152256.321000", "152256.325000", "152256.327000", "152256.330000", "152256.333000", "152256.336000", "152256.339000", "152256.342000", "152256.345000", "152256.348000", "152256.351000", "152256.354000", "152256.356000", "152256.359000", "152256.362000", "152256.365000", "152256.368000", "152256.371000", "152256.374000", "152256.377000", "152256.379000", "152256.382000", "152336.307000", "152336.310000", "152336.313000", "152336.316000", "152336.319000", "152336.322000", "152336.325000", "152336.328000", "152336.331000", "152336.334000", "152336.336000", "152336.339000", "152336.342000", "152336.345000", "152336.348000", "152336.351000", "152336.354000", "152336.357000", "152336.360000", "152336.363000", "152336.366000", "152336.368000", "152336.371000", "152336.374000", "152336.377000", "152336.380000", "152336.383000", "152416.308000", "152416.311000", "152416.314000", "152416.317000", "152416.320000", "152416.323000", "152416.326000", "152416.329000", "152416.332000", "152416.335000", "152416.337000", "152416.340000", "152416.343000", "152416.346000", "152416.349000", "152416.352000", "152416.355000", "152416.358000", "152416.360000", "152416.363000", "152416.366000", "152416.369000", "152416.372000", "152416.375000", "152416.378000", "152416.381000", "152416.383000", "152456.308000", "152456.311000", "152456.314000", "152456.317000", "152456.320000", "152456.323000", "152456.326000", "152456.329000", "152456.331000", "152456.334000", "152456.338000", "152456.341000", "152456.344000", "152456.347000", "152456.350000", "152456.353000", "152456.356000", "152456.359000", "152456.362000", "152456.365000", "152456.368000", "152456.385000", "152456.388000", "152456.391000", "152456.394000", "152456.397000", "152536.307000", "152536.310000", "152536.313000", "152536.316000", "152536.319000", "152536.322000", "152536.325000", "152536.328000", "152536.331000", "152536.333000", "152536.336000", "152536.339000", "152536.342000", "152536.345000", "152536.348000", "152536.351000", "152536.354000", "152536.357000", "152536.360000", "152536.363000", "152536.366000", "152536.369000", "152536.372000", "152536.374000", "152536.377000", "152536.380000", "152536.383000", "152616.307000", "152616.310000", "152616.313000", "152616.316000", "152616.319000", "152616.322000", "152616.325000", "152616.328000", "152616.330000", "152616.333000", "152616.336000", "152616.339000", "152616.342000", "152616.345000", "152616.348000", "152616.351000", "152616.354000", "152616.357000", "152616.360000", "152616.363000", "152616.385000", "152616.388000", "152616.391000", "152616.394000", "152616.397000", "152616.400000", "152616.402000", "152656.308000", "152656.311000", "152656.314000", "152656.317000", "152656.320000", "152656.332000", "152656.335000", "152656.338000", "152656.341000", "152656.344000", "152656.347000", "152656.350000", "152656.353000", "152656.356000", "152656.358000", "152656.361000", "152656.364000", "152656.367000", "152656.370000", "152656.373000", "152656.376000", "152656.379000", "152656.382000", "152656.385000", "152656.388000", "152656.391000", "152656.393000", "152736.307000", "152736.310000", "152736.313000", "152736.316000", "152736.319000", "152736.322000", "152736.325000", "152736.328000", "152736.331000", "152736.333000", "152736.336000", "152736.339000", "152736.342000", "152736.345000", "152736.348000", "152736.351000", "152736.354000", "152736.357000", "152736.360000", "152736.363000", "152736.366000", "152736.369000", "152736.372000", "152736.374000", "152736.377000", "152736.380000", "152736.383000", "152816.307000", "152816.310000", "152816.313000", "152816.316000", "152816.319000", "152816.322000", "152816.325000", "152816.328000", "152816.331000", "152816.333000", "152816.336000", "152816.339000", "152816.342000", "152816.345000", "152816.348000", "152816.351000", "152816.354000", "152816.357000", "152816.360000", "152816.363000", "152816.366000", "152816.369000", "152816.372000", "152816.374000", "152816.377000", "152816.380000", "152816.383000", "152836.307000", "152836.310000", "152836.313000", "152836.316000", "152836.319000", "152836.322000", "152836.325000", "152836.328000", "152836.331000", "152836.334000", "152836.337000", "152836.339000", "152836.342000", "152916.308000", "152916.311000", "152916.314000", "152916.317000", "152916.320000", "152916.323000", "152916.326000", "152916.329000", "152916.332000", "152916.334000", "152916.337000", "152916.340000", "152916.343000", "152916.346000", "152916.349000", "152916.352000", "152916.355000", "152916.358000", "152916.361000", "152916.363000", "152916.366000", "152916.369000", "152916.372000", "152916.375000", "152916.378000", "152916.381000", "152916.384000", "152956.307000", "152956.310000", "152956.313000", "152956.316000", "152956.319000", "152956.322000", "152956.325000", "152956.328000", "152956.331000", "152956.334000", "152956.336000", "152956.339000", "152956.342000", "152956.345000", "152956.348000", "152956.351000", "152956.354000", "152956.357000", "152956.360000", "152956.363000", "152956.366000", "152956.369000", "152956.372000", "152956.374000", "152956.377000", "152956.380000", "152956.383000", "153033.248000", "153033.252000", "153033.255000", "153033.258000", "153033.261000", "153033.263000", "153033.266000", "153033.269000", "153033.273000", "153033.276000", "153033.279000", "153033.282000", "153033.285000", "153033.289000", "153033.292000", "153033.295000", "153033.298000", "153033.301000", "153033.305000", "153033.308000", "153033.311000", "153033.320000", "153033.322000", "153033.325000", "153033.328000"],
