{
  "AcquisitionMatrixPE": 104,
  "AcquisitionNumber": 1,
  "AcquisitionTime": "19:06:21.220000",
  "BandwidthPerPixelPhaseEncode": 17.17,
  "BaseResolution": 104,
  "BodyPartExamined": "BRAIN",
  "CoilCombinationMethod": "Sum of Squares",
  "ConsistencyInfo": "N4_VE11C_LATEST_20160120",
  "ConversionSoftware": "dcm2niix",
  "ConversionSoftwareVersion": "v1.0.20211006",
  "DerivedVendorReportedEchoSpacing": 0.000560011,
  "DeviceSerialNumber": "167006",
  "DwellTime": 2.1e-06,
  "EchoTime": 0.037,
  "EchoTrainLength": 104,
  "EffectiveEchoSpacing": 0.000560011,
  "FlipAngle": 52,
  "HeudiconvVersion": "0.11.3.post9+gc939bf8",
  "ImageComments": "Unaliased MB4/PE3/LB",
  "ImageOrientationPatientDICOM": [0.999873, -0.0138678, -0.00783604, 0.0102964, 0.938062, -0.346315],
  "ImageOrientationText": "Tra>Cor(-20.3)>Sag(-0.7)",
  "ImageType": [
    "ORIGINAL",
    "PRIMARY",
    "M",
    "MB",
    "ND",
    "MOSAIC"
],
  "ImagingFrequency": 123.259,
  "InPlanePhaseEncodingDirectionDICOM": "COL",
  "InstitutionAddress": "Chemin Queen-Mary 4565,Montreal,District,CA,H3W 1W5",
  "InstitutionName": "IUGM",
  "InstitutionalDepartmentName": "Department",
  "MRAcquisitionType": "2D",
  "MagneticFieldStrength": 3,
  "Manufacturer": "Siemens",
  "ManufacturersModelName": "Prisma_fit",
  "MatrixCoilMode": "SENSE",
  "Modality": "MR",
  "MultibandAccelerationFactor": 4,
  "PartialFourier": 1,
  "PatientPosition": "HFS",
  "PercentPhaseFOV": 100,
  "PercentSampling": 100,
  "PhaseEncodingDirection": "j",
  "PhaseEncodingSteps": 104,
  "PhaseResolution": 1,
  "PixelBandwidth": 2290,
  "ProcedureStepDescription": "video^friends",
  "ProtocolName": "func_task-friends-s06e24b",
  "PulseSequenceDetails": "%CustomerSeq%\\cmrr_mbep2d_bold",
  "ReceiveCoilActiveElements": "HC1-7;NC1,2",
  "ReceiveCoilName": "HeadNeck_64",
  "ReconMatrixPE": 104,
  "RepetitionTime": 1.49,
  "SAR": 0.0592388,
  "ScanOptions": "FS",
  "ScanningSequence": "EP",
  "SequenceName": "epfid2d1_104",
  "SequenceVariant": "SK\\SS",
  "SeriesDescription": "func_task-friends-s06e24b",
  "SeriesNumber": 12,
  "ShimSetting": [612, -7270, -8826, 415, -14, -366, 1, 42],
  "SliceThickness": 2,
  "SliceTiming": [0, 0.785, 0.0975, 0.8825, 0.195, 0.98, 0.295, 1.0775, 0.3925, 1.175, 0.49, 1.275, 0.5875, 1.3725, 0.685, 0, 0.785, 0.0975, 0.8825, 0.195, 0.98, 0.295, 1.0775, 0.3925, 1.175, 0.49, 1.275, 0.5875, 1.3725, 0.685, 0, 0.785, 0.0975, 0.8825, 0.195, 0.98, 0.295, 1.0775, 0.3925, 1.175, 0.49, 1.275, 0.5875, 1.3725, 0.685, 0, 0.785, 0.0975, 0.8825, 0.195, 0.98, 0.295, 1.0775, 0.3925, 1.175, 0.49, 1.275, 0.5875, 1.3725, 0.685],
  "SoftwareVersions": "syngo MR E11",
  "SpacingBetweenSlices": 2,
  "StationName": "MRC35049",
  "TaskName": "s06e24b",
  "TotalReadoutTime": 0.0576811,
  "TxRefAmp": 258.515,
  "WipMemBlock": "c7a112fc-31b0-41e1-ab49-eb7e8af55726||Sequence: R017 ve11c/master r/75a17815+; Jun 28 2022 16:32:11 by eja",
  "dcmmeta_affine": [
    [-1.999746322631836, 0.02059287764132023, -0.02430664375424385, 98.84223937988281],
    [0.027735630050301552, 1.8761237859725952, -0.6923800706863403, -71.69935607910156],
    [-0.01567208766937256, 0.692629337310791, 1.876171350479126, -59.856201171875],
    [0.0, 0.0, 0.0, 1.0]
],
  "dcmmeta_reorient_transform": [
    [0.0, -1.0, 0.0, 103.0],
    [1.0, 0.0, 0.0, 0.0],
    [0.0, 0.0, 1.0, 0.0],
    [0.0, 0.0, 0.0, 1.0]
],
  "dcmmeta_shape": [104, 104, 60, 461],
  "dcmmeta_slice_dim": 2,
  "dcmmeta_version": 0.6,
  "global": {
    "const": {
      "AcquisitionMatrix": [104, 0, 0, 104],
      "AngioFlag": "N",
      "BitsAllocated": 16,
      "BitsStored": 16,
      "BodyPartExamined": "BRAIN",
      "Columns": 832,
      "EchoNumbers": 1,
      "EchoTime": 37.0,
      "EchoTrainLength": 104,
      "FlipAngle": 52.0,
      "HighBit": 15,
      "ImageOrientationPatient": [0.99987313201637, -0.0138678149592, -0.0078360436467, 0.01029643842356, 0.93806190586482, -0.3463146605633],
      "ImagePositionPatient": [-836.36675038785, -794.35469649356, 269.3063304675],
      "ImageType": [
        "ORIGINAL",
        "PRIMARY",
        "M",
        "MB",
        "ND",
        "MOSAIC"
],
      "ImagedNucleus": "1H",
      "ImagingFrequency": 123.258775,
      "InPlanePhaseEncodingDirection": "COL",
      "MRAcquisitionType": "2D",
      "MagneticFieldStrength": 3.0,
      "Manufacturer": "SIEMENS",
      "ManufacturerModelName": "Prisma_fit",
      "Modality": "MR",
      "NumberOfAverages": 1.0,
      "NumberOfPhaseEncodingSteps": 104,
      "PercentPhaseFieldOfView": 100.0,
      "PercentSampling": 100.0,
      "PerformedProcedureStepStartTime": "184908.076000",
      "PhotometricInterpretation": "MONOCHROME2",
      "PixelBandwidth": 2290.0,
      "PixelRepresentation": 0,
      "PixelSpacing": [2.0, 2.0],
      "ProtocolName": "func_task-friends-s06e24b",
      "RepetitionTime": 1490.0,
      "Rows": 832,
      "SAR": 0.05923879245392,
      "SamplesPerPixel": 1,
      "ScanOptions": "FS",
      "ScanningSequence": "EP",
      "SequenceName": "epfid2d1_104",
      "SequenceVariant": [
        "SK",
        "SS"
],
      "SeriesDescription": "func_task-friends-s06e24b",
      "SeriesNumber": 12,
      "SeriesTime": "190737.544000",
      "SliceLocation": -32.529905604748,
      "SliceThickness": 2.0,
      "SmallestImagePixelValue": 0,
      "SoftwareVersions": "syngo MR E11",
      "SpacingBetweenSlices": 1.9999999702277,
      "SpecificCharacterSet": "ISO_IR 100",
      "StudyID": "1",
      "StudyTime": "184907.985000",
      "TransmitCoilName": "Body",
      "VariableFlipAngleFlag": "N",
      "WindowCenterWidthExplanation": "Algo1",
      "dBdt": 0.0},
    "slices": {}
  },
  "time": {
    "samples": {
      "AcquisitionNumber": [1, 2, 3, 4, 5, 6, 7, 8, 9, 10, 11, 12, 13, 14, 15, 16, 17, 18, 19, 20, 21, 22, 23, 24, 25, 26, 27, 28, 29, 30, 31, 32, 33, 34, 35, 36, 37, 38, 39, 40, 41, 42, 43, 44, 45, 46, 47, 48, 49, 50, 51, 52, 53, 54, 55, 56, 57, 58, 59, 60, 61, 62, 63, 64, 65, 66, 67, 68, 69, 70, 71, 72, 73, 74, 75, 76, 77, 78, 79, 80, 81, 82, 83, 84, 85, 86, 87, 88, 89, 90, 91, 92, 93, 94, 95, 96, 97, 98, 99, 100, 101, 102, 103, 104, 105, 106, 107, 108, 109, 110, 111, 112, 113, 114, 115, 116, 117, 118, 119, 120, 121, 122, 123, 124, 125, 126, 127, 128, 129, 130, 131, 132, 133, 134, 135, 136, 137, 138, 139, 140, 141, 142, 143, 144, 145, 146, 147, 148, 149, 150, 151, 152, 153, 154, 155, 156, 157, 158, 159, 160, 161, 162, 163, 164, 165, 166, 167, 168, 169, 170, 171, 172, 173, 174, 175, 176, 177, 178, 179, 180, 181, 182, 183, 184, 185, 186, 187, 188, 189, 190, 191, 192, 193, 194, 195, 196, 197, 198, 199, 200, 201, 202, 203, 204, 205, 206, 207, 208, 209, 210, 211, 212, 213, 214, 215, 216, 217, 218, 219, 220, 221, 222, 223, 224, 225, 226, 227, 228, 229, 230, 231, 232, 233, 234, 235, 236, 237, 238, 239, 240, 241, 242, 243, 244, 245, 246, 247, 248, 249, 250, 251, 252, 253, 254, 255, 256, 257, 258, 259, 260, 261, 262, 263, 264, 265, 266, 267, 268, 269, 270, 271, 272, 273, 274, 275, 276, 277, 278, 279, 280, 281, 282, 283, 284, 285, 286, 287, 288, 289, 290, 291, 292, 293, 294, 295, 296, 297, 298, 299, 300, 301, 302, 303, 304, 305, 306, 307, 308, 309, 310, 311, 312, 313, 314, 315, 316, 317, 318, 319, 320, 321, 322, 323, 324, 325, 326, 327, 328, 329, 330, 331, 332, 333, 334, 335, 336, 337, 338, 339, 340, 341, 342, 343, 344, 345, 346, 347, 348, 349, 350, 351, 352, 353, 354, 355, 356, 357, 358, 359, 360, 361, 362, 363, 364, 365, 366, 367, 368, 369, 370, 371, 372, 373, 374, 375, 376, 377, 378, 379, 380, 381, 382, 383, 384, 385, 386, 387, 388, 389, 390, 391, 392, 393, 394, 395, 396, 397, 398, 399, 400, 401, 402, 403, 404, 405, 406, 407, 408, 409, 410, 411, 412, 413, 414, 415, 416, 417, 418, 419, 420, 421, 422, 423, 424, 425, 426, 427, 428, 429, 430, 431, 432, 433, 434, 435, 436, 437, 438, 439, 440, 441, 442, 443, 444, 445, 446, 447, 448, 449, 450, 451, 452, 453, 454, 455, 456, 457, 458, 459, 460, 461],
      "AcquisitionTime": ["190621.220000", "190622.710000", "190624.200000", "190625.690000", "190627.180000", "190628.670000", "190630.160000", "190631.650000", "190633.140000", "190634.630000", "190636.120000", "190637.610000", "190639.100000", "190640.590000", "190642.080000", "190643.570000", "190645.060000", "190646.550000", "190648.040000", "190649.530000", "190651.020000", "190652.510000", "190654.000000", "190655.490000", "190656.980000", "190658.470000", "190659.960000", "190701.450000", "190702.940000", "190704.430000", "190705.920000", "190707.410000", "190708.900000", "190710.390000", "190711.880000", "190713.370000", "190714.860000", "190716.350000", "190717.840000", "190719.330000", "190720.820000", "190722.310000", "190723.800000", "190725.290000", "190726.780000", "190728.270000", "190729.760000", "190731.250000", "190732.740000", "190734.230000", "190735.720000", "190737.210000", "190738.700000", "190740.190000", "190741.680000", "190743.170000", "190744.660000", "190746.150000", "190747.640000", "190749.130000", "190750.620000", "190752.110000", "190753.600000", "190755.090000", "190756.580000", "190758.070000", "190759.560000", "190801.050000", "190802.540000", "190804.030000", "190805.520000", "190807.010000", "190808.500000", "190809.990000", "190811.480000", "190812.970000", "190814.460000", "190815.950000", "190817.440000", "190818.930000", "190820.420000", "190821.910000", "190823.400000", "190824.890000", "190826.380000", "190827.870000", "190829.360000", "190830.850000", "190832.340000", "190833.830000", "190835.320000", "190836.810000", "190838.300000", "190839.790000", "190841.280000", "190842.770000", "190844.260000", "190845.750000", "190847.240000", "190848.730000", "190850.220000", "190851.710000", "190853.200000", "190854.690000", "190856.180000", "190857.670000", "190859.160000", "190900.650000", "190902.140000", "190903.630000", "190905.120000", "190906.610000", "190908.100000", "190909.590000", "190911.080000", "190912.570000", "190914.060000", "190915.550000", "190917.040000", "190918.530000", "190920.020000", "190921.510000", "190923.000000", "190924.490000", "190925.980000", "190927.470000", "190928.960000", "190930.450000", "190931.940000", "190933.430000", "190934.920000", "190936.410000", "190937.900000", "190939.390000", "190940.880000", "190942.370000", "190943.860000", "190945.350000", "190946.840000", "190948.330000", "190949.820000", "190951.310000", "190952.800000", "190954.290000", "190955.780000", "190957.270000", "190958.760000", "191000.250000", "191001.740000", "191003.230000", "191004.720000", "191006.210000", "191007.700000", "191009.190000", "191010.680000", "191012.170000", "191013.660000", "191015.150000", "191016.640000", "191018.130000", "191019.620000", "191021.110000", "191022.600000", "191024.090000", "191025.580000", "191027.070000", "191028.560000", "191030.050000", "191031.540000", "191033.030000", "191034.520000", "191036.010000", "191037.500000", "191038.990000", "191040.480000", "191041.970000", "191043.460000", "191044.950000", "191046.440000", "191047.930000", "191049.420000", "191050.910000", "191052.400000", "191053.890000", "191055.380000", "191056.870000", "191058.360000", "191059.850000", "191101.340000", "191102.830000", "191104.320000", "191105.810000", "191107.300000", "191108.790000", "191110.280000", "191111.770000", "191113.260000", "191114.750000", "191116.240000", "191117.730000", "191119.220000", "191120.710000", "191122.200000", "191123.690000", "191125.180000", "191126.670000", "191128.160000", "191129.650000", "191131.140000", "191132.630000", "191134.120000", "191135.610000", "191137.100000", "191138.590000", "191140.080000", "191141.570000", "191143.060000", "191144.550000", "191146.040000", "191147.530000", "191149.020000", "191150.510000", "191152.000000", "191153.490000", "191154.980000", "191156.470000", "191157.960000", "191159.450000", "191200.940000", "191202.430000", "191203.920000", "191205.410000", "191206.900000", "191208.390000", "191209.880000", "191211.370000", "191212.860000", "191214.350000", "191215.840000", "191217.330000", "191218.820000", "191220.310000", "191221.800000", "191223.290000", "191224.780000", "191226.270000", "191227.760000", "191229.250000", "191230.740000", "191232.230000", "191233.720000", "191235.210000", "191236.700000", "191238.190000", "191239.680000", "191241.170000", "191242.660000", "191244.150000", "191245.640000", "191247.130000", "191248.620000", "191250.110000", "191251.600000", "191253.090000", "191254.580000", "191256.070000", "191257.560000", "191259.050000", "191300.540000", "191302.030000", "191303.520000", "191305.010000", "191306.500000", "191307.990000", "191309.480000", "191310.970000", "191312.460000", "191313.950000", "191315.440000", "191316.930000", "191318.420000", "191319.910000", "191321.400000", "191322.890000", "191324.380000", "191325.870000", "191327.360000", "191328.850000", "191330.340000", "191331.830000", "191333.320000", "191334.810000", "191336.300000", "191337.790000", "191339.280000", "191340.770000", "191342.260000", "191343.750000", "191345.240000", "191346.730000", "191348.220000", "191349.710000", "191351.200000", "191352.690000", "191354.180000", "191355.670000", "191357.160000", "191358.650000", "191400.140000", "191401.630000", "191403.120000", "191404.610000", "191406.100000", "191407.590000", "191409.080000", "191410.570000", "191412.060000", "191413.550000", "191415.040000", "191416.530000", "191418.020000", "191419.510000", "191421.000000", "191422.490000", "191423.980000", "191425.470000", "191426.960000", "191428.450000", "191429.940000", "191431.430000", "191432.920000", "191434.410000", "191435.900000", "191437.390000", "191438.880000", "191440.370000", "191441.860000", "191443.350000", "191444.840000", "191446.330000", "191447.820000", "191449.310000", "191450.800000", "191452.290000", "191453.780000", "191455.270000", "191456.760000", "191458.250000", "191459.740000", "191501.230000", "191502.720000", "191504.210000", "191505.700000", "191507.190000", "191508.680000", "191510.170000", "191511.660000", "191513.150000", "191514.640000", "191516.130000", "191517.620000", "191519.110000", "191520.600000", "191522.090000", "191523.580000", "191525.070000", "191526.560000", "191528.050000", "191529.540000", "191531.030000", "191532.520000", "191534.010000", "191535.500000", "191536.990000", "191538.480000", "191539.970000", "191541.460000", "191542.950000", "191544.440000", "191545.930000", "191547.420000", "191548.910000", "191550.400000", "191551.890000", "191553.380000", "191554.870000", "191556.360000", "191557.850000", "191559.340000", "191600.830000", "191602.320000", "191603.810000", "191605.300000", "191606.790000", "191608.280000", "191609.770000", "191611.260000", "191612.750000", "191614.240000", "191615.730000", "191617.220000", "191618.710000", "191620.200000", "191621.690000", "191623.180000", "191624.670000", "191626.160000", "191627.650000", "191629.140000", "191630.630000", "191632.120000", "191633.610000", "191635.100000", "191636.590000", "191638.080000", "191639.570000", "191641.060000", "191642.550000", "191644.040000", "191645.530000", "191647.020000", "191648.510000", "191650.000000", "191651.490000", "191652.980000", "191654.470000", "191655.960000", "191657.450000", "191658.940000", "191700.430000", "191701.920000", "191703.410000", "191704.900000", "191706.390000", "191707.880000", "191709.370000", "191710.860000", "191712.350000", "191713.840000", "191715.330000", "191716.820000", "191718.310000", "191719.800000", "191721.290000", "191722.780000", "191724.270000", "191725.760000", "191727.250000", "191728.740000", "191730.230000", "191731.720000", "191733.210000", "191734.700000", "191736.190000", "191737.680000", "191739.170000", "191740.660000", "191742.150000", "191743.640000", "191745.130000", "191746.620000"],
      "ContentTime": ["190737.547000", "190737.550000", "190737.553000", "190737.556000", "190737.559000", "190737.562000", "190737.565000", "190737.568000", "190737.579000", "190737.582000", "190737.585000", "190737.588000", "190737.591000", "190737.594000", "190737.597000", "190737.600000", "190737.603000", "190737.606000", "190737.609000", "190737.612000", "190737.615000", "190737.623000", "190737.625000", "190737.628000", "190737.631000", "190757.513000", "190757.516000", "190757.519000", "190757.522000", "190757.524000", "190757.527000", "190757.530000", "190757.533000", "190757.536000", "190757.539000", "190757.542000", "190757.544000", "190757.547000", "190757.550000", "190757.553000", "190757.556000", "190757.559000", "190757.562000", "190757.564000", "190757.567000", "190757.583000", "190817.513000", "190817.516000", "190817.519000", "190817.521000", "190817.524000", "190817.527000", "190817.530000", "190817.533000", "190817.536000", "190817.538000", "190817.541000", "190817.554000", "190817.556000", "190817.559000", "190817.562000", "190817.565000", "190817.568000", "190817.571000", "190817.574000", "190817.576000", "190837.513000", "190837.516000", "190837.519000", "190837.522000", "190837.524000", "190837.527000", "190837.530000", "190837.533000", "190837.536000", "190837.539000", "190837.542000", "190837.545000", "190837.555000", "190837.558000", "190837.560000", "190837.563000", "190837.566000", "190837.569000", "190837.572000", "190837.575000", "190917.514000", "190917.526000", "190917.529000", "190917.532000", "190917.535000", "190917.538000", "190917.541000", "190917.544000", "190917.547000", "190917.550000", "190917.553000", "190917.556000", "190917.559000", "190917.562000", "190917.565000", "190917.568000", "190917.571000", "190917.586000", "190917.589000", "190917.592000", "190917.595000", "190917.598000", "190917.601000", "190917.604000", "190917.607000", "190917.610000", "190917.612000", "190917.616000", "190917.619000", "190917.623000", "190917.627000", "190957.514000", "190957.517000", "190957.520000", "190957.523000", "190957.526000", "190957.529000", "190957.532000", "190957.534000", "190957.537000", "190957.540000", "190957.543000", "190957.546000", "190957.549000", "190957.552000", "190957.555000", "190957.558000", "190957.561000", "190957.563000", "190957.566000", "190957.569000", "190957.572000", "190957.575000", "190957.578000", "190957.581000", "190957.584000", "190957.587000", "190957.590000", "191017.513000", "191017.516000", "191017.519000", "191017.522000", "191017.525000", "191017.528000", "191017.531000", "191017.534000", "191017.537000", "191017.540000", "191017.543000", "191017.546000", "191017.549000", "191057.513000", "191057.516000", "191057.519000", "191057.522000", "191057.525000", "191057.528000", "191057.530000", "191057.533000", "191057.536000", "191057.544000", "191057.547000", "191057.550000", "191057.553000", "191057.555000", "191057.558000", "191057.561000", "191057.564000", "191057.567000", "191057.570000", "191057.573000", "191057.576000", "191057.579000", "191057.582000", "191057.585000", "191057.593000", "191057.596000", "191057.599000", "191137.514000", "191137.517000", "191137.528000", "191137.531000", "191137.534000", "191137.537000", "191137.540000", "191137.543000", "191137.545000", "191137.548000", "191137.551000", "191137.554000", "191137.557000", "191137.560000", "191137.563000", "191137.566000", "191137.569000", "191137.572000", "191137.575000", "191137.578000", "191137.580000", "191137.583000", "191137.586000", "191137.589000", "191137.592000", "191137.595000", "191137.603000", "191217.514000", "191217.517000", "191217.520000", "191217.523000", "191217.526000", "191217.529000", "191217.532000", "191217.534000", "191217.537000", "191217.540000", "191217.543000", "191217.546000", "191217.549000", "191217.568000", "191217.571000", "191217.574000", "191217.577000", "191217.580000", "191217.582000", "191217.585000", "191217.588000", "191217.591000", "191217.594000", "191217.597000", "191217.600000", "191217.603000", "191217.606000", "191257.513000", "191257.516000", "191257.519000", "191257.522000", "191257.525000", "191257.528000", "191257.530000", "191257.533000", "191257.536000", "191257.539000", "191257.542000", "191257.545000", "191257.548000", "191257.551000", "191257.554000", "191257.557000", "191257.560000", "191257.562000", "191257.565000", "191257.568000", "191257.571000", "191257.574000", "191257.577000", "191257.580000", "191257.583000", "191257.590000", "191257.593000", "191337.513000", "191337.516000", "191337.519000", "191337.522000", "191337.525000", "191337.528000", "191337.530000", "191337.541000", "191337.544000", "191337.557000", "191337.560000", "191337.563000", "191337.566000", "191337.569000", "191337.571000", "191337.574000", "191337.584000", "191337.587000", "191337.590000", "191337.593000", "191337.596000", "191337.599000", "191337.602000", "191337.605000", "191337.608000", "191337.611000", "191337.614000", "191417.514000", "191417.517000", "191417.552000", "191417.555000", "191417.558000", "191417.561000", "191417.564000", "191417.567000", "191417.570000", "191417.573000", "191417.576000", "191417.579000", "191417.581000", "191417.584000", "191417.587000", "191417.590000", "191417.593000", "191417.596000", "191417.599000", "191417.602000", "191417.605000", "191417.608000", "191417.619000", "191417.622000", "191417.625000", "191417.628000", "191417.631000", "191457.513000", "191457.516000", "191457.519000", "191457.522000", "191457.525000", "191457.528000", "191457.530000", "191457.534000", "191457.536000", "191457.539000", "191457.542000", "191457.545000", "191457.548000", "191457.551000", "191457.554000", "191457.557000", "191457.560000", "191457.562000", "191457.565000", "191457.568000", "191457.571000", "191457.579000", "191457.582000", "191457.585000", "191457.588000", "191457.590000", "191537.513000", "191537.516000", "191537.519000", "191537.522000", "191537.525000", "191537.528000", "191537.530000", "191537.534000", "191537.537000", "191537.539000", "191537.542000", "191537.545000", "191537.553000", "191537.556000", "191537.559000", "191537.562000", "191537.564000", "191537.567000", "191537.570000", "191537.573000", "191537.576000", "191537.579000", "191537.582000", "191537.585000", "191537.588000", "191537.591000", "191537.593000", "191617.514000", "191617.517000", "191617.520000", "191617.530000", "191617.532000", "191617.535000", "191617.543000", "191617.546000", "191617.549000", "191617.552000", "191617.560000", "191617.563000", "191617.566000", "191617.569000", "191617.572000", "191617.575000", "191617.578000", "191617.580000", "191617.583000", "191617.586000", "191617.589000", "191617.592000", "191617.595000", "191617.598000", "191617.601000", "191617.604000", "191617.607000", "191657.514000", "191657.517000", "191657.520000", "191657.523000", "191657.526000", "191657.529000", "191657.532000", "191657.535000", "191657.538000", "191657.540000", "191657.543000", "191657.546000", "191657.549000", "191657.552000", "191657.555000", "191657.558000", "191657.561000", "191657.564000", "191657.567000", "191657.570000", "191657.573000", "191657.576000", "191657.578000", "191657.582000", "191657.584000", "191657.587000", "191657.590000", "191737.513000", "191737.516000", "191737.519000", "191737.522000", "191737.525000", "191737.528000", "191737.531000", "191737.533000", "191737.536000", "191737.539000", "191737.542000", "191737.545000", "191737.548000", "191737.551000", "191737.554000", "191737.556000", "191737.559000", "191737.562000", "191737.565000", "191737.568000", "191737.571000", "191737.574000", "191737.577000", "191737.580000", "191737.582000", "191737.585000", "191737.588000", "191749.107000", "191749.110000", "191749.113000", "191749.116000", "191749.119000", "191749.122000", "191749.124000", "191749.127000"],
