{
  "AcquisitionMatrixPE": 104,
  "AcquisitionNumber": 1,
  "AcquisitionTime": "19:19:11.315000",
  "BandwidthPerPixelPhaseEncode": 17.17,
  "BaseResolution": 104,
  "BodyPartExamined": "BRAIN",
  "CoilCombinationMethod": "Sum of Squares",
  "ConsistencyInfo": "N4_VE11C_LATEST_20160120",
  "ConversionSoftware": "dcm2niix",
  "ConversionSoftwareVersion": "v1.0.20211006",
  "DerivedVendorReportedEchoSpacing": 0.000560011,
  "DeviceSerialNumber": "167006",
  "DwellTime": 2.1e-06,
  "EchoTime": 0.037,
  "EchoTrainLength": 104,
  "EffectiveEchoSpacing": 0.000560011,
  "FlipAngle": 52,
  "HeudiconvVersion": "0.11.3.post9+gc939bf8",
  "ImageComments": "Unaliased MB4/PE3/LB",
  "ImageOrientationPatientDICOM": [0.999873, -0.0138678, -0.00783604, 0.0102964, 0.938062, -0.346315],
  "ImageOrientationText": "Tra>Cor(-20.3)>Sag(-0.7)",
  "ImageType": [
    "ORIGINAL",
    "PRIMARY",
    "M",
    "MB",
    "ND",
    "MOSAIC"
],
  "ImagingFrequency": 123.259,
  "InPlanePhaseEncodingDirectionDICOM": "COL",
  "InstitutionAddress": "Chemin Queen-Mary 4565,Montreal,District,CA,H3W 1W5",
  "InstitutionName": "IUGM",
  "InstitutionalDepartmentName": "Department",
  "MRAcquisitionType": "2D",
  "MagneticFieldStrength": 3,
  "Manufacturer": "Siemens",
  "ManufacturersModelName": "Prisma_fit",
  "MatrixCoilMode": "SENSE",
  "Modality": "MR",
  "MultibandAccelerationFactor": 4,
  "PartialFourier": 1,
  "PatientPosition": "HFS",
  "PercentPhaseFOV": 100,
  "PercentSampling": 100,
  "PhaseEncodingDirection": "j",
  "PhaseEncodingSteps": 104,
  "PhaseResolution": 1,
  "PixelBandwidth": 2290,
  "ProcedureStepDescription": "video^friends",
  "ProtocolName": "func_task-friends-s06e24c",
  "PulseSequenceDetails": "%CustomerSeq%\\cmrr_mbep2d_bold",
  "ReceiveCoilActiveElements": "HC1-7;NC1,2",
  "ReceiveCoilName": "HeadNeck_64",
  "ReconMatrixPE": 104,
  "RepetitionTime": 1.49,
  "SAR": 0.0592388,
  "ScanOptions": "FS",
  "ScanningSequence": "EP",
  "SequenceName": "epfid2d1_104",
  "SequenceVariant": "SK\\SS",
  "SeriesDescription": "func_task-friends-s06e24c",
  "SeriesNumber": 14,
  "ShimSetting": [612, -7270, -8826, 415, -14, -366, 1, 42],
  "SliceThickness": 2,
  "SliceTiming": [0, 0.7825, 0.0975, 0.88, 0.195, 0.98, 0.2925, 1.0775, 0.39, 1.175, 0.49, 1.2725, 0.5875, 1.37, 0.685, 0, 0.7825, 0.0975, 0.88, 0.195, 0.98, 0.2925, 1.0775, 0.39, 1.175, 0.49, 1.2725, 0.5875, 1.37, 0.685, 0, 0.7825, 0.0975, 0.88, 0.195, 0.98, 0.2925, 1.0775, 0.39, 1.175, 0.49, 1.2725, 0.5875, 1.37, 0.685, 0, 0.7825, 0.0975, 0.88, 0.195, 0.98, 0.2925, 1.0775, 0.39, 1.175, 0.49, 1.2725, 0.5875, 1.37, 0.685],
  "SoftwareVersions": "syngo MR E11",
  "SpacingBetweenSlices": 2,
  "StationName": "MRC35049",
  "TaskName": "s06e24c",
  "TotalReadoutTime": 0.0576811,
  "TxRefAmp": 258.515,
  "WipMemBlock": "930d9314-7be4-4a74-a383-0c6feccd07b8||Sequence: R017 ve11c/master r/75a17815+; Jun 28 2022 16:32:11 by eja",
  "dcmmeta_affine": [
    [-1.999746322631836, 0.02059287764132023, -0.02430664375424385, 98.84223937988281],
    [0.027735630050301552, 1.8761237859725952, -0.6923800706863403, -71.69935607910156],
    [-0.01567208766937256, 0.692629337310791, 1.876171350479126, -59.856201171875],
    [0.0, 0.0, 0.0, 1.0]
],
  "dcmmeta_reorient_transform": [
    [0.0, -1.0, 0.0, 103.0],
    [1.0, 0.0, 0.0, 0.0],
    [0.0, 0.0, 1.0, 0.0],
    [0.0, 0.0, 0.0, 1.0]
],
  "dcmmeta_shape": [104, 104, 60, 461],
  "dcmmeta_slice_dim": 2,
  "dcmmeta_version": 0.6,
  "global": {
    "const": {
      "AcquisitionMatrix": [104, 0, 0, 104],
      "AngioFlag": "N",
      "BitsAllocated": 16,
      "BitsStored": 16,
      "BodyPartExamined": "BRAIN",
      "Columns": 832,
      "EchoNumbers": 1,
      "EchoTime": 37.0,
      "EchoTrainLength": 104,
      "FlipAngle": 52.0,
      "HighBit": 15,
      "ImageOrientationPatient": [0.99987313201637, -0.0138678149592, -0.0078360436467, 0.01029643842356, 0.93806190586482, -0.3463146605633],
      "ImagePositionPatient": [-836.36675038785, -794.35469649356, 269.3063304675],
      "ImageType": [
        "ORIGINAL",
        "PRIMARY",
        "M",
        "MB",
        "ND",
        "MOSAIC"
],
      "ImagedNucleus": "1H",
      "ImagingFrequency": 123.25878,
      "InPlanePhaseEncodingDirection": "COL",
      "MRAcquisitionType": "2D",
      "MagneticFieldStrength": 3.0,
      "Manufacturer": "SIEMENS",
      "ManufacturerModelName": "Prisma_fit",
      "Modality": "MR",
      "NumberOfAverages": 1.0,
      "NumberOfPhaseEncodingSteps": 104,
      "PercentPhaseFieldOfView": 100.0,
      "PercentSampling": 100.0,
      "PerformedProcedureStepStartTime": "184908.076000",
      "PhotometricInterpretation": "MONOCHROME2",
      "PixelBandwidth": 2290.0,
      "PixelRepresentation": 0,
      "PixelSpacing": [2.0, 2.0],
      "ProtocolName": "func_task-friends-s06e24c",
      "RepetitionTime": 1490.0,
      "Rows": 832,
      "SAR": 0.05923879245392,
      "SamplesPerPixel": 1,
      "ScanOptions": "FS",
      "ScanningSequence": "EP",
      "SequenceName": "epfid2d1_104",
      "SequenceVariant": [
        "SK",
        "SS"
],
      "SeriesDescription": "func_task-friends-s06e24c",
      "SeriesNumber": 14,
      "SeriesTime": "192010.125000",
      "SliceLocation": -32.529905604748,
      "SliceThickness": 2.0,
      "SmallestImagePixelValue": 0,
      "SoftwareVersions": "syngo MR E11",
      "SpacingBetweenSlices": 1.9999999702277,
      "SpecificCharacterSet": "ISO_IR 100",
      "StudyID": "1",
      "StudyTime": "184907.985000",
      "TransmitCoilName": "Body",
      "VariableFlipAngleFlag": "N",
      "WindowCenterWidthExplanation": "Algo1",
      "dBdt": 0.0},
    "slices": {}
  },
  "time": {
    "samples": {
      "AcquisitionNumber": [1, 2, 3, 4, 5, 6, 7, 8, 9, 10, 11, 12, 13, 14, 15, 16, 17, 18, 19, 20, 21, 22, 23, 24, 25, 26, 27, 28, 29, 30, 31, 32, 33, 34, 35, 36, 37, 38, 39, 40, 41, 42, 43, 44, 45, 46, 47, 48, 49, 50, 51, 52, 53, 54, 55, 56, 57, 58, 59, 60, 61, 62, 63, 64, 65, 66, 67, 68, 69, 70, 71, 72, 73, 74, 75, 76, 77, 78, 79, 80, 81, 82, 83, 84, 85, 86, 87, 88, 89, 90, 91, 92, 93, 94, 95, 96, 97, 98, 99, 100, 101, 102, 103, 104, 105, 106, 107, 108, 109, 110, 111, 112, 113, 114, 115, 116, 117, 118, 119, 120, 121, 122, 123, 124, 125, 126, 127, 128, 129, 130, 131, 132, 133, 134, 135, 136, 137, 138, 139, 140, 141, 142, 143, 144, 145, 146, 147, 148, 149, 150, 151, 152, 153, 154, 155, 156, 157, 158, 159, 160, 161, 162, 163, 164, 165, 166, 167, 168, 169, 170, 171, 172, 173, 174, 175, 176, 177, 178, 179, 180, 181, 182, 183, 184, 185, 186, 187, 188, 189, 190, 191, 192, 193, 194, 195, 196, 197, 198, 199, 200, 201, 202, 203, 204, 205, 206, 207, 208, 209, 210, 211, 212, 213, 214, 215, 216, 217, 218, 219, 220, 221, 222, 223, 224, 225, 226, 227, 228, 229, 230, 231, 232, 233, 234, 235, 236, 237, 238, 239, 240, 241, 242, 243, 244, 245, 246, 247, 248, 249, 250, 251, 252, 253, 254, 255, 256, 257, 258, 259, 260, 261, 262, 263, 264, 265, 266, 267, 268, 269, 270, 271, 272, 273, 274, 275, 276, 277, 278, 279, 280, 281, 282, 283, 284, 285, 286, 287, 288, 289, 290, 291, 292, 293, 294, 295, 296, 297, 298, 299, 300, 301, 302, 303, 304, 305, 306, 307, 308, 309, 310, 311, 312, 313, 314, 315, 316, 317, 318, 319, 320, 321, 322, 323, 324, 325, 326, 327, 328, 329, 330, 331, 332, 333, 334, 335, 336, 337, 338, 339, 340, 341, 342, 343, 344, 345, 346, 347, 348, 349, 350, 351, 352, 353, 354, 355, 356, 357, 358, 359, 360, 361, 362, 363, 364, 365, 366, 367, 368, 369, 370, 371, 372, 373, 374, 375, 376, 377, 378, 379, 380, 381, 382, 383, 384, 385, 386, 387, 388, 389, 390, 391, 392, 393, 394, 395, 396, 397, 398, 399, 400, 401, 402, 403, 404, 405, 406, 407, 408, 409, 410, 411, 412, 413, 414, 415, 416, 417, 418, 419, 420, 421, 422, 423, 424, 425, 426, 427, 428, 429, 430, 431, 432, 433, 434, 435, 436, 437, 438, 439, 440, 441, 442, 443, 444, 445, 446, 447, 448, 449, 450, 451, 452, 453, 454, 455, 456, 457, 458, 459, 460, 461],
      "AcquisitionTime": ["191911.315000", "191912.805000", "191914.295000", "191915.785000", "191917.275000", "191918.765000", "191920.255000", "191921.745000", "191923.235000", "191924.725000", "191926.215000", "191927.705000", "191929.195000", "191930.685000", "191932.175000", "191933.665000", "191935.155000", "191936.645000", "191938.135000", "191939.625000", "191941.115000", "191942.605000", "191944.095000", "191945.585000", "191947.075000", "191948.565000", "191950.055000", "191951.545000", "191953.035000", "191954.525000", "191956.015000", "191957.505000", "191958.995000", "192000.485000", "192001.975000", "192003.465000", "192004.955000", "192006.445000", "192007.935000", "192009.425000", "192010.915000", "192012.405000", "192013.895000", "192015.385000", "192016.875000", "192018.365000", "192019.855000", "192021.345000", "192022.835000", "192024.325000", "192025.815000", "192027.305000", "192028.795000", "192030.285000", "192031.775000", "192033.265000", "192034.755000", "192036.245000", "192037.735000", "192039.225000", "192040.715000", "192042.205000", "192043.695000", "192045.185000", "192046.675000", "192048.165000", "192049.655000", "192051.145000", "192052.635000", "192054.125000", "192055.615000", "192057.105000", "192058.595000", "192100.085000", "192101.575000", "192103.065000", "192104.555000", "192106.045000", "192107.535000", "192109.025000", "192110.515000", "192112.005000", "192113.495000", "192114.985000", "192116.475000", "192117.965000", "192119.455000", "192120.945000", "192122.435000", "192123.925000", "192125.415000", "192126.905000", "192128.395000", "192129.885000", "192131.375000", "192132.865000", "192134.355000", "192135.845000", "192137.335000", "192138.825000", "192140.315000", "192141.805000", "192143.295000", "192144.785000", "192146.275000", "192147.765000", "192149.255000", "192150.745000", "192152.235000", "192153.725000", "192155.215000", "192156.705000", "192158.195000", "192159.685000", "192201.175000", "192202.665000", "192204.155000", "192205.645000", "192207.135000", "192208.625000", "192210.115000", "192211.605000", "192213.095000", "192214.585000", "192216.075000", "192217.565000", "192219.055000", "192220.545000", "192222.035000", "192223.525000", "192225.015000", "192226.505000", "192227.995000", "192229.485000", "192230.975000", "192232.465000", "192233.955000", "192235.445000", "192236.935000", "192238.425000", "192239.915000", "192241.405000", "192242.895000", "192244.385000", "192245.875000", "192247.365000", "192248.855000", "192250.345000", "192251.835000", "192253.325000", "192254.815000", "192256.305000", "192257.795000", "192259.285000", "192300.775000", "192302.265000", "192303.755000", "192305.245000", "192306.735000", "192308.225000", "192309.715000", "192311.205000", "192312.695000", "192314.185000", "192315.675000", "192317.165000", "192318.655000", "192320.145000", "192321.635000", "192323.125000", "192324.615000", "192326.105000", "192327.595000", "192329.085000", "192330.575000", "192332.065000", "192333.555000", "192335.045000", "192336.535000", "192338.025000", "192339.515000", "192341.005000", "192342.495000", "192343.985000", "192345.475000", "192346.965000", "192348.455000", "192349.945000", "192351.435000", "192352.925000", "192354.415000", "192355.905000", "192357.395000", "192358.885000", "192400.375000", "192401.865000", "192403.355000", "192404.845000", "192406.335000", "192407.825000", "192409.315000", "192410.805000", "192412.295000", "192413.785000", "192415.275000", "192416.765000", "192418.255000", "192419.745000", "192421.235000", "192422.725000", "192424.215000", "192425.705000", "192427.195000", "192428.685000", "192430.175000", "192431.665000", "192433.155000", "192434.645000", "192436.135000", "192437.625000", "192439.115000", "192440.605000", "192442.095000", "192443.585000", "192445.075000", "192446.565000", "192448.055000", "192449.545000", "192451.035000", "192452.525000", "192454.015000", "192455.505000", "192456.995000", "192458.485000", "192459.975000", "192501.465000", "192502.955000", "192504.445000", "192505.935000", "192507.425000", "192508.915000", "192510.405000", "192511.895000", "192513.385000", "192514.875000", "192516.365000", "192517.855000", "192519.345000", "192520.835000", "192522.325000", "192523.815000", "192525.305000", "192526.795000", "192528.285000", "192529.775000", "192531.265000", "192532.755000", "192534.245000", "192535.735000", "192537.225000", "192538.715000", "192540.205000", "192541.695000", "192543.185000", "192544.675000", "192546.165000", "192547.655000", "192549.145000", "192550.635000", "192552.125000", "192553.615000", "192555.105000", "192556.595000", "192558.085000", "192559.575000", "192601.065000", "192602.555000", "192604.045000", "192605.535000", "192607.025000", "192608.515000", "192610.005000", "192611.495000", "192612.985000", "192614.475000", "192615.965000", "192617.455000", "192618.945000", "192620.435000", "192621.925000", "192623.415000", "192624.905000", "192626.395000", "192627.885000", "192629.375000", "192630.865000", "192632.355000", "192633.845000", "192635.335000", "192636.825000", "192638.315000", "192639.805000", "192641.295000", "192642.785000", "192644.275000", "192645.765000", "192647.255000", "192648.745000", "192650.235000", "192651.725000", "192653.215000", "192654.705000", "192656.195000", "192657.685000", "192659.175000", "192700.665000", "192702.155000", "192703.645000", "192705.135000", "192706.625000", "192708.115000", "192709.605000", "192711.095000", "192712.585000", "192714.075000", "192715.565000", "192717.055000", "192718.545000", "192720.035000", "192721.525000", "192723.015000", "192724.505000", "192725.995000", "192727.485000", "192728.975000", "192730.465000", "192731.955000", "192733.445000", "192734.935000", "192736.425000", "192737.915000", "192739.405000", "192740.895000", "192742.385000", "192743.875000", "192745.365000", "192746.855000", "192748.345000", "192749.835000", "192751.325000", "192752.815000", "192754.305000", "192755.795000", "192757.285000", "192758.775000", "192800.265000", "192801.755000", "192803.245000", "192804.735000", "192806.225000", "192807.715000", "192809.205000", "192810.695000", "192812.185000", "192813.675000", "192815.165000", "192816.655000", "192818.145000", "192819.635000", "192821.125000", "192822.615000", "192824.105000", "192825.595000", "192827.085000", "192828.575000", "192830.065000", "192831.555000", "192833.045000", "192834.535000", "192836.025000", "192837.515000", "192839.005000", "192840.495000", "192841.985000", "192843.475000", "192844.965000", "192846.455000", "192847.945000", "192849.435000", "192850.925000", "192852.415000", "192853.905000", "192855.395000", "192856.885000", "192858.375000", "192859.865000", "192901.355000", "192902.845000", "192904.335000", "192905.825000", "192907.315000", "192908.805000", "192910.295000", "192911.785000", "192913.275000", "192914.765000", "192916.255000", "192917.745000", "192919.235000", "192920.725000", "192922.215000", "192923.705000", "192925.195000", "192926.685000", "192928.175000", "192929.665000", "192931.155000", "192932.645000", "192934.135000", "192935.625000", "192937.115000", "192938.605000", "192940.095000", "192941.585000", "192943.075000", "192944.565000", "192946.055000", "192947.545000", "192949.035000", "192950.525000", "192952.015000", "192953.505000", "192954.995000", "192956.485000", "192957.975000", "192959.465000", "193000.955000", "193002.445000", "193003.935000", "193005.425000", "193006.915000", "193008.405000", "193009.895000", "193011.385000", "193012.875000", "193014.365000", "193015.855000", "193017.345000", "193018.835000", "193020.325000", "193021.815000", "193023.305000", "193024.795000", "193026.285000", "193027.775000", "193029.265000", "193030.755000", "193032.245000", "193033.735000", "193035.225000", "193036.715000"],
      "ContentTime": ["192010.128000", "192010.131000", "192010.134000", "192010.137000", "192010.147000", "192010.150000", "192010.152000", "192010.155000", "192010.158000", "192030.080000", "192030.083000", "192030.086000", "192030.089000", "192030.091000", "192030.094000", "192030.097000", "192030.104000", "192030.107000", "192030.116000", "192030.119000", "192030.122000", "192030.124000", "192030.127000", "192030.130000", "192030.133000", "192030.136000", "192030.139000", "192030.141000", "192030.144000", "192050.080000", "192050.083000", "192050.086000", "192050.089000", "192050.091000", "192050.094000", "192050.097000", "192050.107000", "192050.110000", "192050.113000", "192050.116000", "192050.119000", "192050.121000", "192050.124000", "192050.127000", "192050.130000", "192050.133000", "192050.141000", "192050.144000", "192050.147000", "192110.080000", "192110.083000", "192110.086000", "192110.089000", "192110.092000", "192110.100000", "192110.103000", "192110.106000", "192110.109000", "192110.111000", "192110.114000", "192110.117000", "192110.120000", "192110.123000", "192110.126000", "192110.128000", "192110.131000", "192110.134000", "192110.137000", "192110.140000", "192110.143000", "192130.080000", "192130.083000", "192130.086000", "192130.089000", "192130.091000", "192130.094000", "192130.097000", "192130.100000", "192130.103000", "192130.106000", "192130.109000", "192130.112000", "192130.114000", "192130.117000", "192130.120000", "192130.123000", "192130.126000", "192130.129000", "192130.131000", "192130.134000", "192210.081000", "192210.084000", "192210.087000", "192210.090000", "192210.092000", "192210.095000", "192210.098000", "192210.101000", "192210.104000", "192210.107000", "192210.110000", "192210.113000", "192210.115000", "192210.118000", "192210.121000", "192210.124000", "192210.127000", "192210.130000", "192210.133000", "192210.135000", "192210.138000", "192210.141000", "192210.144000", "192210.147000", "192210.150000", "192210.153000", "192210.155000", "192210.158000", "192210.161000", "192250.080000", "192250.083000", "192250.086000", "192250.089000", "192250.092000", "192250.094000", "192250.097000", "192250.100000", "192250.103000", "192250.106000", "192250.117000", "192250.120000", "192250.123000", "192250.126000", "192250.129000", "192250.132000", "192250.135000", "192250.138000", "192250.140000", "192250.143000", "192250.146000", "192250.149000", "192250.152000", "192250.166000", "192250.169000", "192250.172000", "192250.175000", "192330.080000", "192330.083000", "192330.086000", "192330.089000", "192330.092000", "192330.095000", "192330.097000", "192330.100000", "192330.103000", "192330.106000", "192330.109000", "192330.112000", "192330.115000", "192330.118000", "192330.121000", "192330.124000", "192330.127000", "192330.129000", "192330.132000", "192330.135000", "192330.138000", "192330.141000", "192330.144000", "192330.147000", "192330.172000", "192330.174000", "192410.081000", "192410.092000", "192410.095000", "192410.098000", "192410.101000", "192410.103000", "192410.106000", "192410.109000", "192410.112000", "192410.115000", "192410.118000", "192410.121000", "192410.123000", "192410.126000", "192410.129000", "192410.132000", "192410.135000", "192410.138000", "192410.141000", "192410.143000", "192410.146000", "192410.149000", "192410.152000", "192410.155000", "192410.158000", "192410.161000", "192410.163000", "192450.081000", "192450.084000", "192450.087000", "192450.090000", "192450.093000", "192450.096000", "192450.099000", "192450.101000", "192450.104000", "192450.107000", "192450.110000", "192450.113000", "192450.116000", "192450.119000", "192450.122000", "192450.124000", "192450.127000", "192450.130000", "192450.133000", "192450.136000", "192450.149000", "192450.151000", "192450.154000", "192450.157000", "192450.160000", "192450.163000", "192450.166000", "192530.080000", "192530.083000", "192530.086000", "192530.089000", "192530.092000", "192530.095000", "192530.104000", "192530.107000", "192530.110000", "192530.113000", "192530.116000", "192530.119000", "192530.122000", "192530.124000", "192530.127000", "192530.130000", "192530.133000", "192530.136000", "192530.139000", "192530.142000", "192530.144000", "192530.147000", "192530.150000", "192530.153000", "192530.156000", "192530.159000", "192530.162000", "192610.080000", "192610.083000", "192610.086000", "192610.089000", "192610.092000", "192610.095000", "192610.097000", "192610.100000", "192610.103000", "192610.106000", "192610.109000", "192610.115000", "192610.117000", "192610.120000", "192610.123000", "192610.126000", "192610.129000", "192610.132000", "192610.134000", "192610.137000", "192610.140000", "192610.143000", "192610.146000", "192610.149000", "192610.152000", "192610.154000", "192610.157000", "192650.081000", "192650.084000", "192650.087000", "192650.090000", "192650.093000", "192650.095000", "192650.098000", "192650.101000", "192650.104000", "192650.107000", "192650.110000", "192650.113000", "192650.116000", "192650.118000", "192650.121000", "192650.124000", "192650.127000", "192650.130000", "192650.133000", "192650.136000", "192650.139000", "192650.141000", "192650.144000", "192650.147000", "192650.150000", "192650.153000", "192650.156000", "192730.080000", "192730.083000", "192730.086000", "192730.089000", "192730.092000", "192730.095000", "192730.097000", "192730.100000", "192730.103000", "192730.106000", "192730.109000", "192730.112000", "192730.114000", "192730.117000", "192730.120000", "192730.123000", "192730.126000", "192730.129000", "192730.132000", "192730.144000", "192730.147000", "192730.149000", "192730.152000", "192730.155000", "192730.158000", "192730.161000", "192730.164000", "192810.080000", "192810.083000", "192810.086000", "192810.089000", "192810.092000", "192810.095000", "192810.098000", "192810.100000", "192810.103000", "192810.106000", "192810.109000", "192810.112000", "192810.115000", "192810.118000", "192810.120000", "192810.124000", "192810.127000", "192810.130000", "192810.133000", "192810.136000", "192810.139000", "192810.142000", "192810.145000", "192810.147000", "192810.150000", "192810.153000", "192850.081000", "192850.084000", "192850.087000", "192850.090000", "192850.093000", "192850.096000", "192850.099000", "192850.101000", "192850.104000", "192850.107000", "192850.110000", "192850.113000", "192850.116000", "192850.119000", "192850.121000", "192850.124000", "192850.127000", "192850.130000", "192850.133000", "192850.136000", "192850.139000", "192850.142000", "192850.144000", "192850.147000", "192850.150000", "192850.153000", "192850.156000", "192930.081000", "192930.084000", "192930.087000", "192930.090000", "192930.093000", "192930.096000", "192930.099000", "192930.101000", "192930.104000", "192930.107000", "192930.110000", "192930.113000", "192930.116000", "192930.119000", "192930.121000", "192930.124000", "192930.127000", "192930.130000", "192930.133000", "192930.136000", "192930.139000", "192930.142000", "192930.145000", "192930.147000", "192930.151000", "192930.154000", "192930.156000", "193010.080000", "193010.083000", "193010.086000", "193010.089000", "193010.092000", "193010.095000", "193010.098000", "193010.101000", "193010.103000", "193010.106000", "193010.109000", "193010.112000", "193010.115000", "193010.118000", "193010.120000", "193010.123000", "193010.126000", "193010.137000", "193010.140000", "193010.143000", "193010.145000", "193010.148000", "193010.151000", "193010.154000", "193010.157000", "193010.160000", "193010.163000", "193039.312000", "193039.315000", "193039.318000", "193039.321000", "193039.323000", "193039.326000", "193039.329000", "193039.332000", "193039.335000", "193039.338000", "193039.341000", "193039.344000", "193039.347000", "193039.350000", "193039.353000", "193039.356000", "193039.359000", "193039.362000", "193039.365000", "193039.368000"],
