{
  "AcquisitionMatrixPE": 104,
  "AcquisitionNumber": 1,
  "AcquisitionTime": "14:55:43.030000",
  "BandwidthPerPixelPhaseEncode": 17.17,
  "BaseResolution": 104,
  "BodyPartExamined": "BRAIN",
  "CoilString": "HC1-7;NC1_2",
  "ConsistencyInfo": "N4_VE11C_LATEST_20160120",
  "ConversionSoftware": "dcm2niix",
  "ConversionSoftwareVersion": "v1.0.20190720  (JP2:OpenJPEG) GCC7.3.0",
  "DerivedVendorReportedEchoSpacing": 0.000560011,
  "DeviceSerialNumber": "167006",
  "DwellTime": 2.1e-06,
  "EchoTime": 0.037,
  "EchoTrainLength": 104,
  "EffectiveEchoSpacing": 0.000560011,
  "FlipAngle": 52,
  "ImageComments": "Unaliased_MB4_PE3_LB",
  "ImageOrientationPatientDICOM": [0.999993, -0.00291782, 0.00220715, 0.00349062, 0.9416, -0.336715],
  "ImageType": [
    "ORIGINAL",
    "PRIMARY",
    "M",
    "MB",
    "ND",
    "MOSAIC"
],
  "ImagingFrequency": 123.259,
  "InPlanePhaseEncodingDirectionDICOM": "COL",
  "InstitutionAddress": "Chemin_Queen-Mary_4565_Montreal_District_CA_H3W_1W5",
  "InstitutionName": "IUGM",
  "InstitutionalDepartmentName": "Department",
  "MRAcquisitionType": "2D",
  "MagneticFieldStrength": 3,
  "Manufacturer": "Siemens",
  "ManufacturersModelName": "Prisma_fit",
  "Modality": "MR",
  "MultibandAccelerationFactor": 4,
  "PartialFourier": 1,
  "PatientPosition": "HFS",
  "PercentPhaseFOV": 100,
  "PhaseEncodingDirection": "j",
  "PhaseEncodingSteps": 104,
  "PhaseResolution": 1,
  "PixelBandwidth": 2290,
  "ProcedureStepDescription": "video_friends",
  "ProtocolName": "func_task-s01e21b",
  "PulseSequenceDetails": "%CustomerSeq%_cmrr_mbep2d_bold",
  "ReceiveCoilActiveElements": "HC1-7;NC1,2",
  "ReceiveCoilName": "HeadNeck_64",
  "ReconMatrixPE": 104,
  "RepetitionTime": 1.49,
  "SAR": 0.0286652,
  "ScanOptions": "FS",
  "ScanningSequence": "EP",
  "SequenceName": "epfid2d1_104",
  "SequenceVariant": "SK_SS",
  "SeriesDescription": "func_task-s01e21b",
  "SeriesNumber": 10,
  "ShimSetting": [630, -7165, -8851, 719, 38, 180, 17, 10],
  "SliceThickness": 2,
  "SliceTiming": [0, 0.785, 0.1, 0.8825, 0.1975, 0.98, 0.295, 1.08, 0.3925, 1.1775, 0.49, 1.275, 0.59, 1.3725, 0.6875, 0, 0.785, 0.1, 0.8825, 0.1975, 0.98, 0.295, 1.08, 0.3925, 1.1775, 0.49, 1.275, 0.59, 1.3725, 0.6875, 0, 0.785, 0.1, 0.8825, 0.1975, 0.98, 0.295, 1.08, 0.3925, 1.1775, 0.49, 1.275, 0.59, 1.3725, 0.6875, 0, 0.785, 0.1, 0.8825, 0.1975, 0.98, 0.295, 1.08, 0.3925, 1.1775, 0.49, 1.275, 0.59, 1.3725, 0.6875],
  "SoftwareVersions": "syngo_MR_E11",
  "SpacingBetweenSlices": 2,
  "StationName": "MRC35049",
  "TaskName": "friends",
  "TotalReadoutTime": 0.0576811,
  "TxRefAmp": 207.757,
  "WipMemBlock": "49d4fc05-56ec-49dd-8894-bd50037b8e55||Sequence: R016 ve11c/master r/e634e98; Dec 19 2017 11:00:25 by eja",
  "dcmmeta_affine": [
    [-1.9999866485595703, 0.006981239654123783, 0.002191557316109538, 104.4333267211914],
    [0.00583563232794404, 1.8832001686096191, -0.6734411716461182, -77.27698516845703],
    [0.004414297640323639, 0.6734302639961243, 1.88320791721344, -80.09784698486328],
    [0.0, 0.0, 0.0, 1.0]
],
  "dcmmeta_reorient_transform": [
    [0.0, -1.0, 0.0, 103.0],
    [1.0, 0.0, 0.0, 0.0],
    [0.0, 0.0, 1.0, 0.0],
    [0.0, 0.0, 0.0, 1.0]
],
  "dcmmeta_shape": [104, 104, 60, 477],
  "dcmmeta_slice_dim": 2,
  "dcmmeta_version": 0.6,
  "global": {
    "const": {
      "AcquisitionMatrix": [104, 0, 0, 104],
      "AngioFlag": "N",
      "BitsAllocated": 16,
      "BitsStored": 16,
      "BodyPartExamined": "BRAIN",
      "Columns": 832,
      "EchoNumbers": 1,
      "EchoTime": 37.0,
      "EchoTrainLength": 104,
      "FlipAngle": 52.0,
      "HighBit": 15,
      "ImageOrientationPatient": [0.99999330739856, -0.0029178162708, 0.00220714890872, 0.00349061988298, 0.94160008914763, -0.3367151432443],
      "ImagePositionPatient": [-835.6886917139, -800.05333029379, 232.78729008112],
      "ImageType": [
        "ORIGINAL",
        "PRIMARY",
        "M",
        "MB",
        "ND",
        "MOSAIC"
],
      "ImagedNucleus": "1H",
      "ImagingFrequency": 123.259191,
      "InPlanePhaseEncodingDirection": "COL",
      "MRAcquisitionType": "2D",
      "MagneticFieldStrength": 3.0,
      "Manufacturer": "SIEMENS",
      "ManufacturerModelName": "Prisma_fit",
      "Modality": "MR",
      "NumberOfAverages": 1.0,
      "NumberOfPhaseEncodingSteps": 104,
      "PercentPhaseFieldOfView": 100.0,
      "PercentSampling": 100.0,
      "PerformedProcedureStepStartTime": "142300.746000",
      "PhotometricInterpretation": "MONOCHROME2",
      "PixelBandwidth": 2290.0,
      "PixelRepresentation": 0,
      "PixelSpacing": [2.0, 2.0],
      "ProtocolName": "func_task-s01e21b",
      "RepetitionTime": 1490.0,
      "Rows": 832,
      "SAR": 0.02866521175164,
      "SamplesPerPixel": 1,
      "ScanOptions": "FS",
      "ScanningSequence": "EP",
      "SequenceName": "epfid2d1_104",
      "SequenceVariant": [
        "SK",
        "SS"
],
      "SeriesDescription": "func_task-s01e21b",
      "SeriesNumber": 10,
      "SeriesTime": "145658.077000",
      "SliceLocation": -49.285265741311,
      "SliceThickness": 2.0,
      "SmallestImagePixelValue": 0,
      "SoftwareVersions": "syngo MR E11",
      "SpacingBetweenSlices": 1.9999999924415,
      "SpecificCharacterSet": "ISO_IR 100",
      "StudyID": "1",
      "StudyTime": "142300.692000",
      "TransmitCoilName": "Body",
      "VariableFlipAngleFlag": "N",
      "WindowCenterWidthExplanation": "Algo1",
      "dBdt": 0.0},
    "slices": {}
  },
  "time": {
    "samples": {
      "AcquisitionNumber": [1, 2, 3, 4, 5, 6, 7, 8, 9, 10, 11, 12, 13, 14, 15, 16, 17, 18, 19, 20, 21, 22, 23, 24, 25, 26, 27, 28, 29, 30, 31, 32, 33, 34, 35, 36, 37, 38, 39, 40, 41, 42, 43, 44, 45, 46, 47, 48, 49, 50, 51, 52, 53, 54, 55, 56, 57, 58, 59, 60, 61, 62, 63, 64, 65, 66, 67, 68, 69, 70, 71, 72, 73, 74, 75, 76, 77, 78, 79, 80, 81, 82, 83, 84, 85, 86, 87, 88, 89, 90, 91, 92, 93, 94, 95, 96, 97, 98, 99, 100, 101, 102, 103, 104, 105, 106, 107, 108, 109, 110, 111, 112, 113, 114, 115, 116, 117, 118, 119, 120, 121, 122, 123, 124, 125, 126, 127, 128, 129, 130, 131, 132, 133, 134, 135, 136, 137, 138, 139, 140, 141, 142, 143, 144, 145, 146, 147, 148, 149, 150, 151, 152, 153, 154, 155, 156, 157, 158, 159, 160, 161, 162, 163, 164, 165, 166, 167, 168, 169, 170, 171, 172, 173, 174, 175, 176, 177, 178, 179, 180, 181, 182, 183, 184, 185, 186, 187, 188, 189, 190, 191, 192, 193, 194, 195, 196, 197, 198, 199, 200, 201, 202, 203, 204, 205, 206, 207, 208, 209, 210, 211, 212, 213, 214, 215, 216, 217, 218, 219, 220, 221, 222, 223, 224, 225, 226, 227, 228, 229, 230, 231, 232, 233, 234, 235, 236, 237, 238, 239, 240, 241, 242, 243, 244, 245, 246, 247, 248, 249, 250, 251, 252, 253, 254, 255, 256, 257, 258, 259, 260, 261, 262, 263, 264, 265, 266, 267, 268, 269, 270, 271, 272, 273, 274, 275, 276, 277, 278, 279, 280, 281, 282, 283, 284, 285, 286, 287, 288, 289, 290, 291, 292, 293, 294, 295, 296, 297, 298, 299, 300, 301, 302, 303, 304, 305, 306, 307, 308, 309, 310, 311, 312, 313, 314, 315, 316, 317, 318, 319, 320, 321, 322, 323, 324, 325, 326, 327, 328, 329, 330, 331, 332, 333, 334, 335, 336, 337, 338, 339, 340, 341, 342, 343, 344, 345, 346, 347, 348, 349, 350, 351, 352, 353, 354, 355, 356, 357, 358, 359, 360, 361, 362, 363, 364, 365, 366, 367, 368, 369, 370, 371, 372, 373, 374, 375, 376, 377, 378, 379, 380, 381, 382, 383, 384, 385, 386, 387, 388, 389, 390, 391, 392, 393, 394, 395, 396, 397, 398, 399, 400, 401, 402, 403, 404, 405, 406, 407, 408, 409, 410, 411, 412, 413, 414, 415, 416, 417, 418, 419, 420, 421, 422, 423, 424, 425, 426, 427, 428, 429, 430, 431, 432, 433, 434, 435, 436, 437, 438, 439, 440, 441, 442, 443, 444, 445, 446, 447, 448, 449, 450, 451, 452, 453, 454, 455, 456, 457, 458, 459, 460, 461, 462, 463, 464, 465, 466, 467, 468, 469, 470, 471, 472, 473, 474, 475, 476, 477],
      "AcquisitionTime": ["145543.030000", "145544.520000", "145546.010000", "145547.500000", "145548.990000", "145550.480000", "145551.970000", "145553.460000", "145554.950000", "145556.440000", "145557.930000", "145559.420000", "145600.910000", "145602.400000", "145603.890000", "145605.380000", "145606.870000", "145608.360000", "145609.850000", "145611.340000", "145612.830000", "145614.320000", "145615.810000", "145617.300000", "145618.790000", "145620.280000", "145621.770000", "145623.260000", "145624.750000", "145626.240000", "145627.730000", "145629.220000", "145630.710000", "145632.200000", "145633.690000", "145635.180000", "145636.670000", "145638.160000", "145639.650000", "145641.140000", "145642.630000", "145644.120000", "145645.610000", "145647.100000", "145648.590000", "145650.080000", "145651.570000", "145653.060000", "145654.550000", "145656.040000", "145657.530000", "145659.020000", "145700.510000", "145702.000000", "145703.490000", "145704.980000", "145706.470000", "145707.960000", "145709.450000", "145710.940000", "145712.430000", "145713.920000", "145715.410000", "145716.900000", "145718.390000", "145719.880000", "145721.370000", "145722.860000", "145724.350000", "145725.840000", "145727.330000", "145728.820000", "145730.310000", "145731.800000", "145733.290000", "145734.780000", "145736.270000", "145737.760000", "145739.250000", "145740.740000", "145742.230000", "145743.720000", "145745.210000", "145746.700000", "145748.190000", "145749.680000", "145751.170000", "145752.660000", "145754.150000", "145755.640000", "145757.130000", "145758.620000", "145800.110000", "145801.600000", "145803.090000", "145804.580000", "145806.070000", "145807.560000", "145809.050000", "145810.540000", "145812.030000", "145813.520000", "145815.010000", "145816.500000", "145817.990000", "145819.480000", "145820.970000", "145822.460000", "145823.950000", "145825.440000", "145826.930000", "145828.420000", "145829.910000", "145831.400000", "145832.890000", "145834.380000", "145835.870000", "145837.360000", "145838.850000", "145840.340000", "145841.830000", "145843.320000", "145844.810000", "145846.300000", "145847.790000", "145849.280000", "145850.770000", "145852.260000", "145853.750000", "145855.240000", "145856.730000", "145858.220000", "145859.710000", "145901.200000", "145902.690000", "145904.180000", "145905.670000", "145907.160000", "145908.650000", "145910.140000", "145911.630000", "145913.120000", "145914.610000", "145916.100000", "145917.590000", "145919.080000", "145920.570000", "145922.060000", "145923.550000", "145925.040000", "145926.530000", "145928.020000", "145929.510000", "145931.000000", "145932.490000", "145933.980000", "145935.470000", "145936.960000", "145938.450000", "145939.940000", "145941.430000", "145942.920000", "145944.410000", "145945.900000", "145947.390000", "145948.880000", "145950.370000", "145951.860000", "145953.350000", "145954.840000", "145956.330000", "145957.820000", "145959.310000", "150000.800000", "150002.290000", "150003.780000", "150005.270000", "150006.760000", "150008.250000", "150009.740000", "150011.230000", "150012.720000", "150014.210000", "150015.700000", "150017.190000", "150018.680000", "150020.170000", "150021.660000", "150023.150000", "150024.640000", "150026.130000", "150027.620000", "150029.110000", "150030.600000", "150032.090000", "150033.580000", "150035.070000", "150036.560000", "150038.050000", "150039.540000", "150041.030000", "150042.520000", "150044.010000", "150045.500000", "150046.990000", "150048.480000", "150049.970000", "150051.460000", "150052.950000", "150054.440000", "150055.930000", "150057.420000", "150058.910000", "150100.400000", "150101.890000", "150103.380000", "150104.870000", "150106.360000", "150107.850000", "150109.340000", "150110.830000", "150112.320000", "150113.810000", "150115.300000", "150116.790000", "150118.280000", "150119.770000", "150121.260000", "150122.750000", "150124.240000", "150125.730000", "150127.220000", "150128.710000", "150130.200000", "150131.690000", "150133.180000", "150134.670000", "150136.160000", "150137.650000", "150139.140000", "150140.630000", "150142.120000", "150143.610000", "150145.100000", "150146.590000", "150148.080000", "150149.570000", "150151.060000", "150152.550000", "150154.040000", "150155.530000", "150157.020000", "150158.510000", "150200.000000", "150201.490000", "150202.980000", "150204.470000", "150205.960000", "150207.450000", "150208.940000", "150210.430000", "150211.920000", "150213.410000", "150214.900000", "150216.390000", "150217.880000", "150219.370000", "150220.860000", "150222.350000", "150223.840000", "150225.330000", "150226.820000", "150228.310000", "150229.800000", "150231.290000", "150232.780000", "150234.270000", "150235.760000", "150237.250000", "150238.740000", "150240.230000", "150241.720000", "150243.210000", "150244.700000", "150246.190000", "150247.680000", "150249.170000", "150250.660000", "150252.150000", "150253.640000", "150255.130000", "150256.620000", "150258.110000", "150259.600000", "150301.090000", "150302.580000", "150304.070000", "150305.560000", "150307.050000", "150308.540000", "150310.030000", "150311.520000", "150313.010000", "150314.500000", "150315.990000", "150317.480000", "150318.970000", "150320.460000", "150321.950000", "150323.440000", "150324.930000", "150326.420000", "150327.910000", "150329.400000", "150330.890000", "150332.380000", "150333.870000", "150335.360000", "150336.850000", "150338.340000", "150339.830000", "150341.320000", "150342.810000", "150344.300000", "150345.790000", "150347.280000", "150348.770000", "150350.260000", "150351.750000", "150353.240000", "150354.730000", "150356.220000", "150357.710000", "150359.200000", "150400.690000", "150402.180000", "150403.670000", "150405.160000", "150406.650000", "150408.140000", "150409.630000", "150411.120000", "150412.610000", "150414.100000", "150415.590000", "150417.080000", "150418.570000", "150420.060000", "150421.550000", "150423.040000", "150424.530000", "150426.020000", "150427.510000", "150429.000000", "150430.490000", "150431.980000", "150433.470000", "150434.960000", "150436.450000", "150437.940000", "150439.430000", "150440.920000", "150442.410000", "150443.900000", "150445.390000", "150446.880000", "150448.370000", "150449.860000", "150451.350000", "150452.840000", "150454.330000", "150455.820000", "150457.310000", "150458.800000", "150500.290000", "150501.780000", "150503.270000", "150504.760000", "150506.250000", "150507.740000", "150509.230000", "150510.720000", "150512.210000", "150513.700000", "150515.190000", "150516.680000", "150518.170000", "150519.660000", "150521.150000", "150522.640000", "150524.130000", "150525.620000", "150527.110000", "150528.600000", "150530.090000", "150531.580000", "150533.070000", "150534.560000", "150536.050000", "150537.540000", "150539.030000", "150540.520000", "150542.010000", "150543.500000", "150544.990000", "150546.480000", "150547.970000", "150549.460000", "150550.950000", "150552.440000", "150553.930000", "150555.420000", "150556.910000", "150558.400000", "150559.890000", "150601.380000", "150602.870000", "150604.360000", "150605.850000", "150607.340000", "150608.830000", "150610.320000", "150611.810000", "150613.300000", "150614.790000", "150616.280000", "150617.770000", "150619.260000", "150620.750000", "150622.240000", "150623.730000", "150625.220000", "150626.710000", "150628.200000", "150629.690000", "150631.180000", "150632.670000", "150634.160000", "150635.650000", "150637.140000", "150638.630000", "150640.120000", "150641.610000", "150643.100000", "150644.590000", "150646.080000", "150647.570000", "150649.060000", "150650.550000", "150652.040000", "150653.530000", "150655.020000", "150656.510000", "150658.000000", "150659.490000", "150700.980000", "150702.470000", "150703.960000", "150705.450000", "150706.940000", "150708.430000", "150709.920000", "150711.410000", "150712.900000", "150714.390000", "150715.880000", "150717.370000", "150718.860000", "150720.350000", "150721.840000", "150723.330000", "150724.820000", "150726.310000", "150727.800000", "150729.290000", "150730.780000", "150732.270000"],
      "ContentTime": ["145658.079000", "145658.083000", "145658.086000", "145658.089000", "145658.091000", "145658.094000", "145658.097000", "145658.100000", "145658.103000", "145658.106000", "145658.109000", "145658.111000", "145658.127000", "145658.130000", "145658.135000", "145658.138000", "145658.141000", "145658.143000", "145658.146000", "145658.154000", "145658.157000", "145718.044000", "145718.047000", "145718.050000", "145718.053000", "145718.055000", "145718.058000", "145718.061000", "145718.064000", "145718.067000", "145718.070000", "145718.073000", "145718.076000", "145718.078000", "145718.081000", "145718.084000", "145718.087000", "145718.093000", "145718.096000", "145718.099000", "145718.102000", "145738.044000", "145738.047000", "145738.050000", "145738.053000", "145738.056000", "145738.058000", "145738.061000", "145738.064000", "145738.067000", "145738.070000", "145738.081000", "145738.084000", "145738.087000", "145738.090000", "145738.093000", "145738.096000", "145738.098000", "145738.101000", "145738.104000", "145738.107000", "145758.044000", "145758.047000", "145758.050000", "145758.060000", "145758.063000", "145758.066000", "145758.069000", "145758.072000", "145758.075000", "145758.077000", "145758.080000", "145758.083000", "145758.086000", "145758.089000", "145758.092000", "145758.095000", "145758.097000", "145758.100000", "145758.103000", "145758.106000", "145818.044000", "145818.047000", "145818.050000", "145818.053000", "145818.055000", "145818.058000", "145818.061000", "145818.064000", "145818.067000", "145818.069000", "145818.072000", "145818.075000", "145818.085000", "145818.088000", "145818.091000", "145818.094000", "145818.096000", "145818.099000", "145818.102000", "145818.105000", "145858.044000", "145858.047000", "145858.050000", "145858.053000", "145858.055000", "145858.058000", "145858.061000", "145858.064000", "145858.067000", "145858.070000", "145858.073000", "145858.088000", "145858.091000", "145858.094000", "145858.097000", "145858.100000", "145858.103000", "145858.105000", "145858.108000", "145858.111000", "145858.114000", "145858.117000", "145858.120000", "145858.123000", "145858.126000", "145858.128000", "145858.131000", "145858.134000", "145858.137000", "145938.044000", "145938.047000", "145938.050000", "145938.052000", "145938.055000", "145938.058000", "145938.061000", "145938.064000", "145938.067000", "145938.070000", "145938.073000", "145938.075000", "145938.078000", "145938.081000", "145938.084000", "145938.087000", "145938.090000", "145938.093000", "145938.096000", "145938.099000", "145938.102000", "145938.104000", "145938.107000", "145938.110000", "145938.113000", "145938.116000", "145938.119000", "150018.044000", "150018.047000", "150018.050000", "150018.069000", "150018.072000", "150018.075000", "150018.083000", "150018.086000", "150018.089000", "150018.092000", "150018.095000", "150018.098000", "150018.101000", "150018.104000", "150018.107000", "150018.110000", "150018.113000", "150018.115000", "150018.118000", "150018.121000", "150018.124000", "150018.127000", "150018.130000", "150018.133000", "150018.136000", "150018.138000", "150018.141000", "150058.044000", "150058.047000", "150058.050000", "150058.052000", "150058.056000", "150058.058000", "150058.061000", "150058.064000", "150058.067000", "150058.070000", "150058.073000", "150058.076000", "150058.079000", "150058.082000", "150058.084000", "150058.087000", "150058.092000", "150058.095000", "150058.098000", "150058.101000", "150058.104000", "150058.106000", "150058.109000", "150058.112000", "150058.115000", "150058.118000", "150138.044000", "150138.047000", "150138.050000", "150138.053000", "150138.056000", "150138.059000", "150138.061000", "150138.064000", "150138.067000", "150138.070000", "150138.073000", "150138.076000", "150138.079000", "150138.082000", "150138.085000", "150138.087000", "150138.091000", "150138.093000", "150138.096000", "150138.099000", "150138.102000", "150138.105000", "150138.108000", "150138.111000", "150138.114000", "150138.116000", "150138.119000", "150218.044000", "150218.047000", "150218.050000", "150218.053000", "150218.056000", "150218.059000", "150218.061000", "150218.064000", "150218.067000", "150218.070000", "150218.073000", "150218.076000", "150218.079000", "150218.082000", "150218.084000", "150218.087000", "150218.090000", "150218.093000", "150218.096000", "150218.099000", "150218.102000", "150218.105000", "150218.108000", "150218.111000", "150218.114000", "150218.117000", "150218.120000", "150258.044000", "150258.047000", "150258.050000", "150258.053000", "150258.056000", "150258.058000", "150258.062000", "150258.064000", "150258.067000", "150258.070000", "150258.073000", "150258.076000", "150258.079000", "150258.082000", "150258.085000", "150258.087000", "150258.090000", "150258.093000", "150258.096000", "150258.099000", "150258.102000", "150258.105000", "150258.108000", "150258.110000", "150258.113000", "150258.116000", "150258.119000", "150338.044000", "150338.048000", "150338.051000", "150338.054000", "150338.057000", "150338.060000", "150338.064000", "150338.067000", "150338.070000", "150338.073000", "150338.076000", "150338.079000", "150338.082000", "150338.085000", "150338.089000", "150338.092000", "150338.095000", "150338.098000", "150338.101000", "150338.104000", "150338.107000", "150338.110000", "150338.113000", "150338.115000", "150338.118000", "150338.121000", "150338.124000", "150418.044000", "150418.047000", "150418.050000", "150418.053000", "150418.056000", "150418.058000", "150418.061000", "150418.064000", "150418.067000", "150418.070000", "150418.073000", "150418.076000", "150418.079000", "150418.082000", "150418.084000", "150418.087000", "150418.090000", "150418.093000", "150418.096000", "150418.099000", "150418.102000", "150418.105000", "150418.108000", "150418.111000", "150418.114000", "150418.116000", "150418.119000", "150458.044000", "150458.047000", "150458.050000", "150458.067000", "150458.070000", "150458.073000", "150458.075000", "150458.078000", "150458.081000", "150458.084000", "150458.087000", "150458.090000", "150458.093000", "150458.096000", "150458.100000", "150458.103000", "150458.105000", "150458.109000", "150458.112000", "150458.129000", "150458.132000", "150458.135000", "150458.138000", "150458.141000", "150458.144000", "150458.146000", "150538.044000", "150538.047000", "150538.050000", "150538.053000", "150538.056000", "150538.059000", "150538.062000", "150538.065000", "150538.067000", "150538.070000", "150538.073000", "150538.076000", "150538.079000", "150538.082000", "150538.085000", "150538.088000", "150538.090000", "150538.093000", "150538.096000", "150538.099000", "150538.102000", "150538.105000", "150538.108000", "150538.111000", "150538.114000", "150538.117000", "150538.119000", "150618.044000", "150618.047000", "150618.050000", "150618.053000", "150618.056000", "150618.059000", "150618.062000", "150618.064000", "150618.067000", "150618.070000", "150618.073000", "150618.076000", "150618.079000", "150618.082000", "150618.085000", "150618.088000", "150618.091000", "150618.094000", "150618.096000", "150618.099000", "150618.102000", "150618.105000", "150618.108000", "150618.111000", "150618.114000", "150618.117000", "150618.120000", "150658.044000", "150658.047000", "150658.050000", "150658.057000", "150658.060000", "150658.063000", "150658.065000", "150658.068000", "150658.071000", "150658.074000", "150658.077000", "150658.080000", "150658.083000", "150658.086000", "150658.089000", "150658.092000", "150658.095000", "150658.097000", "150658.100000", "150658.104000", "150658.106000", "150658.109000", "150658.112000", "150658.115000", "150658.118000", "150658.121000", "150658.124000", "150734.637000", "150734.641000", "150734.644000", "150734.647000", "150734.650000", "150734.653000", "150734.656000", "150734.659000", "150734.662000", "150734.665000", "150734.668000", "150734.671000", "150734.673000", "150734.676000", "150734.679000", "150734.682000", "150734.685000", "150734.688000", "150734.691000", "150734.694000", "150734.696000", "150734.699000", "150734.702000", "150734.705000", "150734.708000"],
