{
  "AcquisitionMatrixPE": 104,
  "AcquisitionNumber": 1,
  "AcquisitionTime": "15:27:56.642500",
  "BandwidthPerPixelPhaseEncode": 17.17,
  "BaseResolution": 104,
  "BodyPartExamined": "BRAIN",
  "CoilString": "HC1-7;NC1_2",
  "ConsistencyInfo": "N4_VE11C_LATEST_20160120",
  "ConversionSoftware": "dcm2niix",
  "ConversionSoftwareVersion": "v1.0.20190720  (JP2:OpenJPEG) GCC7.3.0",
  "DerivedVendorReportedEchoSpacing": 0.000560011,
  "DeviceSerialNumber": "167006",
  "DwellTime": 2.1e-06,
  "EchoTime": 0.037,
  "EchoTrainLength": 104,
  "EffectiveEchoSpacing": 0.000560011,
  "FlipAngle": 52,
  "ImageComments": "Unaliased_MB4_PE3_LB",
  "ImageOrientationPatientDICOM": [0.999149, -0.0409033, -0.0052439, 0.037161, 0.948187, -0.315531],
  "ImageType": [
    "ORIGINAL",
    "PRIMARY",
    "M",
    "MB",
    "ND",
    "MOSAIC"
],
  "ImagingFrequency": 123.259,
  "InPlanePhaseEncodingDirectionDICOM": "COL",
  "InstitutionAddress": "Chemin_Queen-Mary_4565_Montreal_District_CA_H3W_1W5",
  "InstitutionName": "IUGM",
  "InstitutionalDepartmentName": "Department",
  "MRAcquisitionType": "2D",
  "MagneticFieldStrength": 3,
  "Manufacturer": "Siemens",
  "ManufacturersModelName": "Prisma_fit",
  "Modality": "MR",
  "MultibandAccelerationFactor": 4,
  "PartialFourier": 1,
  "PatientPosition": "HFS",
  "PercentPhaseFOV": 100,
  "PhaseEncodingDirection": "j",
  "PhaseEncodingSteps": 104,
  "PhaseResolution": 1,
  "PixelBandwidth": 2290,
  "ProcedureStepDescription": "video_friends",
  "ProtocolName": "func_task-s01e22b",
  "PulseSequenceDetails": "%CustomerSeq%_cmrr_mbep2d_bold",
  "ReceiveCoilActiveElements": "HC1-7;NC1,2",
  "ReceiveCoilName": "HeadNeck_64",
  "ReconMatrixPE": 104,
  "RepetitionTime": 1.49,
  "SAR": 0.0315363,
  "ScanOptions": "FS",
  "ScanningSequence": "EP",
  "SequenceName": "epfid2d1_104",
  "SequenceVariant": "SK_SS",
  "SeriesDescription": "func_task-s01e22b",
  "SeriesNumber": 20,
  "ShimSetting": [619, -7158, -8815, 688, 13, 169, 51, 3],
  "SliceThickness": 2,
  "SliceTiming": [0, 0.785, 0.1, 0.8825, 0.1975, 0.98, 0.295, 1.08, 0.3925, 1.1775, 0.49, 1.275, 0.59, 1.3725, 0.6875, 0, 0.785, 0.1, 0.8825, 0.1975, 0.98, 0.295, 1.08, 0.3925, 1.1775, 0.49, 1.275, 0.59, 1.3725, 0.6875, 0, 0.785, 0.1, 0.8825, 0.1975, 0.98, 0.295, 1.08, 0.3925, 1.1775, 0.49, 1.275, 0.59, 1.3725, 0.6875, 0, 0.785, 0.1, 0.8825, 0.1975, 0.98, 0.295, 1.08, 0.3925, 1.1775, 0.49, 1.275, 0.59, 1.3725, 0.6875],
  "SoftwareVersions": "syngo_MR_E11",
  "SpacingBetweenSlices": 2,
  "StationName": "MRC35049",
  "TaskName": "friends",
  "TotalReadoutTime": 0.0576811,
  "TxRefAmp": 210.898,
  "WipMemBlock": "15c4ba2a-b9bf-464c-b962-da3bd0b848ef||Sequence: R016 ve11c/master r/e634e98; Dec 19 2017 11:00:25 by eja",
  "dcmmeta_affine": [
    [-1.9982986450195312, 0.07432202994823456, -0.035756926983594894, 101.26494598388672],
    [0.08180665224790573, 1.8963747024536133, -0.6301352381706238, -81.05728912353516],
    [-0.010487801395356655, 0.6310617923736572, 1.8978016376495361, -64.87422943115234],
    [0.0, 0.0, 0.0, 1.0]
],
  "dcmmeta_reorient_transform": [
    [0.0, -1.0, 0.0, 103.0],
    [1.0, 0.0, 0.0, 0.0],
    [0.0, 0.0, 1.0, 0.0],
    [0.0, 0.0, 0.0, 1.0]
],
  "dcmmeta_shape": [104, 104, 60, 474],
  "dcmmeta_slice_dim": 2,
  "dcmmeta_version": 0.6,
  "global": {
    "const": {
      "AcquisitionMatrix": [104, 0, 0, 104],
      "AngioFlag": "N",
      "BitsAllocated": 16,
      "BitsStored": 16,
      "BodyPartExamined": "BRAIN",
      "Columns": 832,
      "EchoNumbers": 1,
      "EchoTime": 37.0,
      "EchoTrainLength": 104,
      "FlipAngle": 52.0,
      "HighBit": 15,
      "ImageOrientationPatient": [0.99914934796803, -0.0409033245424, -0.0052439008801, 0.03716101448963, 0.94818738090776, -0.3155309013225],
      "ImagePositionPatient": [-863.35405699015, -774.77210094823, 233.6491885026],
      "ImageType": [
        "ORIGINAL",
        "PRIMARY",
        "M",
        "MB",
        "ND",
        "MOSAIC"
],
      "ImagedNucleus": "1H",
      "ImagingFrequency": 123.259172,
      "InPlanePhaseEncodingDirection": "COL",
      "MRAcquisitionType": "2D",
      "MagneticFieldStrength": 3.0,
      "Manufacturer": "SIEMENS",
      "ManufacturerModelName": "Prisma_fit",
      "Modality": "MR",
      "NumberOfAverages": 1.0,
      "NumberOfPhaseEncodingSteps": 104,
      "PercentPhaseFieldOfView": 100.0,
      "PercentSampling": 100.0,
      "PerformedProcedureStepStartTime": "142300.746000",
      "PhotometricInterpretation": "MONOCHROME2",
      "PixelBandwidth": 2290.0,
      "PixelRepresentation": 0,
      "PixelSpacing": [2.0, 2.0],
      "ProtocolName": "func_task-s01e22b",
      "RepetitionTime": 1490.0,
      "Rows": 832,
      "SAR": 0.03153630485336,
      "SamplesPerPixel": 1,
      "ScanOptions": "FS",
      "ScanningSequence": "EP",
      "SequenceName": "epfid2d1_104",
      "SequenceVariant": [
        "SK",
        "SS"
],
      "SeriesDescription": "func_task-s01e22b",
      "SeriesNumber": 20,
      "SeriesTime": "152924.504000",
      "SliceLocation": -37.831145465359,
      "SliceThickness": 2.0,
      "SmallestImagePixelValue": 0,
      "SoftwareVersions": "syngo MR E11",
      "SpacingBetweenSlices": 1.9999999781584,
      "SpecificCharacterSet": "ISO_IR 100",
      "StudyID": "1",
      "StudyTime": "142300.692000",
      "TransmitCoilName": "Body",
      "VariableFlipAngleFlag": "N",
      "WindowCenterWidthExplanation": "Algo1",
      "dBdt": 0.0},
    "slices": {}
  },
  "time": {
    "samples": {
      "AcquisitionNumber": [1, 2, 3, 4, 5, 6, 7, 8, 9, 10, 11, 12, 13, 14, 15, 16, 17, 18, 19, 20, 21, 22, 23, 24, 25, 26, 27, 28, 29, 30, 31, 32, 33, 34, 35, 36, 37, 38, 39, 40, 41, 42, 43, 44, 45, 46, 47, 48, 49, 50, 51, 52, 53, 54, 55, 56, 57, 58, 59, 60, 61, 62, 63, 64, 65, 66, 67, 68, 69, 70, 71, 72, 73, 74, 75, 76, 77, 78, 79, 80, 81, 82, 83, 84, 85, 86, 87, 88, 89, 90, 91, 92, 93, 94, 95, 96, 97, 98, 99, 100, 101, 102, 103, 104, 105, 106, 107, 108, 109, 110, 111, 112, 113, 114, 115, 116, 117, 118, 119, 120, 121, 122, 123, 124, 125, 126, 127, 128, 129, 130, 131, 132, 133, 134, 135, 136, 137, 138, 139, 140, 141, 142, 143, 144, 145, 146, 147, 148, 149, 150, 151, 152, 153, 154, 155, 156, 157, 158, 159, 160, 161, 162, 163, 164, 165, 166, 167, 168, 169, 170, 171, 172, 173, 174, 175, 176, 177, 178, 179, 180, 181, 182, 183, 184, 185, 186, 187, 188, 189, 190, 191, 192, 193, 194, 195, 196, 197, 198, 199, 200, 201, 202, 203, 204, 205, 206, 207, 208, 209, 210, 211, 212, 213, 214, 215, 216, 217, 218, 219, 220, 221, 222, 223, 224, 225, 226, 227, 228, 229, 230, 231, 232, 233, 234, 235, 236, 237, 238, 239, 240, 241, 242, 243, 244, 245, 246, 247, 248, 249, 250, 251, 252, 253, 254, 255, 256, 257, 258, 259, 260, 261, 262, 263, 264, 265, 266, 267, 268, 269, 270, 271, 272, 273, 274, 275, 276, 277, 278, 279, 280, 281, 282, 283, 284, 285, 286, 287, 288, 289, 290, 291, 292, 293, 294, 295, 296, 297, 298, 299, 300, 301, 302, 303, 304, 305, 306, 307, 308, 309, 310, 311, 312, 313, 314, 315, 316, 317, 318, 319, 320, 321, 322, 323, 324, 325, 326, 327, 328, 329, 330, 331, 332, 333, 334, 335, 336, 337, 338, 339, 340, 341, 342, 343, 344, 345, 346, 347, 348, 349, 350, 351, 352, 353, 354, 355, 356, 357, 358, 359, 360, 361, 362, 363, 364, 365, 366, 367, 368, 369, 370, 371, 372, 373, 374, 375, 376, 377, 378, 379, 380, 381, 382, 383, 384, 385, 386, 387, 388, 389, 390, 391, 392, 393, 394, 395, 396, 397, 398, 399, 400, 401, 402, 403, 404, 405, 406, 407, 408, 409, 410, 411, 412, 413, 414, 415, 416, 417, 418, 419, 420, 421, 422, 423, 424, 425, 426, 427, 428, 429, 430, 431, 432, 433, 434, 435, 436, 437, 438, 439, 440, 441, 442, 443, 444, 445, 446, 447, 448, 449, 450, 451, 452, 453, 454, 455, 456, 457, 458, 459, 460, 461, 462, 463, 464, 465, 466, 467, 468, 469, 470, 471, 472, 473, 474],
      "AcquisitionTime": ["152756.642500", "152758.132500", "152759.622500", "152801.112500", "152802.602500", "152804.092500", "152805.582500", "152807.072500", "152808.562500", "152810.052500", "152811.542500", "152813.032500", "152814.522500", "152816.012500", "152817.502500", "152818.992500", "152820.482500", "152821.972500", "152823.462500", "152824.952500", "152826.442500", "152827.932500", "152829.422500", "152830.912500", "152832.402500", "152833.892500", "152835.382500", "152836.872500", "152838.362500", "152839.852500", "152841.342500", "152842.832500", "152844.322500", "152845.812500", "152847.302500", "152848.792500", "152850.282500", "152851.772500", "152853.262500", "152854.752500", "152856.242500", "152857.732500", "152859.222500", "152900.712500", "152902.202500", "152903.692500", "152905.182500", "152906.672500", "152908.162500", "152909.652500", "152911.142500", "152912.632500", "152914.122500", "152915.612500", "152917.102500", "152918.592500", "152920.082500", "152921.572500", "152923.062500", "152924.552500", "152926.042500", "152927.532500", "152929.022500", "152930.512500", "152932.002500", "152933.492500", "152934.982500", "152936.472500", "152937.962500", "152939.452500", "152940.942500", "152942.432500", "152943.922500", "152945.412500", "152946.902500", "152948.392500", "152949.882500", "152951.372500", "152952.862500", "152954.352500", "152955.842500", "152957.332500", "152958.822500", "153000.312500", "153001.802500", "153003.292500", "153004.782500", "153006.272500", "153007.762500", "153009.252500", "153010.742500", "153012.232500", "153013.722500", "153015.212500", "153016.702500", "153018.192500", "153019.682500", "153021.172500", "153022.662500", "153024.152500", "153025.642500", "153027.132500", "153028.622500", "153030.112500", "153031.602500", "153033.092500", "153034.582500", "153036.072500", "153037.562500", "153039.052500", "153040.542500", "153042.032500", "153043.522500", "153045.012500", "153046.502500", "153047.992500", "153049.482500", "153050.972500", "153052.462500", "153053.952500", "153055.442500", "153056.932500", "153058.422500", "153059.912500", "153101.402500", "153102.892500", "153104.382500", "153105.872500", "153107.362500", "153108.852500", "153110.342500", "153111.832500", "153113.322500", "153114.812500", "153116.302500", "153117.792500", "153119.282500", "153120.772500", "153122.262500", "153123.752500", "153125.242500", "153126.732500", "153128.222500", "153129.712500", "153131.202500", "153132.692500", "153134.182500", "153135.672500", "153137.162500", "153138.652500", "153140.142500", "153141.632500", "153143.122500", "153144.612500", "153146.102500", "153147.592500", "153149.082500", "153150.572500", "153152.062500", "153153.552500", "153155.042500", "153156.532500", "153158.022500", "153159.512500", "153201.002500", "153202.492500", "153203.982500", "153205.472500", "153206.962500", "153208.452500", "153209.942500", "153211.432500", "153212.922500", "153214.412500", "153215.902500", "153217.392500", "153218.882500", "153220.372500", "153221.862500", "153223.352500", "153224.842500", "153226.332500", "153227.822500", "153229.312500", "153230.802500", "153232.292500", "153233.782500", "153235.272500", "153236.762500", "153238.252500", "153239.742500", "153241.232500", "153242.722500", "153244.212500", "153245.702500", "153247.192500", "153248.682500", "153250.172500", "153251.662500", "153253.152500", "153254.642500", "153256.132500", "153257.622500", "153259.112500", "153300.602500", "153302.092500", "153303.582500", "153305.072500", "153306.562500", "153308.052500", "153309.542500", "153311.032500", "153312.522500", "153314.012500", "153315.502500", "153316.992500", "153318.482500", "153319.972500", "153321.462500", "153322.952500", "153324.442500", "153325.932500", "153327.422500", "153328.912500", "153330.402500", "153331.892500", "153333.382500", "153334.872500", "153336.362500", "153337.852500", "153339.342500", "153340.832500", "153342.322500", "153343.812500", "153345.302500", "153346.792500", "153348.282500", "153349.772500", "153351.262500", "153352.752500", "153354.242500", "153355.732500", "153357.222500", "153358.712500", "153400.202500", "153401.692500", "153403.182500", "153404.672500", "153406.162500", "153407.652500", "153409.142500", "153410.632500", "153412.122500", "153413.612500", "153415.102500", "153416.592500", "153418.082500", "153419.572500", "153421.062500", "153422.552500", "153424.042500", "153425.532500", "153427.022500", "153428.512500", "153430.002500", "153431.492500", "153432.982500", "153434.472500", "153435.962500", "153437.452500", "153438.942500", "153440.432500", "153441.922500", "153443.412500", "153444.902500", "153446.392500", "153447.882500", "153449.372500", "153450.862500", "153452.352500", "153453.842500", "153455.332500", "153456.822500", "153458.312500", "153459.802500", "153501.292500", "153502.782500", "153504.272500", "153505.762500", "153507.252500", "153508.742500", "153510.232500", "153511.722500", "153513.212500", "153514.702500", "153516.192500", "153517.682500", "153519.172500", "153520.662500", "153522.152500", "153523.642500", "153525.132500", "153526.622500", "153528.112500", "153529.602500", "153531.092500", "153532.582500", "153534.072500", "153535.562500", "153537.052500", "153538.542500", "153540.032500", "153541.522500", "153543.012500", "153544.502500", "153545.992500", "153547.482500", "153548.972500", "153550.462500", "153551.952500", "153553.442500", "153554.932500", "153556.422500", "153557.912500", "153559.402500", "153600.892500", "153602.382500", "153603.872500", "153605.362500", "153606.852500", "153608.342500", "153609.832500", "153611.322500", "153612.812500", "153614.302500", "153615.792500", "153617.282500", "153618.772500", "153620.262500", "153621.752500", "153623.242500", "153624.732500", "153626.222500", "153627.712500", "153629.202500", "153630.692500", "153632.182500", "153633.672500", "153635.162500", "153636.652500", "153638.142500", "153639.632500", "153641.122500", "153642.612500", "153644.102500", "153645.592500", "153647.082500", "153648.572500", "153650.062500", "153651.552500", "153653.042500", "153654.532500", "153656.022500", "153657.512500", "153659.002500", "153700.492500", "153701.982500", "153703.472500", "153704.962500", "153706.452500", "153707.942500", "153709.432500", "153710.922500", "153712.412500", "153713.902500", "153715.392500", "153716.882500", "153718.372500", "153719.862500", "153721.352500", "153722.842500", "153724.332500", "153725.822500", "153727.312500", "153728.802500", "153730.292500", "153731.782500", "153733.272500", "153734.762500", "153736.252500", "153737.742500", "153739.232500", "153740.722500", "153742.212500", "153743.702500", "153745.192500", "153746.682500", "153748.172500", "153749.662500", "153751.152500", "153752.642500", "153754.132500", "153755.622500", "153757.112500", "153758.602500", "153800.092500", "153801.582500", "153803.072500", "153804.562500", "153806.052500", "153807.542500", "153809.032500", "153810.522500", "153812.012500", "153813.502500", "153814.992500", "153816.482500", "153817.972500", "153819.462500", "153820.952500", "153822.442500", "153823.932500", "153825.422500", "153826.912500", "153828.402500", "153829.892500", "153831.382500", "153832.872500", "153834.362500", "153835.852500", "153837.342500", "153838.832500", "153840.322500", "153841.812500", "153843.302500", "153844.792500", "153846.282500", "153847.772500", "153849.262500", "153850.752500", "153852.242500", "153853.732500", "153855.222500", "153856.712500", "153858.202500", "153859.692500", "153901.182500", "153902.672500", "153904.162500", "153905.652500", "153907.142500", "153908.632500", "153910.122500", "153911.612500", "153913.102500", "153914.592500", "153916.082500", "153917.572500", "153919.062500", "153920.552500", "153922.042500", "153923.532500", "153925.022500", "153926.512500", "153928.002500", "153929.492500", "153930.982500", "153932.472500", "153933.962500", "153935.452500", "153936.942500", "153938.432500", "153939.922500", "153941.412500"],
      "ContentTime": ["152924.507000", "152924.510000", "152924.519000", "152924.521000", "152924.524000", "152924.527000", "152924.530000", "152924.533000", "152924.536000", "152924.539000", "152924.542000", "152924.545000", "152924.548000", "152924.550000", "152924.553000", "152924.556000", "152924.559000", "152924.562000", "152924.565000", "152924.568000", "152924.571000", "152924.573000", "152924.576000", "152924.585000", "152924.588000", "152924.591000", "152924.594000", "152924.597000", "152924.600000", "152924.603000", "152924.606000", "152924.608000", "152944.465000", "152944.468000", "152944.471000", "152944.474000", "152944.476000", "152944.479000", "152944.482000", "152944.485000", "152944.488000", "152944.491000", "152944.494000", "152944.497000", "152944.500000", "152944.503000", "152944.505000", "152944.508000", "152944.511000", "152944.514000", "152944.517000", "152944.520000", "153004.465000", "153004.468000", "153004.478000", "153004.480000", "153004.483000", "153004.486000", "153004.489000", "153004.492000", "153004.495000", "153004.498000", "153004.500000", "153004.503000", "153004.514000", "153004.517000", "153004.520000", "153004.523000", "153004.525000", "153004.528000", "153004.531000", "153004.534000", "153024.465000", "153024.468000", "153024.471000", "153024.477000", "153024.480000", "153024.483000", "153024.485000", "153024.488000", "153024.491000", "153024.494000", "153024.497000", "153024.500000", "153024.503000", "153024.506000", "153024.508000", "153024.512000", "153024.515000", "153024.518000", "153024.521000", "153024.524000", "153024.526000", "153104.465000", "153104.468000", "153104.471000", "153104.474000", "153104.477000", "153104.480000", "153104.483000", "153104.485000", "153104.488000", "153104.491000", "153104.494000", "153104.497000", "153104.511000", "153104.514000", "153104.517000", "153104.520000", "153104.522000", "153104.525000", "153104.528000", "153104.531000", "153104.534000", "153104.537000", "153104.540000", "153104.543000", "153104.546000", "153104.548000", "153104.551000", "153104.554000", "153104.557000", "153104.560000", "153104.563000", "153104.566000", "153144.465000", "153144.468000", "153144.471000", "153144.474000", "153144.477000", "153144.480000", "153144.482000", "153144.485000", "153144.488000", "153144.491000", "153144.494000", "153144.497000", "153144.500000", "153144.503000", "153144.505000", "153144.508000", "153144.511000", "153144.514000", "153144.517000", "153144.520000", "153144.523000", "153144.526000", "153144.528000", "153144.532000", "153144.535000", "153144.537000", "153144.540000", "153224.465000", "153224.472000", "153224.475000", "153224.478000", "153224.481000", "153224.484000", "153224.487000", "153224.490000", "153224.493000", "153224.496000", "153224.499000", "153224.502000", "153224.504000", "153224.507000", "153224.510000", "153224.513000", "153224.516000", "153224.519000", "153224.522000", "153224.525000", "153224.528000", "153224.531000", "153224.534000", "153224.536000", "153224.539000", "153224.542000", "153224.545000", "153304.466000", "153304.469000", "153304.472000", "153304.475000", "153304.478000", "153304.481000", "153304.484000", "153304.486000", "153304.489000", "153304.492000", "153304.495000", "153304.499000", "153304.503000", "153304.507000", "153304.510000", "153304.514000", "153304.517000", "153304.520000", "153304.523000", "153304.525000", "153304.529000", "153304.531000", "153304.534000", "153304.537000", "153304.540000", "153304.543000", "153344.465000", "153344.468000", "153344.471000", "153344.474000", "153344.477000", "153344.480000", "153344.483000", "153344.485000", "153344.488000", "153344.491000", "153344.494000", "153344.497000", "153344.500000", "153344.503000", "153344.506000", "153344.508000", "153344.511000", "153344.514000", "153344.517000", "153344.520000", "153344.523000", "153344.526000", "153344.529000", "153344.532000", "153344.535000", "153344.538000", "153344.541000", "153424.465000", "153424.468000", "153424.471000", "153424.474000", "153424.477000", "153424.480000", "153424.482000", "153424.485000", "153424.488000", "153424.491000", "153424.494000", "153424.497000", "153424.500000", "153424.503000", "153424.506000", "153424.509000", "153424.512000", "153424.514000", "153424.517000", "153424.520000", "153424.523000", "153424.526000", "153424.529000", "153424.531000", "153424.535000", "153424.537000", "153424.540000", "153504.465000", "153504.487000", "153504.490000", "153504.493000", "153504.496000", "153504.499000", "153504.502000", "153504.505000", "153504.508000", "153504.510000", "153504.513000", "153504.516000", "153504.519000", "153504.522000", "153504.525000", "153504.528000", "153504.531000", "153504.534000", "153504.537000", "153504.540000", "153504.542000", "153504.545000", "153504.548000", "153504.551000", "153504.554000", "153504.557000", "153504.559000", "153544.465000", "153544.468000", "153544.471000", "153544.474000", "153544.477000", "153544.480000", "153544.483000", "153544.485000", "153544.488000", "153544.491000", "153544.494000", "153544.497000", "153544.500000", "153544.503000", "153544.506000", "153544.509000", "153544.512000", "153544.515000", "153544.517000", "153544.520000", "153544.523000", "153544.526000", "153544.529000", "153544.531000", "153544.534000", "153544.537000", "153544.540000", "153624.465000", "153624.468000", "153624.471000", "153624.474000", "153624.477000", "153624.480000", "153624.482000", "153624.485000", "153624.488000", "153624.491000", "153624.494000", "153624.497000", "153624.500000", "153624.503000", "153624.506000", "153624.508000", "153624.512000", "153624.514000", "153624.517000", "153624.520000", "153624.523000", "153624.526000", "153624.529000", "153624.532000", "153624.535000", "153624.537000", "153624.540000", "153704.465000", "153704.468000", "153704.471000", "153704.474000", "153704.476000", "153704.480000", "153704.482000", "153704.485000", "153704.488000", "153704.491000", "153704.494000", "153704.497000", "153704.500000", "153704.502000", "153704.505000", "153704.508000", "153704.511000", "153704.514000", "153704.517000", "153704.520000", "153704.523000", "153704.526000", "153704.528000", "153704.531000", "153704.534000", "153704.537000", "153704.540000", "153744.466000", "153744.469000", "153744.472000", "153744.475000", "153744.478000", "153744.481000", "153744.484000", "153744.487000", "153744.490000", "153744.493000", "153744.497000", "153744.499000", "153744.502000", "153744.505000", "153744.508000", "153744.511000", "153744.514000", "153744.517000", "153744.519000", "153744.522000", "153744.525000", "153744.528000", "153744.531000", "153744.534000", "153744.537000", "153744.539000", "153824.465000", "153824.468000", "153824.471000", "153824.474000", "153824.477000", "153824.480000", "153824.482000", "153824.485000", "153824.488000", "153824.491000", "153824.494000", "153824.497000", "153824.500000", "153824.503000", "153824.506000", "153824.509000", "153824.511000", "153824.514000", "153824.517000", "153824.520000", "153824.523000", "153824.526000", "153824.529000", "153824.532000", "153824.535000", "153824.538000", "153824.540000", "153904.465000", "153904.468000", "153904.485000", "153904.488000", "153904.491000", "153904.494000", "153904.497000", "153904.500000", "153904.503000", "153904.505000", "153904.508000", "153904.528000", "153904.532000", "153904.534000", "153904.537000", "153904.540000", "153904.543000", "153904.546000", "153904.549000", "153904.552000", "153904.555000", "153904.558000", "153904.561000", "153904.564000", "153904.567000", "153904.569000", "153904.573000", "153943.875000", "153943.879000", "153943.882000", "153943.884000", "153943.887000", "153943.890000", "153943.893000", "153943.896000", "153943.899000", "153943.902000", "153943.905000", "153943.908000", "153943.911000", "153943.914000", "153943.917000", "153943.920000", "153943.922000", "153943.925000", "153943.928000", "153943.931000", "153943.934000", "153943.937000", "153943.940000", "153943.943000", "153943.946000", "153943.949000", "153943.952000"],
