{
  "AcquisitionMatrixPE": 104,
  "AcquisitionNumber": 1,
  "AcquisitionTime": "19:13:32.470000",
  "BandwidthPerPixelPhaseEncode": 17.17,
  "BaseResolution": 104,
  "BodyPartExamined": "BRAIN",
  "CoilCombinationMethod": "Sum of Squares",
  "ConsistencyInfo": "N4_VE11C_LATEST_20160120",
  "ConversionSoftware": "dcm2niix",
  "ConversionSoftwareVersion": "v1.0.20230411",
  "DerivedVendorReportedEchoSpacing": 0.000560011,
  "DeviceSerialNumber": "167006",
  "DwellTime": 2.1e-06,
  "EchoTime": 0.037,
  "EchoTrainLength": 104,
  "EffectiveEchoSpacing": 0.000560011,
  "FlipAngle": 52,
  "HeudiconvVersion": "0.5.3.post861+ge7d3c7f",
  "ImageComments": "Unaliased MB4/PE3/LB",
  "ImageOrientationPatientDICOM": [0.999172, -0.0400502, 0.00718294, 0.0397815, 0.924463, -0.379191],
  "ImageOrientationText": "Tra>Cor(-22.3)>Sag(-0.5)",
  "ImageType": [
    "ORIGINAL",
    "PRIMARY",
    "M",
    "MB",
    "ND",
    "MOSAIC"
],
  "ImagingFrequency": 123.249541,
  "InPlanePhaseEncodingDirectionDICOM": "COL",
  "InstitutionAddress": "Chemin Queen-Mary 4565,Montreal,District,CA,H3W 1W5",
  "InstitutionName": "IUGM",
  "InstitutionalDepartmentName": "Department",
  "MRAcquisitionType": "2D",
  "MagneticFieldStrength": 3,
  "Manufacturer": "Siemens",
  "ManufacturersModelName": "Prisma_fit",
  "MatrixCoilMode": "SENSE",
  "Modality": "MR",
  "MultibandAccelerationFactor": 4,
  "NonlinearGradientCorrection": false,
  "PartialFourier": 1,
  "PatientPosition": "HFS",
  "PercentPhaseFOV": 100,
  "PercentSampling": 100,
  "PhaseEncodingDirection": "j",
  "PhaseEncodingSteps": 104,
  "PhaseResolution": 1,
  "PixelBandwidth": 2290,
  "ProcedureStepDescription": "video^friends",
  "ProtocolName": "func_task-friends-s07e14a",
  "PulseSequenceDetails": "%CustomerSeq%\\cmrr_mbep2d_bold",
  "ReceiveCoilActiveElements": "HC1-7;NC1,2",
  "ReceiveCoilName": "HeadNeck_64",
  "ReconMatrixPE": 104,
  "RepetitionTime": 1.49,
  "SAR": 0.0867011,
  "ScanOptions": "FS",
  "ScanningSequence": "EP",
  "SequenceName": "epfid2d1_104",
  "SequenceVariant": "SK\\SS",
  "SeriesDescription": "func_task-friends-s07e14a",
  "SeriesNumber": 14,
  "ShimSetting": [592, -7288, -8807, 395, 36, -379, -37, 97],
  "SliceThickness": 2,
  "SliceTiming": [0, 0.785, 0.0975, 0.8825, 0.1975, 0.98, 0.295, 1.0775, 0.3925, 1.1775, 0.49, 1.275, 0.5875, 1.3725, 0.6875, 0, 0.785, 0.0975, 0.8825, 0.1975, 0.98, 0.295, 1.0775, 0.3925, 1.1775, 0.49, 1.275, 0.5875, 1.3725, 0.6875, 0, 0.785, 0.0975, 0.8825, 0.1975, 0.98, 0.295, 1.0775, 0.3925, 1.1775, 0.49, 1.275, 0.5875, 1.3725, 0.6875, 0, 0.785, 0.0975, 0.8825, 0.1975, 0.98, 0.295, 1.0775, 0.3925, 1.1775, 0.49, 1.275, 0.5875, 1.3725, 0.6875],
  "SoftwareVersions": "syngo MR E11",
  "SpacingBetweenSlices": 2,
  "StationName": "MRC35049",
  "TaskName": "s07e14a",
  "TotalReadoutTime": 0.0576811,
  "TxRefAmp": 326.34,
  "WipMemBlock": "aa811914-c157-494d-bd94-ea9118dca188||Sequence: R017 ve11c/master r/75a17815+; Jun 28 2022 16:32:11 by eja",
  "dcmmeta_affine": [
    [-1.9983437061309814, 0.07956308126449585, -0.0170926284044981, 96.80117797851562],
    [0.08010033518075943, 1.8489255905151367, -0.7583259344100952, -73.82160949707031],
    [0.014365874230861664, 0.7583824992179871, 1.8505809307098389, -62.369232177734375],
    [0.0, 0.0, 0.0, 1.0]
],
  "dcmmeta_reorient_transform": [
    [0.0, -1.0, 0.0, 103.0],
    [1.0, 0.0, 0.0, 0.0],
    [0.0, 0.0, 1.0, 0.0],
    [0.0, 0.0, 0.0, 1.0]
],
  "dcmmeta_shape": [104, 104, 60, 466],
  "dcmmeta_slice_dim": 2,
  "dcmmeta_version": 0.6,
  "global": {
    "const": {
      "AcquisitionMatrix": [104, 0, 0, 104],
      "AngioFlag": "N",
      "BitsAllocated": 16,
      "BitsStored": 16,
      "BodyPartExamined": "BRAIN",
      "Columns": 832,
      "EchoNumbers": 1,
      "EchoTime": 37.0,
      "EchoTrainLength": 104,
      "FlipAngle": 52.0,
      "HighBit": 15,
      "ImageOrientationPatient": [0.99917185187629, -0.040050166434, 0.00718293719322, 0.03978154007813, 0.92446277995559, -0.3791912413886],
      "ImagePositionPatient": [-861.35424683485, -760.47010556143, 286.56620884944],
      "ImageType": [
        "ORIGINAL",
        "PRIMARY",
        "M",
        "MB",
        "ND",
        "MOSAIC"
],
      "ImagedNucleus": "1H",
      "ImagingFrequency": 123.249541,
      "InPlanePhaseEncodingDirection": "COL",
      "MRAcquisitionType": "2D",
      "MagneticFieldStrength": 3.0,
      "Manufacturer": "SIEMENS",
      "ManufacturerModelName": "Prisma_fit",
      "Modality": "MR",
      "NumberOfAverages": 1.0,
      "NumberOfPhaseEncodingSteps": 104,
      "PercentPhaseFieldOfView": 100.0,
      "PercentSampling": 100.0,
      "PerformedProcedureStepStartTime": "183537.179000",
      "PhotometricInterpretation": "MONOCHROME2",
      "PixelBandwidth": 2290.0,
      "PixelRepresentation": 0,
      "PixelSpacing": [2.0, 2.0],
      "ProtocolName": "func_task-friends-s07e14a",
      "RepetitionTime": 1490.0,
      "Rows": 832,
      "SAR": 0.08670107476849,
      "SamplesPerPixel": 1,
      "ScanOptions": "FS",
      "ScanningSequence": "EP",
      "SequenceName": "epfid2d1_104",
      "SequenceVariant": [
        "SK",
        "SS"
],
      "SeriesDescription": "func_task-friends-s07e14a",
      "SeriesNumber": 14,
      "SeriesTime": "191442.176000",
      "SliceLocation": -30.546527751196,
      "SliceThickness": 2.0,
      "SmallestImagePixelValue": 0,
      "SoftwareVersions": "syngo MR E11",
      "SpacingBetweenSlices": 1.9999999884554,
      "SpecificCharacterSet": "ISO_IR 100",
      "StudyID": "1",
      "StudyTime": "183537.096000",
      "TransmitCoilName": "Body",
      "VariableFlipAngleFlag": "N",
      "WindowCenterWidthExplanation": "Algo1",
      "dBdt": 0.0},
    "slices": {}
  },
  "time": {
    "samples": {
      "AcquisitionNumber": [1, 2, 3, 4, 5, 6, 7, 8, 9, 10, 11, 12, 13, 14, 15, 16, 17, 18, 19, 20, 21, 22, 23, 24, 25, 26, 27, 28, 29, 30, 31, 32, 33, 34, 35, 36, 37, 38, 39, 40, 41, 42, 43, 44, 45, 46, 47, 48, 49, 50, 51, 52, 53, 54, 55, 56, 57, 58, 59, 60, 61, 62, 63, 64, 65, 66, 67, 68, 69, 70, 71, 72, 73, 74, 75, 76, 77, 78, 79, 80, 81, 82, 83, 84, 85, 86, 87, 88, 89, 90, 91, 92, 93, 94, 95, 96, 97, 98, 99, 100, 101, 102, 103, 104, 105, 106, 107, 108, 109, 110, 111, 112, 113, 114, 115, 116, 117, 118, 119, 120, 121, 122, 123, 124, 125, 126, 127, 128, 129, 130, 131, 132, 133, 134, 135, 136, 137, 138, 139, 140, 141, 142, 143, 144, 145, 146, 147, 148, 149, 150, 151, 152, 153, 154, 155, 156, 157, 158, 159, 160, 161, 162, 163, 164, 165, 166, 167, 168, 169, 170, 171, 172, 173, 174, 175, 176, 177, 178, 179, 180, 181, 182, 183, 184, 185, 186, 187, 188, 189, 190, 191, 192, 193, 194, 195, 196, 197, 198, 199, 200, 201, 202, 203, 204, 205, 206, 207, 208, 209, 210, 211, 212, 213, 214, 215, 216, 217, 218, 219, 220, 221, 222, 223, 224, 225, 226, 227, 228, 229, 230, 231, 232, 233, 234, 235, 236, 237, 238, 239, 240, 241, 242, 243, 244, 245, 246, 247, 248, 249, 250, 251, 252, 253, 254, 255, 256, 257, 258, 259, 260, 261, 262, 263, 264, 265, 266, 267, 268, 269, 270, 271, 272, 273, 274, 275, 276, 277, 278, 279, 280, 281, 282, 283, 284, 285, 286, 287, 288, 289, 290, 291, 292, 293, 294, 295, 296, 297, 298, 299, 300, 301, 302, 303, 304, 305, 306, 307, 308, 309, 310, 311, 312, 313, 314, 315, 316, 317, 318, 319, 320, 321, 322, 323, 324, 325, 326, 327, 328, 329, 330, 331, 332, 333, 334, 335, 336, 337, 338, 339, 340, 341, 342, 343, 344, 345, 346, 347, 348, 349, 350, 351, 352, 353, 354, 355, 356, 357, 358, 359, 360, 361, 362, 363, 364, 365, 366, 367, 368, 369, 370, 371, 372, 373, 374, 375, 376, 377, 378, 379, 380, 381, 382, 383, 384, 385, 386, 387, 388, 389, 390, 391, 392, 393, 394, 395, 396, 397, 398, 399, 400, 401, 402, 403, 404, 405, 406, 407, 408, 409, 410, 411, 412, 413, 414, 415, 416, 417, 418, 419, 420, 421, 422, 423, 424, 425, 426, 427, 428, 429, 430, 431, 432, 433, 434, 435, 436, 437, 438, 439, 440, 441, 442, 443, 444, 445, 446, 447, 448, 449, 450, 451, 452, 453, 454, 455, 456, 457, 458, 459, 460, 461, 462, 463, 464, 465, 466],
      "AcquisitionTime": ["191332.470000", "191333.960000", "191335.450000", "191336.940000", "191338.430000", "191339.920000", "191341.410000", "191342.900000", "191344.390000", "191345.880000", "191347.370000", "191348.860000", "191350.350000", "191351.840000", "191353.330000", "191354.820000", "191356.310000", "191357.800000", "191359.290000", "191400.780000", "191402.270000", "191403.760000", "191405.250000", "191406.740000", "191408.230000", "191409.720000", "191411.210000", "191412.700000", "191414.190000", "191415.680000", "191417.170000", "191418.660000", "191420.150000", "191421.640000", "191423.130000", "191424.620000", "191426.110000", "191427.600000", "191429.090000", "191430.580000", "191432.070000", "191433.560000", "191435.050000", "191436.540000", "191438.030000", "191439.520000", "191441.010000", "191442.500000", "191443.990000", "191445.480000", "191446.970000", "191448.460000", "191449.950000", "191451.440000", "191452.930000", "191454.420000", "191455.910000", "191457.400000", "191458.890000", "191500.380000", "191501.870000", "191503.360000", "191504.850000", "191506.340000", "191507.830000", "191509.320000", "191510.810000", "191512.300000", "191513.790000", "191515.280000", "191516.770000", "191518.260000", "191519.750000", "191521.240000", "191522.730000", "191524.220000", "191525.710000", "191527.200000", "191528.690000", "191530.180000", "191531.670000", "191533.160000", "191534.650000", "191536.140000", "191537.630000", "191539.120000", "191540.610000", "191542.100000", "191543.590000", "191545.080000", "191546.570000", "191548.060000", "191549.550000", "191551.040000", "191552.530000", "191554.020000", "191555.510000", "191557.000000", "191558.490000", "191559.980000", "191601.470000", "191602.960000", "191604.450000", "191605.940000", "191607.430000", "191608.920000", "191610.410000", "191611.900000", "191613.390000", "191614.880000", "191616.370000", "191617.860000", "191619.350000", "191620.840000", "191622.330000", "191623.820000", "191625.310000", "191626.800000", "191628.290000", "191629.780000", "191631.270000", "191632.760000", "191634.250000", "191635.740000", "191637.230000", "191638.720000", "191640.210000", "191641.700000", "191643.190000", "191644.680000", "191646.170000", "191647.660000", "191649.150000", "191650.640000", "191652.130000", "191653.620000", "191655.110000", "191656.600000", "191658.090000", "191659.580000", "191701.070000", "191702.560000", "191704.050000", "191705.540000", "191707.030000", "191708.520000", "191710.010000", "191711.500000", "191712.990000", "191714.480000", "191715.970000", "191717.460000", "191718.950000", "191720.440000", "191721.930000", "191723.420000", "191724.910000", "191726.400000", "191727.890000", "191729.380000", "191730.870000", "191732.360000", "191733.850000", "191735.340000", "191736.830000", "191738.320000", "191739.810000", "191741.300000", "191742.790000", "191744.280000", "191745.770000", "191747.260000", "191748.750000", "191750.240000", "191751.730000", "191753.220000", "191754.710000", "191756.200000", "191757.690000", "191759.180000", "191800.670000", "191802.160000", "191803.650000", "191805.140000", "191806.630000", "191808.120000", "191809.610000", "191811.100000", "191812.590000", "191814.080000", "191815.570000", "191817.060000", "191818.550000", "191820.040000", "191821.530000", "191823.020000", "191824.510000", "191826.000000", "191827.490000", "191828.980000", "191830.470000", "191831.960000", "191833.450000", "191834.940000", "191836.430000", "191837.920000", "191839.410000", "191840.900000", "191842.390000", "191843.880000", "191845.370000", "191846.860000", "191848.350000", "191849.840000", "191851.330000", "191852.820000", "191854.310000", "191855.800000", "191857.290000", "191858.780000", "191900.270000", "191901.760000", "191903.250000", "191904.740000", "191906.230000", "191907.720000", "191909.210000", "191910.700000", "191912.190000", "191913.680000", "191915.170000", "191916.660000", "191918.150000", "191919.640000", "191921.130000", "191922.620000", "191924.110000", "191925.600000", "191927.090000", "191928.580000", "191930.070000", "191931.560000", "191933.050000", "191934.540000", "191936.030000", "191937.520000", "191939.010000", "191940.500000", "191941.990000", "191943.480000", "191944.970000", "191946.460000", "191947.950000", "191949.440000", "191950.930000", "191952.420000", "191953.910000", "191955.400000", "191956.890000", "191958.380000", "191959.870000", "192001.360000", "192002.850000", "192004.340000", "192005.830000", "192007.320000", "192008.810000", "192010.300000", "192011.790000", "192013.280000", "192014.770000", "192016.260000", "192017.750000", "192019.240000", "192020.730000", "192022.220000", "192023.710000", "192025.200000", "192026.690000", "192028.180000", "192029.670000", "192031.160000", "192032.650000", "192034.140000", "192035.630000", "192037.120000", "192038.610000", "192040.100000", "192041.590000", "192043.080000", "192044.570000", "192046.060000", "192047.550000", "192049.040000", "192050.530000", "192052.020000", "192053.510000", "192055.000000", "192056.490000", "192057.980000", "192059.470000", "192100.960000", "192102.450000", "192103.940000", "192105.430000", "192106.920000", "192108.410000", "192109.900000", "192111.390000", "192112.880000", "192114.370000", "192115.860000", "192117.350000", "192118.840000", "192120.330000", "192121.820000", "192123.310000", "192124.800000", "192126.290000", "192127.780000", "192129.270000", "192130.760000", "192132.250000", "192133.740000", "192135.230000", "192136.720000", "192138.210000", "192139.700000", "192141.190000", "192142.680000", "192144.170000", "192145.660000", "192147.150000", "192148.640000", "192150.130000", "192151.620000", "192153.110000", "192154.600000", "192156.090000", "192157.580000", "192159.070000", "192200.560000", "192202.050000", "192203.540000", "192205.030000", "192206.520000", "192208.010000", "192209.500000", "192210.990000", "192212.480000", "192213.970000", "192215.460000", "192216.950000", "192218.440000", "192219.930000", "192221.420000", "192222.910000", "192224.400000", "192225.890000", "192227.380000", "192228.870000", "192230.360000", "192231.850000", "192233.340000", "192234.830000", "192236.320000", "192237.810000", "192239.300000", "192240.790000", "192242.280000", "192243.770000", "192245.260000", "192246.750000", "192248.240000", "192249.730000", "192251.220000", "192252.710000", "192254.200000", "192255.690000", "192257.180000", "192258.670000", "192300.160000", "192301.650000", "192303.140000", "192304.630000", "192306.120000", "192307.610000", "192309.100000", "192310.590000", "192312.080000", "192313.570000", "192315.060000", "192316.550000", "192318.040000", "192319.530000", "192321.020000", "192322.510000", "192324.000000", "192325.490000", "192326.980000", "192328.470000", "192329.960000", "192331.450000", "192332.940000", "192334.430000", "192335.920000", "192337.410000", "192338.900000", "192340.390000", "192341.880000", "192343.370000", "192344.860000", "192346.350000", "192347.840000", "192349.330000", "192350.820000", "192352.310000", "192353.800000", "192355.290000", "192356.780000", "192358.270000", "192359.760000", "192401.250000", "192402.740000", "192404.230000", "192405.720000", "192407.210000", "192408.700000", "192410.190000", "192411.680000", "192413.170000", "192414.660000", "192416.150000", "192417.640000", "192419.130000", "192420.620000", "192422.110000", "192423.600000", "192425.090000", "192426.580000", "192428.070000", "192429.560000", "192431.050000", "192432.540000", "192434.030000", "192435.520000", "192437.010000", "192438.500000", "192439.990000", "192441.480000", "192442.970000", "192444.460000", "192445.950000", "192447.440000", "192448.930000", "192450.420000", "192451.910000", "192453.400000", "192454.890000", "192456.380000", "192457.870000", "192459.360000", "192500.850000", "192502.340000", "192503.830000", "192505.320000"],
      "ContentTime": ["191442.179000", "191442.182000", "191442.191000", "191442.200000", "191442.202000", "191442.205000", "191442.208000", "191442.212000", "191442.215000", "191442.221000", "191442.224000", "191442.227000", "191442.230000", "191442.233000", "191442.236000", "191442.240000", "191442.243000", "191442.246000", "191442.249000", "191442.252000", "191502.177000", "191502.180000", "191502.184000", "191502.187000", "191502.189000", "191502.193000", "191502.196000", "191502.199000", "191502.203000", "191502.206000", "191502.209000", "191502.212000", "191502.215000", "191502.218000", "191502.221000", "191502.224000", "191502.227000", "191502.230000", "191502.233000", "191502.249000", "191522.177000", "191522.180000", "191522.183000", "191522.186000", "191522.189000", "191522.192000", "191522.195000", "191522.198000", "191522.201000", "191522.204000", "191522.207000", "191522.210000", "191522.213000", "191522.221000", "191522.224000", "191522.227000", "191522.230000", "191522.233000", "191522.236000", "191522.239000", "191522.242000", "191542.177000", "191542.180000", "191542.183000", "191542.186000", "191542.189000", "191542.192000", "191542.195000", "191542.199000", "191542.201000", "191542.204000", "191542.207000", "191542.211000", "191542.214000", "191542.216000", "191542.219000", "191542.223000", "191542.226000", "191542.228000", "191542.237000", "191542.240000", "191622.177000", "191622.180000", "191622.183000", "191622.187000", "191622.190000", "191622.193000", "191622.196000", "191622.199000", "191622.202000", "191622.205000", "191622.208000", "191622.211000", "191622.214000", "191622.217000", "191622.220000", "191622.223000", "191622.226000", "191622.229000", "191622.237000", "191622.240000", "191622.243000", "191622.246000", "191622.249000", "191622.252000", "191622.255000", "191622.258000", "191622.261000", "191622.265000", "191622.267000", "191622.270000", "191622.273000", "191622.277000", "191702.177000", "191702.180000", "191702.184000", "191702.196000", "191702.199000", "191702.202000", "191702.206000", "191702.209000", "191702.211000", "191702.215000", "191702.218000", "191702.221000", "191702.224000", "191702.227000", "191702.230000", "191702.233000", "191702.236000", "191702.239000", "191702.242000", "191702.245000", "191702.248000", "191702.251000", "191702.254000", "191702.257000", "191702.260000", "191702.263000", "191702.266000", "191742.177000", "191742.180000", "191742.183000", "191742.186000", "191742.190000", "191742.193000", "191742.196000", "191742.199000", "191742.202000", "191742.205000", "191742.208000", "191742.211000", "191742.214000", "191742.217000", "191742.220000", "191742.223000", "191742.226000", "191742.229000", "191742.232000", "191742.235000", "191742.238000", "191742.241000", "191742.244000", "191742.247000", "191742.250000", "191742.254000", "191742.256000", "191822.177000", "191822.180000", "191822.183000", "191822.186000", "191822.189000", "191822.192000", "191822.195000", "191822.199000", "191822.202000", "191822.205000", "191822.208000", "191822.211000", "191822.214000", "191822.217000", "191822.220000", "191822.223000", "191822.226000", "191822.229000", "191822.232000", "191822.235000", "191822.238000", "191822.241000", "191822.244000", "191822.247000", "191822.250000", "191822.253000", "191822.256000", "191902.177000", "191902.180000", "191902.184000", "191902.187000", "191902.190000", "191902.193000", "191902.214000", "191902.217000", "191902.220000", "191902.223000", "191902.227000", "191902.230000", "191902.233000", "191902.236000", "191902.239000", "191902.242000", "191902.245000", "191902.248000", "191902.251000", "191902.254000", "191902.257000", "191902.260000", "191902.263000", "191902.266000", "191902.269000", "191902.272000", "191902.275000", "191942.177000", "191942.181000", "191942.184000", "191942.187000", "191942.190000", "191942.193000", "191942.196000", "191942.199000", "191942.204000", "191942.207000", "191942.210000", "191942.213000", "191942.216000", "191942.219000", "191942.222000", "191942.225000", "191942.228000", "191942.231000", "191942.234000", "191942.237000", "191942.240000", "191942.243000", "191942.246000", "191942.249000", "191942.252000", "191942.256000", "192022.177000", "192022.180000", "192022.183000", "192022.186000", "192022.189000", "192022.192000", "192022.195000", "192022.198000", "192022.201000", "192022.204000", "192022.207000", "192022.210000", "192022.213000", "192022.216000", "192022.219000", "192022.222000", "192022.225000", "192022.228000", "192022.231000", "192022.234000", "192022.237000", "192022.240000", "192022.243000", "192022.246000", "192022.249000", "192022.252000", "192022.255000", "192102.177000", "192102.180000", "192102.183000", "192102.186000", "192102.189000", "192102.192000", "192102.195000", "192102.198000", "192102.201000", "192102.204000", "192102.207000", "192102.210000", "192102.213000", "192102.216000", "192102.220000", "192102.223000", "192102.226000", "192102.229000", "192102.232000", "192102.235000", "192102.238000", "192102.241000", "192102.244000", "192102.247000", "192102.250000", "192102.253000", "192102.256000", "192142.177000", "192142.180000", "192142.183000", "192142.186000", "192142.189000", "192142.192000", "192142.195000", "192142.198000", "192142.201000", "192142.204000", "192142.207000", "192142.210000", "192142.213000", "192142.216000", "192142.219000", "192142.222000", "192142.225000", "192142.228000", "192142.231000", "192142.234000", "192142.237000", "192142.240000", "192142.250000", "192142.253000", "192142.256000", "192142.259000", "192142.262000", "192222.177000", "192222.180000", "192222.183000", "192222.186000", "192222.189000", "192222.192000", "192222.195000", "192222.198000", "192222.201000", "192222.204000", "192222.207000", "192222.210000", "192222.213000", "192222.216000", "192222.219000", "192222.222000", "192222.225000", "192222.228000", "192222.231000", "192222.234000", "192222.237000", "192222.240000", "192222.243000", "192222.246000", "192222.249000", "192222.252000", "192222.255000", "192242.177000", "192242.180000", "192242.183000", "192242.186000", "192242.189000", "192242.192000", "192242.195000", "192242.198000", "192242.201000", "192242.204000", "192242.207000", "192242.210000", "192242.213000", "192322.177000", "192322.180000", "192322.183000", "192322.186000", "192322.189000", "192322.192000", "192322.195000", "192322.198000", "192322.201000", "192322.204000", "192322.207000", "192322.210000", "192322.213000", "192322.216000", "192322.219000", "192322.222000", "192322.225000", "192322.228000", "192322.231000", "192322.234000", "192322.249000", "192322.252000", "192322.255000", "192322.258000", "192322.261000", "192322.264000", "192322.267000", "192402.177000", "192402.180000", "192402.183000", "192402.186000", "192402.189000", "192402.192000", "192402.195000", "192402.198000", "192402.201000", "192402.204000", "192402.207000", "192402.210000", "192402.213000", "192402.216000", "192402.219000", "192402.222000", "192402.225000", "192402.228000", "192402.231000", "192402.234000", "192402.237000", "192402.240000", "192402.243000", "192402.246000", "192402.249000", "192402.252000", "192402.255000", "192442.177000", "192442.180000", "192442.183000", "192442.186000", "192442.189000", "192442.192000", "192442.195000", "192442.198000", "192442.201000", "192442.204000", "192442.207000", "192442.210000", "192442.213000", "192442.216000", "192442.219000", "192442.222000", "192442.225000", "192442.228000", "192442.231000", "192442.234000", "192442.238000", "192442.241000", "192442.244000", "192442.247000", "192442.250000", "192442.253000", "192442.256000", "192507.202000", "192507.205000", "192507.208000", "192507.211000", "192507.214000", "192507.217000", "192507.220000", "192507.224000", "192507.227000", "192507.230000", "192507.233000", "192507.236000", "192507.239000", "192507.242000", "192507.245000", "192507.248000", "192507.251000"],
