{
  "AcquisitionMatrixPE": 104,
  "AcquisitionNumber": 1,
  "AcquisitionTime": "10:23:10.617500",
  "BandwidthPerPixelPhaseEncode": 17.17,
  "BaseResolution": 104,
  "BodyPartExamined": "BRAIN",
  "CoilString": "HC1-7;NC1_2",
  "ConsistencyInfo": "N4_VE11C_LATEST_20160120",
  "ConversionSoftware": "dcm2niix",
  "ConversionSoftwareVersion": "v1.0.20190902",
  "DerivedVendorReportedEchoSpacing": 0.000560011,
  "DeviceSerialNumber": "167006",
  "DwellTime": 2.1e-06,
  "EchoTime": 0.037,
  "EchoTrainLength": 104,
  "EffectiveEchoSpacing": 0.000560011,
  "FlipAngle": 52,
  "ImageComments": "Unaliased_MB4_PE3_LB",
  "ImageOrientationPatientDICOM": [0.999976, 0.00506262, 0.00482628, -0.00209431, 0.87507, -0.483992],
  "ImageType": [
    "ORIGINAL",
    "PRIMARY",
    "M",
    "MB",
    "ND",
    "MOSAIC"
],
  "ImagingFrequency": 123.259,
  "InPlanePhaseEncodingDirectionDICOM": "COL",
  "InstitutionAddress": "Chemin_Queen-Mary_4565_Montreal_District_CA_H3W_1W5",
  "InstitutionName": "IUGM",
  "InstitutionalDepartmentName": "Department",
  "MRAcquisitionType": "2D",
  "MagneticFieldStrength": 3,
  "Manufacturer": "Siemens",
  "ManufacturersModelName": "Prisma_fit",
  "Modality": "MR",
  "MultibandAccelerationFactor": 4,
  "PartialFourier": 1,
  "PatientPosition": "HFS",
  "PercentPhaseFOV": 100,
  "PhaseEncodingDirection": "j",
  "PhaseEncodingSteps": 104,
  "PhaseResolution": 1,
  "PixelBandwidth": 2290,
  "ProcedureStepDescription": "video_friends",
  "ProtocolName": "func_task-friends-s04e04b",
  "PulseSequenceDetails": "%CustomerSeq%_cmrr_mbep2d_bold",
  "ReceiveCoilActiveElements": "HC1-7;NC1,2",
  "ReceiveCoilName": "HeadNeck_64",
  "ReconMatrixPE": 104,
  "RepetitionTime": 1.49,
  "SAR": 0.0347606,
  "ScanOptions": "FS",
  "ScanningSequence": "EP",
  "SequenceName": "epfid2d1_104",
  "SequenceVariant": "SK_SS",
  "SeriesDescription": "func_task-friends-s04e04b",
  "SeriesNumber": 19,
  "ShimSetting": [622, -7202, -8862, 423, -17, -162, 7, -13],
  "SliceThickness": 2,
  "SliceTiming": [0, 0.7825, 0.0975, 0.88, 0.195, 0.98, 0.2925, 1.0775, 0.3925, 1.175, 0.49, 1.2725, 0.5875, 1.37, 0.685, 0, 0.7825, 0.0975, 0.88, 0.195, 0.98, 0.2925, 1.0775, 0.3925, 1.175, 0.49, 1.2725, 0.5875, 1.37, 0.685, 0, 0.7825, 0.0975, 0.88, 0.195, 0.98, 0.2925, 1.0775, 0.3925, 1.175, 0.49, 1.2725, 0.5875, 1.37, 0.685, 0, 0.7825, 0.0975, 0.88, 0.195, 0.98, 0.2925, 1.0775, 0.3925, 1.175, 0.49, 1.2725, 0.5875, 1.37, 0.685],
  "SoftwareVersions": "syngo_MR_E11",
  "SpacingBetweenSlices": 2,
  "StationName": "MRC35049",
  "TaskName": "s04e04b",
  "TotalReadoutTime": 0.0576811,
  "TxRefAmp": 247.188,
  "WipMemBlock": "99f894fc-1b92-489e-bdaf-7b9be9cd9ba8||Sequence: R016 ve11c/master r/e634e98; Dec 19 2017 11:00:25 by eja",
  "dcmmeta_affine": [
    [-1.9999511241912842, -0.004188628401607275, 0.013347196392714977, 102.80782318115234],
    [-0.01012523751705885, 1.7501394748687744, -0.9679408073425293, -61.47206115722656],
    [0.009652554988861084, 0.967984676361084, 1.7501178979873657, -95.27371215820312],
    [0.0, 0.0, 0.0, 1.0]
],
  "dcmmeta_reorient_transform": [
    [0.0, -1.0, 0.0, 103.0],
    [1.0, 0.0, 0.0, 0.0],
    [0.0, 0.0, 1.0, 0.0],
    [0.0, 0.0, 0.0, 1.0]
],
  "dcmmeta_shape": [104, 104, 60, 453],
  "dcmmeta_slice_dim": 2,
  "dcmmeta_version": 0.6,
  "global": {
    "const": {
      "AcquisitionMatrix": [104, 0, 0, 104],
      "AngioFlag": "N",
      "BitsAllocated": 16,
      "BitsStored": 16,
      "BodyPartExamined": "BRAIN",
      "Columns": 832,
      "EchoNumbers": 1,
      "EchoTime": 37.0,
      "EchoTrainLength": 104,
      "FlipAngle": 52.0,
      "HighBit": 15,
      "ImageOrientationPatient": [0.9999755381689, 0.00506261867629, 0.00482627765019, -0.0020943141973, 0.87506973024851, -0.4839923357356],
      "ImagePositionPatient": [-828.83392204722, -759.52865159791, 353.26159642328],
      "ImageType": [
        "ORIGINAL",
        "PRIMARY",
        "M",
        "MB",
        "ND",
        "MOSAIC"
],
      "ImagedNucleus": "1H",
      "ImagingFrequency": 123.25909,
      "InPlanePhaseEncodingDirection": "COL",
      "MRAcquisitionType": "2D",
      "MagneticFieldStrength": 3.0,
      "Manufacturer": "SIEMENS",
      "ManufacturerModelName": "Prisma_fit",
      "Modality": "MR",
      "NumberOfAverages": 1.0,
      "NumberOfPhaseEncodingSteps": 104,
      "PercentPhaseFieldOfView": 100.0,
      "PercentSampling": 100.0,
      "PerformedProcedureStepStartTime": "090259.581000",
      "PhotometricInterpretation": "MONOCHROME2",
      "PixelBandwidth": 2290.0,
      "PixelRepresentation": 0,
      "PixelSpacing": [2.0, 2.0],
      "ProtocolName": "func_task-friends-s04e04b",
      "RepetitionTime": 1490.0,
      "Rows": 832,
      "SAR": 0.03476062863884,
      "SamplesPerPixel": 1,
      "ScanOptions": "FS",
      "ScanningSequence": "EP",
      "SequenceName": "epfid2d1_104",
      "SequenceVariant": [
        "SK",
        "SS"
],
      "SeriesDescription": "func_task-friends-s04e04b",
      "SeriesNumber": 19,
      "SeriesTime": "102428.530000",
      "SliceLocation": -52.933358633792,
      "SliceThickness": 2.0,
      "SmallestImagePixelValue": 0,
      "SoftwareVersions": "syngo MR E11",
      "SpacingBetweenSlices": 2.0000000066312,
      "SpecificCharacterSet": "ISO_IR 100",
      "StudyID": "1",
      "StudyTime": "090259.488000",
      "TransmitCoilName": "Body",
      "VariableFlipAngleFlag": "N",
      "WindowCenterWidthExplanation": "Algo1",
      "dBdt": 0.0},
    "slices": {}
  },
  "time": {
    "samples": {
      "AcquisitionNumber": [1, 2, 3, 4, 5, 6, 7, 8, 9, 10, 11, 12, 13, 14, 15, 16, 17, 18, 19, 20, 21, 22, 23, 24, 25, 26, 27, 28, 29, 30, 31, 32, 33, 34, 35, 36, 37, 38, 39, 40, 41, 42, 43, 44, 45, 46, 47, 48, 49, 50, 51, 52, 53, 54, 55, 56, 57, 58, 59, 60, 61, 62, 63, 64, 65, 66, 67, 68, 69, 70, 71, 72, 73, 74, 75, 76, 77, 78, 79, 80, 81, 82, 83, 84, 85, 86, 87, 88, 89, 90, 91, 92, 93, 94, 95, 96, 97, 98, 99, 100, 101, 102, 103, 104, 105, 106, 107, 108, 109, 110, 111, 112, 113, 114, 115, 116, 117, 118, 119, 120, 121, 122, 123, 124, 125, 126, 127, 128, 129, 130, 131, 132, 133, 134, 135, 136, 137, 138, 139, 140, 141, 142, 143, 144, 145, 146, 147, 148, 149, 150, 151, 152, 153, 154, 155, 156, 157, 158, 159, 160, 161, 162, 163, 164, 165, 166, 167, 168, 169, 170, 171, 172, 173, 174, 175, 176, 177, 178, 179, 180, 181, 182, 183, 184, 185, 186, 187, 188, 189, 190, 191, 192, 193, 194, 195, 196, 197, 198, 199, 200, 201, 202, 203, 204, 205, 206, 207, 208, 209, 210, 211, 212, 213, 214, 215, 216, 217, 218, 219, 220, 221, 222, 223, 224, 225, 226, 227, 228, 229, 230, 231, 232, 233, 234, 235, 236, 237, 238, 239, 240, 241, 242, 243, 244, 245, 246, 247, 248, 249, 250, 251, 252, 253, 254, 255, 256, 257, 258, 259, 260, 261, 262, 263, 264, 265, 266, 267, 268, 269, 270, 271, 272, 273, 274, 275, 276, 277, 278, 279, 280, 281, 282, 283, 284, 285, 286, 287, 288, 289, 290, 291, 292, 293, 294, 295, 296, 297, 298, 299, 300, 301, 302, 303, 304, 305, 306, 307, 308, 309, 310, 311, 312, 313, 314, 315, 316, 317, 318, 319, 320, 321, 322, 323, 324, 325, 326, 327, 328, 329, 330, 331, 332, 333, 334, 335, 336, 337, 338, 339, 340, 341, 342, 343, 344, 345, 346, 347, 348, 349, 350, 351, 352, 353, 354, 355, 356, 357, 358, 359, 360, 361, 362, 363, 364, 365, 366, 367, 368, 369, 370, 371, 372, 373, 374, 375, 376, 377, 378, 379, 380, 381, 382, 383, 384, 385, 386, 387, 388, 389, 390, 391, 392, 393, 394, 395, 396, 397, 398, 399, 400, 401, 402, 403, 404, 405, 406, 407, 408, 409, 410, 411, 412, 413, 414, 415, 416, 417, 418, 419, 420, 421, 422, 423, 424, 425, 426, 427, 428, 429, 430, 431, 432, 433, 434, 435, 436, 437, 438, 439, 440, 441, 442, 443, 444, 445, 446, 447, 448, 449, 450, 451, 452, 453],
      "AcquisitionTime": ["102310.617500", "102312.107500", "102313.597500", "102315.087500", "102316.577500", "102318.067500", "102319.557500", "102321.047500", "102322.537500", "102324.027500", "102325.517500", "102327.007500", "102328.497500", "102329.987500", "102331.477500", "102332.967500", "102334.457500", "102335.947500", "102337.437500", "102338.927500", "102340.417500", "102341.907500", "102343.397500", "102344.887500", "102346.377500", "102347.867500", "102349.357500", "102350.847500", "102352.337500", "102353.827500", "102355.317500", "102356.807500", "102358.297500", "102359.787500", "102401.277500", "102402.767500", "102404.257500", "102405.747500", "102407.237500", "102408.727500", "102410.217500", "102411.707500", "102413.197500", "102414.687500", "102416.177500", "102417.667500", "102419.157500", "102420.647500", "102422.137500", "102423.627500", "102425.117500", "102426.607500", "102428.097500", "102429.587500", "102431.077500", "102432.567500", "102434.057500", "102435.547500", "102437.037500", "102438.527500", "102440.017500", "102441.507500", "102442.997500", "102444.487500", "102445.977500", "102447.467500", "102448.957500", "102450.447500", "102451.937500", "102453.427500", "102454.917500", "102456.407500", "102457.897500", "102459.387500", "102500.877500", "102502.367500", "102503.857500", "102505.347500", "102506.837500", "102508.327500", "102509.817500", "102511.307500", "102512.797500", "102514.287500", "102515.777500", "102517.267500", "102518.757500", "102520.247500", "102521.737500", "102523.227500", "102524.717500", "102526.207500", "102527.697500", "102529.187500", "102530.677500", "102532.167500", "102533.657500", "102535.147500", "102536.637500", "102538.127500", "102539.617500", "102541.107500", "102542.597500", "102544.087500", "102545.577500", "102547.067500", "102548.557500", "102550.047500", "102551.537500", "102553.027500", "102554.517500", "102556.007500", "102557.497500", "102558.987500", "102600.477500", "102601.967500", "102603.457500", "102604.947500", "102606.437500", "102607.927500", "102609.417500", "102610.907500", "102612.397500", "102613.887500", "102615.377500", "102616.867500", "102618.357500", "102619.847500", "102621.337500", "102622.827500", "102624.317500", "102625.807500", "102627.297500", "102628.787500", "102630.277500", "102631.767500", "102633.257500", "102634.747500", "102636.237500", "102637.727500", "102639.217500", "102640.707500", "102642.197500", "102643.687500", "102645.177500", "102646.667500", "102648.157500", "102649.647500", "102651.137500", "102652.627500", "102654.117500", "102655.607500", "102657.097500", "102658.587500", "102700.077500", "102701.567500", "102703.057500", "102704.547500", "102706.037500", "102707.527500", "102709.017500", "102710.507500", "102711.997500", "102713.487500", "102714.977500", "102716.467500", "102717.957500", "102719.447500", "102720.937500", "102722.427500", "102723.917500", "102725.407500", "102726.897500", "102728.387500", "102729.877500", "102731.367500", "102732.857500", "102734.347500", "102735.837500", "102737.327500", "102738.817500", "102740.307500", "102741.797500", "102743.287500", "102744.777500", "102746.267500", "102747.757500", "102749.247500", "102750.737500", "102752.227500", "102753.717500", "102755.207500", "102756.697500", "102758.187500", "102759.677500", "102801.167500", "102802.657500", "102804.147500", "102805.637500", "102807.127500", "102808.617500", "102810.107500", "102811.597500", "102813.087500", "102814.577500", "102816.067500", "102817.557500", "102819.047500", "102820.537500", "102822.027500", "102823.517500", "102825.007500", "102826.497500", "102827.987500", "102829.477500", "102830.967500", "102832.457500", "102833.947500", "102835.437500", "102836.927500", "102838.417500", "102839.907500", "102841.397500", "102842.887500", "102844.377500", "102845.867500", "102847.357500", "102848.847500", "102850.337500", "102851.827500", "102853.317500", "102854.807500", "102856.297500", "102857.787500", "102859.277500", "102900.767500", "102902.257500", "102903.747500", "102905.237500", "102906.727500", "102908.217500", "102909.707500", "102911.197500", "102912.687500", "102914.177500", "102915.667500", "102917.157500", "102918.647500", "102920.137500", "102921.627500", "102923.117500", "102924.607500", "102926.097500", "102927.587500", "102929.077500", "102930.567500", "102932.057500", "102933.547500", "102935.037500", "102936.527500", "102938.017500", "102939.507500", "102940.997500", "102942.487500", "102943.977500", "102945.467500", "102946.957500", "102948.447500", "102949.937500", "102951.427500", "102952.917500", "102954.407500", "102955.897500", "102957.387500", "102958.877500", "103000.367500", "103001.857500", "103003.347500", "103004.837500", "103006.327500", "103007.817500", "103009.307500", "103010.797500", "103012.287500", "103013.777500", "103015.267500", "103016.757500", "103018.247500", "103019.737500", "103021.227500", "103022.717500", "103024.207500", "103025.697500", "103027.187500", "103028.677500", "103030.167500", "103031.657500", "103033.147500", "103034.637500", "103036.127500", "103037.617500", "103039.107500", "103040.597500", "103042.087500", "103043.577500", "103045.067500", "103046.557500", "103048.047500", "103049.537500", "103051.027500", "103052.517500", "103054.007500", "103055.497500", "103056.987500", "103058.477500", "103059.967500", "103101.457500", "103102.947500", "103104.437500", "103105.927500", "103107.417500", "103108.907500", "103110.397500", "103111.887500", "103113.377500", "103114.867500", "103116.357500", "103117.847500", "103119.337500", "103120.827500", "103122.317500", "103123.807500", "103125.297500", "103126.787500", "103128.277500", "103129.767500", "103131.257500", "103132.747500", "103134.237500", "103135.727500", "103137.217500", "103138.707500", "103140.197500", "103141.687500", "103143.177500", "103144.667500", "103146.157500", "103147.647500", "103149.137500", "103150.627500", "103152.117500", "103153.607500", "103155.097500", "103156.587500", "103158.077500", "103159.567500", "103201.057500", "103202.547500", "103204.037500", "103205.527500", "103207.017500", "103208.507500", "103209.997500", "103211.487500", "103212.977500", "103214.467500", "103215.957500", "103217.447500", "103218.937500", "103220.427500", "103221.917500", "103223.407500", "103224.897500", "103226.387500", "103227.877500", "103229.367500", "103230.857500", "103232.347500", "103233.837500", "103235.327500", "103236.817500", "103238.307500", "103239.797500", "103241.287500", "103242.777500", "103244.267500", "103245.757500", "103247.247500", "103248.737500", "103250.227500", "103251.717500", "103253.207500", "103254.697500", "103256.187500", "103257.677500", "103259.167500", "103300.657500", "103302.147500", "103303.637500", "103305.127500", "103306.617500", "103308.107500", "103309.597500", "103311.087500", "103312.577500", "103314.067500", "103315.557500", "103317.047500", "103318.537500", "103320.027500", "103321.517500", "103323.007500", "103324.497500", "103325.987500", "103327.477500", "103328.967500", "103330.457500", "103331.947500", "103333.437500", "103334.927500", "103336.417500", "103337.907500", "103339.397500", "103340.887500", "103342.377500", "103343.867500", "103345.357500", "103346.847500", "103348.337500", "103349.827500", "103351.317500", "103352.807500", "103354.297500", "103355.787500", "103357.277500", "103358.767500", "103400.257500", "103401.747500", "103403.237500", "103404.727500", "103406.217500", "103407.707500", "103409.197500", "103410.687500", "103412.177500", "103413.667500", "103415.157500", "103416.647500", "103418.137500", "103419.627500", "103421.117500", "103422.607500", "103424.097500"],
      "ContentTime": ["102428.533000", "102428.536000", "102428.539000", "102428.542000", "102428.545000", "102428.548000", "102428.551000", "102428.553000", "102428.556000", "102428.559000", "102428.562000", "102428.565000", "102428.568000", "102428.571000", "102428.574000", "102428.576000", "102428.579000", "102428.582000", "102428.585000", "102428.587000", "102448.498000", "102448.501000", "102448.504000", "102448.507000", "102448.510000", "102448.513000", "102448.516000", "102448.518000", "102448.521000", "102448.524000", "102448.527000", "102448.530000", "102448.532000", "102448.535000", "102448.538000", "102448.541000", "102448.544000", "102448.546000", "102448.549000", "102448.552000", "102448.555000", "102508.498000", "102508.501000", "102508.504000", "102508.506000", "102508.509000", "102508.512000", "102508.515000", "102508.518000", "102508.520000", "102508.523000", "102508.527000", "102508.530000", "102508.532000", "102508.535000", "102508.538000", "102508.541000", "102508.544000", "102508.547000", "102508.549000", "102508.552000", "102528.497000", "102528.500000", "102528.503000", "102528.505000", "102528.508000", "102528.511000", "102528.514000", "102528.517000", "102528.519000", "102528.522000", "102528.525000", "102528.528000", "102528.531000", "102528.534000", "102528.536000", "102528.539000", "102528.542000", "102528.545000", "102528.548000", "102528.550000", "102548.497000", "102548.500000", "102548.503000", "102548.506000", "102548.509000", "102548.512000", "102548.514000", "102548.517000", "102548.520000", "102548.523000", "102548.526000", "102548.529000", "102548.531000", "102548.534000", "102548.537000", "102548.540000", "102548.543000", "102548.546000", "102548.548000", "102548.551000", "102628.497000", "102628.500000", "102628.503000", "102628.506000", "102628.508000", "102628.511000", "102628.514000", "102628.517000", "102628.520000", "102628.522000", "102628.525000", "102628.528000", "102628.531000", "102628.534000", "102628.536000", "102628.543000", "102628.546000", "102628.549000", "102628.552000", "102628.554000", "102628.557000", "102628.560000", "102628.567000", "102628.570000", "102628.573000", "102628.576000", "102628.579000", "102628.582000", "102628.602000", "102628.605000", "102628.608000", "102708.498000", "102708.501000", "102708.504000", "102708.507000", "102708.509000", "102708.512000", "102708.515000", "102708.518000", "102708.521000", "102708.524000", "102708.527000", "102708.529000", "102708.532000", "102708.535000", "102708.538000", "102708.541000", "102708.544000", "102708.546000", "102708.549000", "102708.552000", "102708.555000", "102708.558000", "102708.561000", "102708.563000", "102708.566000", "102708.569000", "102708.572000", "102748.497000", "102748.500000", "102748.503000", "102748.506000", "102748.509000", "102748.512000", "102748.515000", "102748.518000", "102748.521000", "102748.524000", "102748.527000", "102748.530000", "102748.533000", "102748.536000", "102748.540000", "102748.542000", "102748.545000", "102748.548000", "102748.551000", "102748.554000", "102748.557000", "102748.559000", "102748.562000", "102748.565000", "102748.568000", "102748.571000", "102828.498000", "102828.501000", "102828.513000", "102828.515000", "102828.518000", "102828.521000", "102828.524000", "102828.527000", "102828.530000", "102828.533000", "102828.536000", "102828.539000", "102828.541000", "102828.544000", "102828.547000", "102828.550000", "102828.553000", "102828.556000", "102828.559000", "102828.561000", "102828.564000", "102828.567000", "102828.570000", "102828.573000", "102828.575000", "102828.578000", "102828.581000", "102908.497000", "102908.500000", "102908.503000", "102908.506000", "102908.509000", "102908.512000", "102908.515000", "102908.517000", "102908.520000", "102908.523000", "102908.526000", "102908.529000", "102908.532000", "102908.535000", "102908.538000", "102908.540000", "102908.543000", "102908.546000", "102908.549000", "102908.552000", "102908.555000", "102908.558000", "102908.561000", "102908.563000", "102908.566000", "102908.569000", "102908.572000", "102948.498000", "102948.501000", "102948.504000", "102948.507000", "102948.510000", "102948.513000", "102948.515000", "102948.518000", "102948.521000", "102948.524000", "102948.527000", "102948.530000", "102948.533000", "102948.536000", "102948.538000", "102948.541000", "102948.544000", "102948.547000", "102948.550000", "102948.553000", "102948.556000", "102948.559000", "102948.562000", "102948.565000", "102948.568000", "102948.571000", "102948.573000", "103028.497000", "103028.500000", "103028.503000", "103028.506000", "103028.509000", "103028.512000", "103028.514000", "103028.517000", "103028.520000", "103028.523000", "103028.526000", "103028.529000", "103028.532000", "103028.535000", "103028.538000", "103028.540000", "103028.543000", "103028.546000", "103028.549000", "103028.552000", "103028.554000", "103028.557000", "103028.560000", "103028.563000", "103028.566000", "103028.569000", "103028.572000", "103108.497000", "103108.500000", "103108.503000", "103108.506000", "103108.509000", "103108.511000", "103108.514000", "103108.517000", "103108.520000", "103108.523000", "103108.526000", "103108.528000", "103108.531000", "103108.534000", "103108.537000", "103108.540000", "103108.542000", "103108.545000", "103108.548000", "103108.551000", "103108.567000", "103108.570000", "103108.573000", "103108.576000", "103108.579000", "103108.582000", "103108.585000", "103148.498000", "103148.501000", "103148.504000", "103148.507000", "103148.509000", "103148.512000", "103148.515000", "103148.518000", "103148.521000", "103148.524000", "103148.527000", "103148.529000", "103148.532000", "103148.535000", "103148.538000", "103148.541000", "103148.544000", "103148.546000", "103148.549000", "103148.552000", "103148.555000", "103148.558000", "103148.561000", "103148.564000", "103148.566000", "103148.569000", "103148.572000", "103228.497000", "103228.500000", "103228.503000", "103228.507000", "103228.510000", "103228.513000", "103228.515000", "103228.518000", "103228.521000", "103228.524000", "103228.527000", "103228.530000", "103228.533000", "103228.535000", "103228.546000", "103228.549000", "103228.552000", "103228.554000", "103228.558000", "103228.561000", "103228.564000", "103228.566000", "103228.570000", "103228.572000", "103228.575000", "103228.578000", "103308.497000", "103308.500000", "103308.503000", "103308.506000", "103308.509000", "103308.511000", "103308.514000", "103308.517000", "103308.520000", "103308.523000", "103308.526000", "103308.528000", "103308.531000", "103308.534000", "103308.537000", "103308.540000", "103308.543000", "103308.546000", "103308.549000", "103308.551000", "103308.554000", "103308.557000", "103308.560000", "103308.563000", "103308.566000", "103308.569000", "103308.571000", "103348.497000", "103348.500000", "103348.503000", "103348.506000", "103348.509000", "103348.512000", "103348.515000", "103348.518000", "103348.520000", "103348.523000", "103348.526000", "103348.529000", "103348.532000", "103348.535000", "103348.538000", "103348.541000", "103348.544000", "103348.547000", "103348.550000", "103348.552000", "103348.555000", "103348.558000", "103348.561000", "103348.564000", "103348.567000", "103348.570000", "103348.573000", "103426.399000", "103426.402000", "103426.405000", "103426.408000", "103426.411000", "103426.414000", "103426.417000", "103426.419000", "103426.422000", "103426.425000", "103426.428000", "103426.431000", "103426.434000", "103426.437000", "103426.439000", "103426.442000", "103426.445000", "103426.448000", "103426.451000", "103426.454000", "103426.457000", "103426.459000", "103426.462000", "103426.465000", "103426.468000", "103426.471000"],
