{
  "AcquisitionMatrixPE": 104,
  "AcquisitionNumber": 1,
  "AcquisitionTime": "14:54:53.395000",
  "BandwidthPerPixelPhaseEncode": 17.17,
  "BaseResolution": 104,
  "BodyPartExamined": "BRAIN",
  "CoilString": "HC1-7;NC1_2",
  "ConsistencyInfo": "N4_VE11C_LATEST_20160120",
  "ConversionSoftware": "dcm2niix",
  "ConversionSoftwareVersion": "v1.0.20190720  (JP2:OpenJPEG) GCC7.3.0",
  "DerivedVendorReportedEchoSpacing": 0.000560011,
  "DeviceSerialNumber": "167006",
  "DwellTime": 2.1e-06,
  "EchoTime": 0.037,
  "EchoTrainLength": 104,
  "EffectiveEchoSpacing": 0.000560011,
  "FlipAngle": 52,
  "ImageComments": "Unaliased_MB4_PE3_LB",
  "ImageOrientationPatientDICOM": [0.998549, -0.0522423, 0.0130684, 0.0530308, 0.91171, -0.407397],
  "ImageType": [
    "ORIGINAL",
    "PRIMARY",
    "M",
    "MB",
    "ND",
    "MOSAIC"
],
  "ImagingFrequency": 123.259,
  "InPlanePhaseEncodingDirectionDICOM": "COL",
  "InstitutionAddress": "Chemin_Queen-Mary_4565_Montreal_District_CA_H3W_1W5",
  "InstitutionName": "IUGM",
  "InstitutionalDepartmentName": "Department",
  "MRAcquisitionType": "2D",
  "MagneticFieldStrength": 3,
  "Manufacturer": "Siemens",
  "ManufacturersModelName": "Prisma_fit",
  "Modality": "MR",
  "MultibandAccelerationFactor": 4,
  "PartialFourier": 1,
  "PatientPosition": "HFS",
  "PercentPhaseFOV": 100,
  "PhaseEncodingDirection": "j",
  "PhaseEncodingSteps": 104,
  "PhaseResolution": 1,
  "PixelBandwidth": 2290,
  "ProcedureStepDescription": "video_friends",
  "ProtocolName": "func_task-s02e13a",
  "PulseSequenceDetails": "%CustomerSeq%_cmrr_mbep2d_bold",
  "ReceiveCoilActiveElements": "HC1-7;NC1,2",
  "ReceiveCoilName": "HeadNeck_64",
  "ReconMatrixPE": 104,
  "RepetitionTime": 1.49,
  "SAR": 0.0253707,
  "ScanOptions": "FS",
  "ScanningSequence": "EP",
  "SequenceName": "epfid2d1_104",
  "SequenceVariant": "SK_SS",
  "SeriesDescription": "func_task-s02e13a",
  "SeriesNumber": 9,
  "ShimSetting": [637, -7240, -8883, 610, 16, -216, -139, -11],
  "SliceThickness": 2,
  "SliceTiming": [0, 0.7825, 0.0975, 0.88, 0.195, 0.98, 0.2925, 1.0775, 0.3925, 1.175, 0.49, 1.2725, 0.5875, 1.37, 0.685, 0, 0.7825, 0.0975, 0.88, 0.195, 0.98, 0.2925, 1.0775, 0.3925, 1.175, 0.49, 1.2725, 0.5875, 1.37, 0.685, 0, 0.7825, 0.0975, 0.88, 0.195, 0.98, 0.2925, 1.0775, 0.3925, 1.175, 0.49, 1.2725, 0.5875, 1.37, 0.685, 0, 0.7825, 0.0975, 0.88, 0.195, 0.98, 0.2925, 1.0775, 0.3925, 1.175, 0.49, 1.2725, 0.5875, 1.37, 0.685],
  "SoftwareVersions": "syngo_MR_E11",
  "SpacingBetweenSlices": 2,
  "StationName": "MRC35049",
  "TaskName": "friends",
  "TotalReadoutTime": 0.0576811,
  "TxRefAmp": 217.191,
  "WipMemBlock": "cea12364-135f-4b73-94d0-5a326c4453a8||Sequence: R016 ve11c/master r/e634e98; Dec 19 2017 11:00:25 by eja",
  "dcmmeta_affine": [
    [-1.9970978498458862, 0.10606154054403305, -0.018737580627202988, 96.83146667480469],
    [0.10448454320430756, 1.8234204053878784, -0.8149975538253784, -73.76055145263672],
    [0.02613670378923416, 0.8147938251495361, 1.8263154029846191, -87.84014892578125],
    [0.0, 0.0, 0.0, 1.0]
],
  "dcmmeta_reorient_transform": [
    [0.0, -1.0, 0.0, 103.0],
    [1.0, 0.0, 0.0, 0.0],
    [0.0, 0.0, 1.0, 0.0],
    [0.0, 0.0, 0.0, 1.0]
],
  "dcmmeta_shape": [104, 104, 60, 488],
  "dcmmeta_slice_dim": 2,
  "dcmmeta_version": 0.6,
  "global": {
    "const": {
      "AcquisitionMatrix": [104, 0, 0, 104],
      "AngioFlag": "N",
      "BitsAllocated": 16,
      "BitsStored": 16,
      "BodyPartExamined": "BRAIN",
      "Columns": 832,
      "EchoNumbers": 1,
      "EchoTime": 37.0,
      "EchoTrainLength": 104,
      "FlipAngle": 52.0,
      "HighBit": 15,
      "ImageOrientationPatient": [0.99854892884534, -0.0522422710408, 0.01306835178294, 0.05303076903374, 0.91171019984502, -0.4073969182925],
      "ImagePositionPatient": [-873.30582353274, -739.74440432005, 283.15481551712],
      "ImageType": [
        "ORIGINAL",
        "PRIMARY",
        "M",
        "MB",
        "ND",
        "MOSAIC"
],
      "ImagedNucleus": "1H",
      "ImagingFrequency": 123.259151,
      "InPlanePhaseEncodingDirection": "COL",
      "MRAcquisitionType": "2D",
      "MagneticFieldStrength": 3.0,
      "Manufacturer": "SIEMENS",
      "ManufacturerModelName": "Prisma_fit",
      "Modality": "MR",
      "NumberOfAverages": 1.0,
      "NumberOfPhaseEncodingSteps": 104,
      "PercentPhaseFieldOfView": 100.0,
      "PercentSampling": 100.0,
      "PerformedProcedureStepStartTime": "145021.424000",
      "PhotometricInterpretation": "MONOCHROME2",
      "PixelBandwidth": 2290.0,
      "PixelRepresentation": 0,
      "PixelSpacing": [2.0, 2.0],
      "ProtocolName": "func_task-s02e13a",
      "RepetitionTime": 1490.0,
      "Rows": 832,
      "SAR": 0.02537070188518,
      "SamplesPerPixel": 1,
      "ScanOptions": "FS",
      "ScanningSequence": "EP",
      "SequenceName": "epfid2d1_104",
      "SequenceVariant": [
        "SK",
        "SS"
],
      "SeriesDescription": "func_task-s02e13a",
      "SeriesNumber": 9,
      "SeriesTime": "145619.341000",
      "SliceLocation": -51.06176488847,
      "SliceThickness": 2.0,
      "SmallestImagePixelValue": 0,
      "SoftwareVersions": "syngo MR E11",
      "SpacingBetweenSlices": 2.0000000122311,
      "SpecificCharacterSet": "ISO_IR 100",
      "StudyID": "1",
      "StudyTime": "145021.341000",
      "TransmitCoilName": "Body",
      "VariableFlipAngleFlag": "N",
      "WindowCenterWidthExplanation": "Algo1",
      "dBdt": 0.0},
    "slices": {}
  },
  "time": {
    "samples": {
      "AcquisitionNumber": [1, 2, 3, 4, 5, 6, 7, 8, 9, 10, 11, 12, 13, 14, 15, 16, 17, 18, 19, 20, 21, 22, 23, 24, 25, 26, 27, 28, 29, 30, 31, 32, 33, 34, 35, 36, 37, 38, 39, 40, 41, 42, 43, 44, 45, 46, 47, 48, 49, 50, 51, 52, 53, 54, 55, 56, 57, 58, 59, 60, 61, 62, 63, 64, 65, 66, 67, 68, 69, 70, 71, 72, 73, 74, 75, 76, 77, 78, 79, 80, 81, 82, 83, 84, 85, 86, 87, 88, 89, 90, 91, 92, 93, 94, 95, 96, 97, 98, 99, 100, 101, 102, 103, 104, 105, 106, 107, 108, 109, 110, 111, 112, 113, 114, 115, 116, 117, 118, 119, 120, 121, 122, 123, 124, 125, 126, 127, 128, 129, 130, 131, 132, 133, 134, 135, 136, 137, 138, 139, 140, 141, 142, 143, 144, 145, 146, 147, 148, 149, 150, 151, 152, 153, 154, 155, 156, 157, 158, 159, 160, 161, 162, 163, 164, 165, 166, 167, 168, 169, 170, 171, 172, 173, 174, 175, 176, 177, 178, 179, 180, 181, 182, 183, 184, 185, 186, 187, 188, 189, 190, 191, 192, 193, 194, 195, 196, 197, 198, 199, 200, 201, 202, 203, 204, 205, 206, 207, 208, 209, 210, 211, 212, 213, 214, 215, 216, 217, 218, 219, 220, 221, 222, 223, 224, 225, 226, 227, 228, 229, 230, 231, 232, 233, 234, 235, 236, 237, 238, 239, 240, 241, 242, 243, 244, 245, 246, 247, 248, 249, 250, 251, 252, 253, 254, 255, 256, 257, 258, 259, 260, 261, 262, 263, 264, 265, 266, 267, 268, 269, 270, 271, 272, 273, 274, 275, 276, 277, 278, 279, 280, 281, 282, 283, 284, 285, 286, 287, 288, 289, 290, 291, 292, 293, 294, 295, 296, 297, 298, 299, 300, 301, 302, 303, 304, 305, 306, 307, 308, 309, 310, 311, 312, 313, 314, 315, 316, 317, 318, 319, 320, 321, 322, 323, 324, 325, 326, 327, 328, 329, 330, 331, 332, 333, 334, 335, 336, 337, 338, 339, 340, 341, 342, 343, 344, 345, 346, 347, 348, 349, 350, 351, 352, 353, 354, 355, 356, 357, 358, 359, 360, 361, 362, 363, 364, 365, 366, 367, 368, 369, 370, 371, 372, 373, 374, 375, 376, 377, 378, 379, 380, 381, 382, 383, 384, 385, 386, 387, 388, 389, 390, 391, 392, 393, 394, 395, 396, 397, 398, 399, 400, 401, 402, 403, 404, 405, 406, 407, 408, 409, 410, 411, 412, 413, 414, 415, 416, 417, 418, 419, 420, 421, 422, 423, 424, 425, 426, 427, 428, 429, 430, 431, 432, 433, 434, 435, 436, 437, 438, 439, 440, 441, 442, 443, 444, 445, 446, 447, 448, 449, 450, 451, 452, 453, 454, 455, 456, 457, 458, 459, 460, 461, 462, 463, 464, 465, 466, 467, 468, 469, 470, 471, 472, 473, 474, 475, 476, 477, 478, 479, 480, 481, 482, 483, 484, 485, 486, 487, 488],
      "AcquisitionTime": ["145453.395000", "145454.885000", "145456.375000", "145457.865000", "145459.355000", "145500.845000", "145502.335000", "145503.825000", "145505.315000", "145506.805000", "145508.295000", "145509.785000", "145511.275000", "145512.765000", "145514.255000", "145515.745000", "145517.235000", "145518.725000", "145520.215000", "145521.705000", "145523.195000", "145524.685000", "145526.175000", "145527.665000", "145529.155000", "145530.645000", "145532.135000", "145533.625000", "145535.115000", "145536.605000", "145538.095000", "145539.585000", "145541.075000", "145542.565000", "145544.055000", "145545.545000", "145547.035000", "145548.525000", "145550.015000", "145551.505000", "145552.995000", "145554.485000", "145555.975000", "145557.465000", "145558.955000", "145600.445000", "145601.935000", "145603.425000", "145604.915000", "145606.405000", "145607.895000", "145609.385000", "145610.875000", "145612.365000", "145613.855000", "145615.345000", "145616.835000", "145618.325000", "145619.815000", "145621.305000", "145622.795000", "145624.285000", "145625.775000", "145627.265000", "145628.755000", "145630.245000", "145631.735000", "145633.225000", "145634.715000", "145636.205000", "145637.695000", "145639.185000", "145640.675000", "145642.165000", "145643.655000", "145645.145000", "145646.635000", "145648.125000", "145649.615000", "145651.105000", "145652.595000", "145654.085000", "145655.575000", "145657.065000", "145658.555000", "145700.045000", "145701.535000", "145703.025000", "145704.515000", "145706.005000", "145707.495000", "145708.985000", "145710.475000", "145711.965000", "145713.455000", "145714.945000", "145716.435000", "145717.925000", "145719.415000", "145720.905000", "145722.395000", "145723.885000", "145725.375000", "145726.865000", "145728.355000", "145729.845000", "145731.335000", "145732.825000", "145734.315000", "145735.805000", "145737.295000", "145738.785000", "145740.275000", "145741.765000", "145743.255000", "145744.745000", "145746.235000", "145747.725000", "145749.215000", "145750.705000", "145752.195000", "145753.685000", "145755.175000", "145756.665000", "145758.155000", "145759.645000", "145801.135000", "145802.625000", "145804.115000", "145805.605000", "145807.095000", "145808.585000", "145810.075000", "145811.565000", "145813.055000", "145814.545000", "145816.035000", "145817.525000", "145819.015000", "145820.505000", "145821.995000", "145823.485000", "145824.975000", "145826.465000", "145827.955000", "145829.445000", "145830.935000", "145832.425000", "145833.915000", "145835.405000", "145836.895000", "145838.385000", "145839.875000", "145841.365000", "145842.855000", "145844.345000", "145845.835000", "145847.325000", "145848.815000", "145850.305000", "145851.795000", "145853.285000", "145854.775000", "145856.265000", "145857.755000", "145859.245000", "145900.735000", "145902.225000", "145903.715000", "145905.205000", "145906.695000", "145908.185000", "145909.675000", "145911.165000", "145912.655000", "145914.145000", "145915.635000", "145917.125000", "145918.615000", "145920.105000", "145921.595000", "145923.085000", "145924.575000", "145926.065000", "145927.555000", "145929.045000", "145930.535000", "145932.025000", "145933.515000", "145935.005000", "145936.495000", "145937.985000", "145939.475000", "145940.965000", "145942.455000", "145943.945000", "145945.435000", "145946.925000", "145948.415000", "145949.905000", "145951.395000", "145952.885000", "145954.375000", "145955.865000", "145957.355000", "145958.845000", "150000.335000", "150001.825000", "150003.315000", "150004.805000", "150006.295000", "150007.785000", "150009.275000", "150010.765000", "150012.255000", "150013.745000", "150015.235000", "150016.725000", "150018.215000", "150019.705000", "150021.195000", "150022.685000", "150024.175000", "150025.665000", "150027.155000", "150028.645000", "150030.135000", "150031.625000", "150033.115000", "150034.605000", "150036.095000", "150037.585000", "150039.075000", "150040.565000", "150042.055000", "150043.545000", "150045.035000", "150046.525000", "150048.015000", "150049.505000", "150050.995000", "150052.485000", "150053.975000", "150055.465000", "150056.955000", "150058.445000", "150059.935000", "150101.425000", "150102.915000", "150104.405000", "150105.895000", "150107.385000", "150108.875000", "150110.365000", "150111.855000", "150113.345000", "150114.835000", "150116.325000", "150117.815000", "150119.305000", "150120.795000", "150122.285000", "150123.775000", "150125.265000", "150126.755000", "150128.245000", "150129.735000", "150131.225000", "150132.715000", "150134.205000", "150135.695000", "150137.185000", "150138.675000", "150140.165000", "150141.655000", "150143.145000", "150144.635000", "150146.125000", "150147.615000", "150149.105000", "150150.595000", "150152.085000", "150153.575000", "150155.065000", "150156.555000", "150158.045000", "150159.535000", "150201.025000", "150202.515000", "150204.005000", "150205.495000", "150206.985000", "150208.475000", "150209.965000", "150211.455000", "150212.945000", "150214.435000", "150215.925000", "150217.415000", "150218.905000", "150220.395000", "150221.885000", "150223.375000", "150224.865000", "150226.355000", "150227.845000", "150229.335000", "150230.825000", "150232.315000", "150233.805000", "150235.295000", "150236.785000", "150238.275000", "150239.765000", "150241.255000", "150242.745000", "150244.235000", "150245.725000", "150247.215000", "150248.705000", "150250.195000", "150251.685000", "150253.175000", "150254.665000", "150256.155000", "150257.645000", "150259.135000", "150300.625000", "150302.115000", "150303.605000", "150305.095000", "150306.585000", "150308.075000", "150309.565000", "150311.055000", "150312.545000", "150314.035000", "150315.525000", "150317.015000", "150318.505000", "150319.995000", "150321.485000", "150322.975000", "150324.465000", "150325.955000", "150327.445000", "150328.935000", "150330.425000", "150331.915000", "150333.405000", "150334.895000", "150336.385000", "150337.875000", "150339.365000", "150340.855000", "150342.345000", "150343.835000", "150345.325000", "150346.815000", "150348.305000", "150349.795000", "150351.285000", "150352.775000", "150354.265000", "150355.755000", "150357.245000", "150358.735000", "150400.225000", "150401.715000", "150403.205000", "150404.695000", "150406.185000", "150407.675000", "150409.165000", "150410.655000", "150412.145000", "150413.635000", "150415.125000", "150416.615000", "150418.105000", "150419.595000", "150421.085000", "150422.575000", "150424.065000", "150425.555000", "150427.045000", "150428.535000", "150430.025000", "150431.515000", "150433.005000", "150434.495000", "150435.985000", "150437.475000", "150438.965000", "150440.455000", "150441.945000", "150443.435000", "150444.925000", "150446.415000", "150447.905000", "150449.395000", "150450.885000", "150452.375000", "150453.865000", "150455.355000", "150456.845000", "150458.335000", "150459.825000", "150501.315000", "150502.805000", "150504.295000", "150505.785000", "150507.275000", "150508.765000", "150510.255000", "150511.745000", "150513.235000", "150514.725000", "150516.215000", "150517.705000", "150519.195000", "150520.685000", "150522.175000", "150523.665000", "150525.155000", "150526.645000", "150528.135000", "150529.625000", "150531.115000", "150532.605000", "150534.095000", "150535.585000", "150537.075000", "150538.565000", "150540.055000", "150541.545000", "150543.035000", "150544.525000", "150546.015000", "150547.505000", "150548.995000", "150550.485000", "150551.975000", "150553.465000", "150554.955000", "150556.445000", "150557.935000", "150559.425000", "150600.915000", "150602.405000", "150603.895000", "150605.385000", "150606.875000", "150608.365000", "150609.855000", "150611.345000", "150612.835000", "150614.325000", "150615.815000", "150617.305000", "150618.795000", "150620.285000", "150621.775000", "150623.265000", "150624.755000", "150626.245000", "150627.735000", "150629.225000", "150630.715000", "150632.205000", "150633.695000", "150635.185000", "150636.675000", "150638.165000", "150639.655000", "150641.145000", "150642.635000", "150644.125000", "150645.615000", "150647.105000", "150648.595000", "150650.085000", "150651.575000", "150653.065000", "150654.555000", "150656.045000", "150657.535000", "150659.025000"],
      "ContentTime": ["145619.344000", "145619.347000", "145619.350000", "145619.359000", "145619.362000", "145619.365000", "145619.368000", "145619.371000", "145619.373000", "145619.376000", "145619.379000", "145619.382000", "145619.385000", "145619.387000", "145619.390000", "145619.393000", "145619.396000", "145619.399000", "145619.401000", "145619.404000", "145619.407000", "145619.410000", "145619.412000", "145619.415000", "145619.419000", "145619.422000", "145619.425000", "145619.427000", "145619.430000", "145619.433000", "145619.436000", "145619.439000", "145639.307000", "145639.310000", "145639.313000", "145639.316000", "145639.318000", "145639.321000", "145639.324000", "145639.327000", "145639.337000", "145639.340000", "145639.343000", "145639.346000", "145639.348000", "145639.351000", "145639.354000", "145639.357000", "145639.360000", "145639.362000", "145639.365000", "145639.368000", "145659.307000", "145659.314000", "145659.317000", "145659.320000", "145659.323000", "145659.326000", "145659.328000", "145659.331000", "145659.334000", "145659.337000", "145659.340000", "145659.342000", "145659.345000", "145659.348000", "145659.351000", "145659.353000", "145659.365000", "145659.367000", "145659.370000", "145659.373000", "145719.308000", "145719.311000", "145719.313000", "145719.317000", "145719.319000", "145719.331000", "145719.334000", "145719.337000", "145719.340000", "145719.343000", "145719.345000", "145719.348000", "145719.351000", "145719.354000", "145719.356000", "145719.359000", "145719.362000", "145719.365000", "145719.367000", "145719.370000", "145759.308000", "145759.311000", "145759.314000", "145759.316000", "145759.319000", "145759.322000", "145759.325000", "145759.327000", "145759.330000", "145759.333000", "145759.336000", "145759.339000", "145759.341000", "145759.344000", "145759.347000", "145759.350000", "145759.353000", "145759.355000", "145759.364000", "145759.366000", "145759.369000", "145759.376000", "145759.379000", "145759.382000", "145759.385000", "145759.388000", "145759.391000", "145759.393000", "145759.396000", "145759.399000", "145759.402000", "145759.405000", "145839.307000", "145839.310000", "145839.313000", "145839.315000", "145839.318000", "145839.321000", "145839.324000", "145839.327000", "145839.329000", "145839.332000", "145839.335000", "145839.338000", "145839.341000", "145839.344000", "145839.346000", "145839.349000", "145839.352000", "145839.355000", "145839.357000", "145839.360000", "145839.363000", "145839.366000", "145839.369000", "145839.371000", "145839.374000", "145839.377000", "145839.380000", "145919.307000", "145919.310000", "145919.313000", "145919.316000", "145919.318000", "145919.321000", "145919.324000", "145919.327000", "145919.329000", "145919.332000", "145919.335000", "145919.338000", "145919.341000", "145919.344000", "145919.346000", "145919.349000", "145919.352000", "145919.355000", "145919.357000", "145919.367000", "145919.370000", "145919.373000", "145919.392000", "145919.395000", "145919.398000", "145919.400000", "145919.403000", "145959.308000", "145959.311000", "145959.314000", "145959.317000", "145959.320000", "145959.323000", "145959.326000", "145959.329000", "145959.332000", "145959.335000", "145959.338000", "145959.341000", "145959.344000", "145959.347000", "145959.350000", "145959.352000", "145959.355000", "145959.358000", "145959.361000", "145959.364000", "145959.367000", "145959.370000", "145959.373000", "145959.375000", "145959.378000", "145959.381000", "150039.308000", "150039.311000", "150039.314000", "150039.317000", "150039.320000", "150039.323000", "150039.325000", "150039.328000", "150039.331000", "150039.334000", "150039.338000", "150039.340000", "150039.343000", "150039.346000", "150039.349000", "150039.352000", "150039.355000", "150039.358000", "150039.361000", "150039.363000", "150039.366000", "150039.369000", "150039.372000", "150039.375000", "150039.378000", "150039.381000", "150039.384000", "150119.307000", "150119.310000", "150119.313000", "150119.316000", "150119.318000", "150119.321000", "150119.324000", "150119.327000", "150119.331000", "150119.334000", "150119.337000", "150119.340000", "150119.342000", "150119.345000", "150119.348000", "150119.351000", "150119.354000", "150119.356000", "150119.359000", "150119.362000", "150119.365000", "150119.368000", "150119.371000", "150119.374000", "150119.377000", "150119.379000", "150119.382000", "150159.308000", "150159.312000", "150159.315000", "150159.318000", "150159.321000", "150159.324000", "150159.327000", "150159.329000", "150159.332000", "150159.335000", "150159.338000", "150159.341000", "150159.344000", "150159.347000", "150159.350000", "150159.352000", "150159.355000", "150159.358000", "150159.361000", "150159.363000", "150159.366000", "150159.369000", "150159.372000", "150159.375000", "150159.377000", "150159.380000", "150159.391000", "150239.308000", "150239.311000", "150239.314000", "150239.316000", "150239.319000", "150239.322000", "150239.325000", "150239.328000", "150239.330000", "150239.333000", "150239.336000", "150239.339000", "150239.342000", "150239.345000", "150239.347000", "150239.350000", "150239.353000", "150239.356000", "150239.359000", "150239.362000", "150239.364000", "150239.367000", "150239.370000", "150239.373000", "150239.376000", "150239.378000", "150239.390000", "150319.307000", "150319.310000", "150319.313000", "150319.316000", "150319.318000", "150319.321000", "150319.324000", "150319.327000", "150319.330000", "150319.332000", "150319.335000", "150319.338000", "150319.341000", "150319.344000", "150319.347000", "150319.349000", "150319.352000", "150319.355000", "150319.358000", "150319.361000", "150319.364000", "150319.366000", "150319.369000", "150319.372000", "150319.382000", "150319.385000", "150319.388000", "150359.307000", "150359.310000", "150359.313000", "150359.315000", "150359.318000", "150359.321000", "150359.324000", "150359.327000", "150359.329000", "150359.332000", "150359.335000", "150359.338000", "150359.341000", "150359.343000", "150359.346000", "150359.349000", "150359.352000", "150359.355000", "150359.357000", "150359.360000", "150359.363000", "150359.366000", "150359.368000", "150359.383000", "150359.386000", "150359.388000", "150359.391000", "150439.308000", "150439.311000", "150439.314000", "150439.317000", "150439.319000", "150439.322000", "150439.325000", "150439.328000", "150439.331000", "150439.334000", "150439.337000", "150439.340000", "150439.342000", "150439.345000", "150439.348000", "150439.351000", "150439.354000", "150439.357000", "150439.359000", "150439.362000", "150439.365000", "150439.368000", "150439.371000", "150439.374000", "150439.376000", "150439.379000", "150519.308000", "150519.311000", "150519.314000", "150519.317000", "150519.320000", "150519.322000", "150519.325000", "150519.328000", "150519.331000", "150519.334000", "150519.337000", "150519.340000", "150519.342000", "150519.345000", "150519.348000", "150519.351000", "150519.354000", "150519.357000", "150519.360000", "150519.362000", "150519.365000", "150519.368000", "150519.371000", "150519.374000", "150519.377000", "150519.380000", "150519.382000", "150559.307000", "150559.310000", "150559.313000", "150559.316000", "150559.319000", "150559.322000", "150559.325000", "150559.327000", "150559.330000", "150559.333000", "150559.336000", "150559.339000", "150559.342000", "150559.344000", "150559.347000", "150559.350000", "150559.353000", "150559.356000", "150559.359000", "150559.361000", "150559.364000", "150559.367000", "150559.370000", "150559.373000", "150559.376000", "150559.379000", "150559.381000", "150639.308000", "150639.311000", "150639.314000", "150639.316000", "150639.319000", "150639.322000", "150639.325000", "150639.328000", "150639.331000", "150639.334000", "150639.337000", "150639.340000", "150639.342000", "150639.355000", "150639.358000", "150639.361000", "150639.364000", "150639.366000", "150639.369000", "150639.372000", "150639.375000", "150639.378000", "150639.380000", "150639.383000", "150639.386000", "150639.389000", "150639.392000", "150701.031000", "150701.035000", "150701.042000", "150701.045000", "150701.048000", "150701.051000", "150701.054000", "150701.057000", "150701.060000", "150701.063000", "150701.066000", "150701.069000", "150701.072000", "150701.074000", "150701.077000"],
