{
  "AcquisitionMatrixPE": 104,
  "AcquisitionNumber": 1,
  "AcquisitionTime": "16:31:24.055000",
  "BandwidthPerPixelPhaseEncode": 17.17,
  "BaseResolution": 104,
  "BodyPartExamined": "BRAIN",
  "CoilCombinationMethod": "Sum of Squares",
  "ConsistencyInfo": "N4_VE11C_LATEST_20160120",
  "ConversionSoftware": "dcm2niix",
  "ConversionSoftwareVersion": "v1.0.20211006",
  "DerivedVendorReportedEchoSpacing": 0.000560011,
  "DeviceSerialNumber": "167006",
  "DwellTime": 2.1e-06,
  "EchoTime": 0.037,
  "EchoTrainLength": 104,
  "EffectiveEchoSpacing": 0.000560011,
  "FlipAngle": 52,
  "HeudiconvVersion": "0.11.3.post9+gc939bf8",
  "ImageComments": "Unaliased MB4/PE3/LB",
  "ImageOrientationPatientDICOM": [0.999038, -0.0402486, -0.0173989, 0.0326178, 0.94734, -0.318564],
  "ImageOrientationText": "Tra>Cor(-18.5)>Sag(-1.7)",
  "ImageType": [
    "ORIGINAL",
    "PRIMARY",
    "M",
    "MB",
    "ND",
    "MOSAIC"
],
  "ImagingFrequency": 123.259,
  "InPlanePhaseEncodingDirectionDICOM": "COL",
  "InstitutionAddress": "Chemin Queen-Mary 4565,Montreal,District,CA,H3W 1W5",
  "InstitutionName": "IUGM",
  "InstitutionalDepartmentName": "Department",
  "MRAcquisitionType": "2D",
  "MagneticFieldStrength": 3,
  "Manufacturer": "Siemens",
  "ManufacturersModelName": "Prisma_fit",
  "MatrixCoilMode": "SENSE",
  "Modality": "MR",
  "MultibandAccelerationFactor": 4,
  "PartialFourier": 1,
  "PatientPosition": "HFS",
  "PercentPhaseFOV": 100,
  "PercentSampling": 100,
  "PhaseEncodingDirection": "j",
  "PhaseEncodingSteps": 104,
  "PhaseResolution": 1,
  "PixelBandwidth": 2290,
  "ProcedureStepDescription": "video^friends",
  "ProtocolName": "func_task-friends-s06e23b",
  "PulseSequenceDetails": "%CustomerSeq%\\cmrr_mbep2d_bold",
  "ReceiveCoilActiveElements": "HC1-7;NC1,2",
  "ReceiveCoilName": "HeadNeck_64",
  "ReconMatrixPE": 104,
  "RepetitionTime": 1.49,
  "SAR": 0.0474682,
  "ScanOptions": "FS",
  "ScanningSequence": "EP",
  "SequenceName": "epfid2d1_104",
  "SequenceVariant": "SK\\SS",
  "SeriesDescription": "func_task-friends-s06e23b",
  "SeriesNumber": 12,
  "ShimSetting": [621, -7262, -8825, 557, 17, -239, -67, -35],
  "SliceThickness": 2,
  "SliceTiming": [0, 0.785, 0.0975, 0.8825, 0.195, 0.98, 0.295, 1.0775, 0.3925, 1.175, 0.49, 1.275, 0.5875, 1.3725, 0.685, 0, 0.785, 0.0975, 0.8825, 0.195, 0.98, 0.295, 1.0775, 0.3925, 1.175, 0.49, 1.275, 0.5875, 1.3725, 0.685, 0, 0.785, 0.0975, 0.8825, 0.195, 0.98, 0.295, 1.0775, 0.3925, 1.175, 0.49, 1.275, 0.5875, 1.3725, 0.685, 0, 0.785, 0.0975, 0.8825, 0.195, 0.98, 0.295, 1.0775, 0.3925, 1.175, 0.49, 1.275, 0.5875, 1.3725, 0.685],
  "SoftwareVersions": "syngo MR E11",
  "SpacingBetweenSlices": 2,
  "StationName": "MRC35049",
  "TaskName": "s06e23b",
  "TotalReadoutTime": 0.0576811,
  "TxRefAmp": 250.722,
  "WipMemBlock": "2cb28f6d-7a88-4eaa-9bd7-896e2e21cc7a||Sequence: R016 ve11c/master r/e634e98; Dec 19 2017 11:00:25 by eja",
  "dcmmeta_affine": [
    [-1.9980764389038086, 0.06523565202951431, -0.058608755469322205, 100.70697784423828],
    [0.08049717545509338, 1.894680142402649, -0.6353796124458313, -79.43260192871094],
    [-0.03479772061109543, 0.6371274590492249, 1.8954834938049316, -64.58163452148438],
    [0.0, 0.0, 0.0, 1.0]
],
  "dcmmeta_reorient_transform": [
    [0.0, -1.0, 0.0, 103.0],
    [1.0, 0.0, 0.0, 0.0],
    [0.0, 0.0, 1.0, 0.0],
    [0.0, 0.0, 0.0, 1.0]
],
  "dcmmeta_shape": [104, 104, 60, 520],
  "dcmmeta_slice_dim": 2,
  "dcmmeta_version": 0.6,
  "global": {
    "const": {
      "AcquisitionMatrix": [104, 0, 0, 104],
      "AngioFlag": "N",
      "BitsAllocated": 16,
      "BitsStored": 16,
      "BodyPartExamined": "BRAIN",
      "Columns": 832,
      "EchoNumbers": 1,
      "EchoTime": 37.0,
      "EchoTrainLength": 104,
      "FlipAngle": 52.0,
      "HighBit": 15,
      "ImageOrientationPatient": [0.99903820287576, -0.0402485885259, -0.0173988596305, 0.03261782754543, 0.94734008394141, -0.3185637184051],
      "ImagePositionPatient": [-858.47183675978, -776.08206693476, 245.62325140028],
      "ImageType": [
        "ORIGINAL",
        "PRIMARY",
        "M",
        "MB",
        "ND",
        "MOSAIC"
],
      "ImagedNucleus": "1H",
      "ImagingFrequency": 123.259059,
      "InPlanePhaseEncodingDirection": "COL",
      "MRAcquisitionType": "2D",
      "MagneticFieldStrength": 3.0,
      "Manufacturer": "SIEMENS",
      "ManufacturerModelName": "Prisma_fit",
      "Modality": "MR",
      "NumberOfAverages": 1.0,
      "NumberOfPhaseEncodingSteps": 104,
      "PercentPhaseFieldOfView": 100.0,
      "PercentSampling": 100.0,
      "PerformedProcedureStepStartTime": "161349.916000",
      "PhotometricInterpretation": "MONOCHROME2",
      "PixelBandwidth": 2290.0,
      "PixelRepresentation": 0,
      "PixelSpacing": [2.0, 2.0],
      "ProtocolName": "func_task-friends-s06e23b",
      "RepetitionTime": 1490.0,
      "Rows": 832,
      "SAR": 0.0474681619695,
      "SamplesPerPixel": 1,
      "ScanOptions": "FS",
      "ScanningSequence": "EP",
      "SequenceName": "epfid2d1_104",
      "SequenceVariant": [
        "SK",
        "SS"
],
      "SeriesDescription": "func_task-friends-s06e23b",
      "SeriesNumber": 12,
      "SeriesTime": "163249.133000",
      "SliceLocation": -38.922936506392,
      "SliceThickness": 2.0,
      "SmallestImagePixelValue": 0,
      "SoftwareVersions": "syngo MR E11",
      "SpacingBetweenSlices": 2.0000000013848,
      "SpecificCharacterSet": "ISO_IR 100",
      "StudyID": "1",
      "StudyTime": "161349.840000",
      "TransmitCoilName": "Body",
      "VariableFlipAngleFlag": "N",
      "WindowCenterWidthExplanation": "Algo1",
      "dBdt": 0.0},
    "slices": {}
  },
  "time": {
    "samples": {
      "AcquisitionNumber": [1, 2, 3, 4, 5, 6, 7, 8, 9, 10, 11, 12, 13, 14, 15, 16, 17, 18, 19, 20, 21, 22, 23, 24, 25, 26, 27, 28, 29, 30, 31, 32, 33, 34, 35, 36, 37, 38, 39, 40, 41, 42, 43, 44, 45, 46, 47, 48, 49, 50, 51, 52, 53, 54, 55, 56, 57, 58, 59, 60, 61, 62, 63, 64, 65, 66, 67, 68, 69, 70, 71, 72, 73, 74, 75, 76, 77, 78, 79, 80, 81, 82, 83, 84, 85, 86, 87, 88, 89, 90, 91, 92, 93, 94, 95, 96, 97, 98, 99, 100, 101, 102, 103, 104, 105, 106, 107, 108, 109, 110, 111, 112, 113, 114, 115, 116, 117, 118, 119, 120, 121, 122, 123, 124, 125, 126, 127, 128, 129, 130, 131, 132, 133, 134, 135, 136, 137, 138, 139, 140, 141, 142, 143, 144, 145, 146, 147, 148, 149, 150, 151, 152, 153, 154, 155, 156, 157, 158, 159, 160, 161, 162, 163, 164, 165, 166, 167, 168, 169, 170, 171, 172, 173, 174, 175, 176, 177, 178, 179, 180, 181, 182, 183, 184, 185, 186, 187, 188, 189, 190, 191, 192, 193, 194, 195, 196, 197, 198, 199, 200, 201, 202, 203, 204, 205, 206, 207, 208, 209, 210, 211, 212, 213, 214, 215, 216, 217, 218, 219, 220, 221, 222, 223, 224, 225, 226, 227, 228, 229, 230, 231, 232, 233, 234, 235, 236, 237, 238, 239, 240, 241, 242, 243, 244, 245, 246, 247, 248, 249, 250, 251, 252, 253, 254, 255, 256, 257, 258, 259, 260, 261, 262, 263, 264, 265, 266, 267, 268, 269, 270, 271, 272, 273, 274, 275, 276, 277, 278, 279, 280, 281, 282, 283, 284, 285, 286, 287, 288, 289, 290, 291, 292, 293, 294, 295, 296, 297, 298, 299, 300, 301, 302, 303, 304, 305, 306, 307, 308, 309, 310, 311, 312, 313, 314, 315, 316, 317, 318, 319, 320, 321, 322, 323, 324, 325, 326, 327, 328, 329, 330, 331, 332, 333, 334, 335, 336, 337, 338, 339, 340, 341, 342, 343, 344, 345, 346, 347, 348, 349, 350, 351, 352, 353, 354, 355, 356, 357, 358, 359, 360, 361, 362, 363, 364, 365, 366, 367, 368, 369, 370, 371, 372, 373, 374, 375, 376, 377, 378, 379, 380, 381, 382, 383, 384, 385, 386, 387, 388, 389, 390, 391, 392, 393, 394, 395, 396, 397, 398, 399, 400, 401, 402, 403, 404, 405, 406, 407, 408, 409, 410, 411, 412, 413, 414, 415, 416, 417, 418, 419, 420, 421, 422, 423, 424, 425, 426, 427, 428, 429, 430, 431, 432, 433, 434, 435, 436, 437, 438, 439, 440, 441, 442, 443, 444, 445, 446, 447, 448, 449, 450, 451, 452, 453, 454, 455, 456, 457, 458, 459, 460, 461, 462, 463, 464, 465, 466, 467, 468, 469, 470, 471, 472, 473, 474, 475, 476, 477, 478, 479, 480, 481, 482, 483, 484, 485, 486, 487, 488, 489, 490, 491, 492, 493, 494, 495, 496, 497, 498, 499, 500, 501, 502, 503, 504, 505, 506, 507, 508, 509, 510, 511, 512, 513, 514, 515, 516, 517, 518, 519, 520],
      "AcquisitionTime": ["163124.055000", "163125.545000", "163127.035000", "163128.525000", "163130.015000", "163131.505000", "163132.995000", "163134.485000", "163135.975000", "163137.465000", "163138.955000", "163140.445000", "163141.935000", "163143.425000", "163144.915000", "163146.405000", "163147.895000", "163149.385000", "163150.875000", "163152.365000", "163153.855000", "163155.345000", "163156.835000", "163158.325000", "163159.815000", "163201.305000", "163202.795000", "163204.285000", "163205.775000", "163207.265000", "163208.755000", "163210.245000", "163211.735000", "163213.225000", "163214.715000", "163216.205000", "163217.695000", "163219.185000", "163220.675000", "163222.165000", "163223.655000", "163225.145000", "163226.635000", "163228.125000", "163229.615000", "163231.105000", "163232.595000", "163234.085000", "163235.575000", "163237.065000", "163238.555000", "163240.045000", "163241.535000", "163243.025000", "163244.515000", "163246.005000", "163247.495000", "163248.985000", "163250.475000", "163251.965000", "163253.455000", "163254.945000", "163256.435000", "163257.925000", "163259.415000", "163300.905000", "163302.395000", "163303.885000", "163305.375000", "163306.865000", "163308.355000", "163309.845000", "163311.335000", "163312.825000", "163314.315000", "163315.805000", "163317.295000", "163318.785000", "163320.275000", "163321.765000", "163323.255000", "163324.745000", "163326.235000", "163327.725000", "163329.215000", "163330.705000", "163332.195000", "163333.685000", "163335.175000", "163336.665000", "163338.155000", "163339.645000", "163341.135000", "163342.625000", "163344.115000", "163345.605000", "163347.095000", "163348.585000", "163350.075000", "163351.565000", "163353.055000", "163354.545000", "163356.035000", "163357.525000", "163359.015000", "163400.505000", "163401.995000", "163403.485000", "163404.975000", "163406.465000", "163407.955000", "163409.445000", "163410.935000", "163412.425000", "163413.915000", "163415.405000", "163416.895000", "163418.385000", "163419.875000", "163421.365000", "163422.855000", "163424.345000", "163425.835000", "163427.325000", "163428.815000", "163430.305000", "163431.795000", "163433.285000", "163434.775000", "163436.265000", "163437.755000", "163439.245000", "163440.735000", "163442.225000", "163443.715000", "163445.205000", "163446.695000", "163448.185000", "163449.675000", "163451.165000", "163452.655000", "163454.145000", "163455.635000", "163457.125000", "163458.615000", "163500.105000", "163501.595000", "163503.085000", "163504.575000", "163506.065000", "163507.555000", "163509.045000", "163510.535000", "163512.025000", "163513.515000", "163515.005000", "163516.495000", "163517.985000", "163519.475000", "163520.965000", "163522.455000", "163523.945000", "163525.435000", "163526.925000", "163528.415000", "163529.905000", "163531.395000", "163532.885000", "163534.375000", "163535.865000", "163537.355000", "163538.845000", "163540.335000", "163541.825000", "163543.315000", "163544.805000", "163546.295000", "163547.785000", "163549.275000", "163550.765000", "163552.255000", "163553.745000", "163555.235000", "163556.725000", "163558.215000", "163559.705000", "163601.195000", "163602.685000", "163604.175000", "163605.665000", "163607.155000", "163608.645000", "163610.135000", "163611.625000", "163613.115000", "163614.605000", "163616.095000", "163617.585000", "163619.075000", "163620.565000", "163622.055000", "163623.545000", "163625.035000", "163626.525000", "163628.015000", "163629.505000", "163630.995000", "163632.485000", "163633.975000", "163635.465000", "163636.955000", "163638.445000", "163639.935000", "163641.425000", "163642.915000", "163644.405000", "163645.895000", "163647.385000", "163648.875000", "163650.365000", "163651.855000", "163653.345000", "163654.835000", "163656.325000", "163657.815000", "163659.305000", "163700.795000", "163702.285000", "163703.775000", "163705.265000", "163706.755000", "163708.245000", "163709.735000", "163711.225000", "163712.715000", "163714.205000", "163715.695000", "163717.185000", "163718.675000", "163720.165000", "163721.655000", "163723.145000", "163724.635000", "163726.125000", "163727.615000", "163729.105000", "163730.595000", "163732.085000", "163733.575000", "163735.065000", "163736.555000", "163738.045000", "163739.535000", "163741.025000", "163742.515000", "163744.005000", "163745.495000", "163746.985000", "163748.475000", "163749.965000", "163751.455000", "163752.945000", "163754.435000", "163755.925000", "163757.415000", "163758.905000", "163800.395000", "163801.885000", "163803.375000", "163804.865000", "163806.355000", "163807.845000", "163809.335000", "163810.825000", "163812.315000", "163813.805000", "163815.295000", "163816.785000", "163818.275000", "163819.765000", "163821.255000", "163822.745000", "163824.235000", "163825.725000", "163827.215000", "163828.705000", "163830.195000", "163831.685000", "163833.175000", "163834.665000", "163836.155000", "163837.645000", "163839.135000", "163840.625000", "163842.115000", "163843.605000", "163845.095000", "163846.585000", "163848.075000", "163849.565000", "163851.055000", "163852.545000", "163854.035000", "163855.525000", "163857.015000", "163858.505000", "163859.995000", "163901.485000", "163902.975000", "163904.465000", "163905.955000", "163907.445000", "163908.935000", "163910.425000", "163911.915000", "163913.405000", "163914.895000", "163916.385000", "163917.875000", "163919.365000", "163920.855000", "163922.345000", "163923.835000", "163925.325000", "163926.815000", "163928.305000", "163929.795000", "163931.285000", "163932.775000", "163934.265000", "163935.755000", "163937.245000", "163938.735000", "163940.225000", "163941.715000", "163943.205000", "163944.695000", "163946.185000", "163947.675000", "163949.165000", "163950.655000", "163952.145000", "163953.635000", "163955.125000", "163956.615000", "163958.105000", "163959.595000", "164001.085000", "164002.575000", "164004.065000", "164005.555000", "164007.045000", "164008.535000", "164010.025000", "164011.515000", "164013.005000", "164014.495000", "164015.985000", "164017.475000", "164018.965000", "164020.455000", "164021.945000", "164023.435000", "164024.925000", "164026.415000", "164027.905000", "164029.395000", "164030.885000", "164032.375000", "164033.865000", "164035.355000", "164036.845000", "164038.335000", "164039.825000", "164041.315000", "164042.805000", "164044.295000", "164045.785000", "164047.275000", "164048.765000", "164050.255000", "164051.745000", "164053.235000", "164054.725000", "164056.215000", "164057.705000", "164059.195000", "164100.685000", "164102.175000", "164103.665000", "164105.155000", "164106.645000", "164108.135000", "164109.625000", "164111.115000", "164112.605000", "164114.095000", "164115.585000", "164117.075000", "164118.565000", "164120.055000", "164121.545000", "164123.035000", "164124.525000", "164126.015000", "164127.505000", "164128.995000", "164130.485000", "164131.975000", "164133.465000", "164134.955000", "164136.445000", "164137.935000", "164139.425000", "164140.915000", "164142.405000", "164143.895000", "164145.385000", "164146.875000", "164148.365000", "164149.855000", "164151.345000", "164152.835000", "164154.325000", "164155.815000", "164157.305000", "164158.795000", "164200.285000", "164201.775000", "164203.265000", "164204.755000", "164206.245000", "164207.735000", "164209.225000", "164210.715000", "164212.205000", "164213.695000", "164215.185000", "164216.675000", "164218.165000", "164219.655000", "164221.145000", "164222.635000", "164224.125000", "164225.615000", "164227.105000", "164228.595000", "164230.085000", "164231.575000", "164233.065000", "164234.555000", "164236.045000", "164237.535000", "164239.025000", "164240.515000", "164242.005000", "164243.495000", "164244.985000", "164246.475000", "164247.965000", "164249.455000", "164250.945000", "164252.435000", "164253.925000", "164255.415000", "164256.905000", "164258.395000", "164259.885000", "164301.375000", "164302.865000", "164304.355000", "164305.845000", "164307.335000", "164308.825000", "164310.315000", "164311.805000", "164313.295000", "164314.785000", "164316.275000", "164317.765000", "164319.255000", "164320.745000", "164322.235000", "164323.725000", "164325.215000", "164326.705000", "164328.195000", "164329.685000", "164331.175000", "164332.665000", "164334.155000", "164335.645000", "164337.135000", "164338.625000", "164340.115000", "164341.605000", "164343.095000", "164344.585000", "164346.075000", "164347.565000", "164349.055000", "164350.545000", "164352.035000", "164353.525000", "164355.015000", "164356.505000", "164357.995000", "164359.485000", "164400.975000", "164402.465000", "164403.955000", "164405.445000", "164406.935000", "164408.425000", "164409.915000", "164411.405000", "164412.895000", "164414.385000", "164415.875000", "164417.365000"],
      "ContentTime": ["163249.135000", "163249.139000", "163249.141000", "163249.144000", "163249.147000", "163249.150000", "163249.153000", "163249.156000", "163249.158000", "163249.161000", "163249.164000", "163249.167000", "163249.170000", "163249.173000", "163249.175000", "163249.178000", "163249.181000", "163249.184000", "163249.187000", "163249.189000", "163249.192000", "163249.195000", "163249.198000", "163249.201000", "163249.203000", "163249.206000", "163249.213000", "163249.215000", "163249.218000", "163249.221000", "163249.224000", "163249.227000", "163309.102000", "163309.105000", "163309.108000", "163309.110000", "163309.113000", "163309.116000", "163309.119000", "163309.122000", "163309.125000", "163309.128000", "163309.130000", "163309.133000", "163309.136000", "163309.139000", "163309.142000", "163309.144000", "163309.147000", "163309.150000", "163309.153000", "163309.156000", "163329.119000", "163329.122000", "163329.125000", "163329.128000", "163329.131000", "163329.134000", "163329.136000", "163329.139000", "163329.142000", "163329.145000", "163329.148000", "163329.151000", "163329.153000", "163329.156000", "163329.159000", "163329.162000", "163329.165000", "163329.168000", "163329.170000", "163329.173000", "163349.101000", "163349.104000", "163349.107000", "163349.110000", "163349.112000", "163349.115000", "163349.118000", "163349.121000", "163349.124000", "163349.127000", "163349.129000", "163349.132000", "163349.136000", "163349.139000", "163349.142000", "163349.145000", "163349.148000", "163349.151000", "163349.154000", "163349.157000", "163429.101000", "163429.104000", "163429.107000", "163429.110000", "163429.113000", "163429.116000", "163429.118000", "163429.121000", "163429.124000", "163429.127000", "163429.130000", "163429.133000", "163429.135000", "163429.138000", "163429.141000", "163429.144000", "163429.147000", "163429.150000", "163429.159000", "163429.162000", "163429.165000", "163429.167000", "163429.170000", "163429.173000", "163429.176000", "163429.179000", "163429.182000", "163429.185000", "163429.187000", "163429.190000", "163429.193000", "163509.102000", "163509.105000", "163509.108000", "163509.111000", "163509.114000", "163509.116000", "163509.119000", "163509.122000", "163509.125000", "163509.128000", "163509.131000", "163509.134000", "163509.136000", "163509.139000", "163509.142000", "163509.145000", "163509.148000", "163509.151000", "163509.153000", "163509.156000", "163509.159000", "163509.162000", "163509.165000", "163509.168000", "163509.171000", "163509.174000", "163509.177000", "163549.101000", "163549.104000", "163549.107000", "163549.110000", "163549.112000", "163549.115000", "163549.118000", "163549.121000", "163549.124000", "163549.126000", "163549.129000", "163549.132000", "163549.135000", "163549.138000", "163549.141000", "163549.144000", "163549.146000", "163549.149000", "163549.152000", "163549.155000", "163549.158000", "163549.160000", "163549.163000", "163549.166000", "163549.169000", "163549.172000", "163549.175000", "163629.101000", "163629.104000", "163629.107000", "163629.110000", "163629.112000", "163629.115000", "163629.118000", "163629.121000", "163629.124000", "163629.127000", "163629.130000", "163629.132000", "163629.135000", "163629.138000", "163629.141000", "163629.144000", "163629.147000", "163629.149000", "163629.152000", "163629.155000", "163629.158000", "163629.161000", "163629.164000", "163629.166000", "163629.169000", "163629.172000", "163629.175000", "163709.102000", "163709.105000", "163709.108000", "163709.110000", "163709.113000", "163709.120000", "163709.123000", "163709.126000", "163709.128000", "163709.131000", "163709.134000", "163709.137000", "163709.140000", "163709.143000", "163709.146000", "163709.149000", "163709.151000", "163709.154000", "163709.157000", "163709.160000", "163709.163000", "163709.165000", "163709.168000", "163709.171000", "163709.174000", "163709.177000", "163709.180000", "163749.102000", "163749.105000", "163749.114000", "163749.116000", "163749.119000", "163749.122000", "163749.125000", "163749.128000", "163749.131000", "163749.134000", "163749.137000", "163749.140000", "163749.143000", "163749.146000", "163749.150000", "163749.153000", "163749.156000", "163749.158000", "163749.161000", "163749.164000", "163749.167000", "163749.170000", "163749.173000", "163749.184000", "163749.186000", "163749.189000", "163829.101000", "163829.104000", "163829.107000", "163829.110000", "163829.113000", "163829.115000", "163829.118000", "163829.121000", "163829.124000", "163829.127000", "163829.130000", "163829.133000", "163829.135000", "163829.138000", "163829.141000", "163829.144000", "163829.147000", "163829.150000", "163829.152000", "163829.155000", "163829.158000", "163829.161000", "163829.164000", "163829.166000", "163829.169000", "163829.172000", "163829.175000", "163909.102000", "163909.105000", "163909.108000", "163909.111000", "163909.114000", "163909.116000", "163909.119000", "163909.122000", "163909.125000", "163909.128000", "163909.131000", "163909.134000", "163909.136000", "163909.139000", "163909.142000", "163909.145000", "163909.148000", "163909.151000", "163909.153000", "163909.156000", "163909.159000", "163909.162000", "163909.165000", "163909.168000", "163909.171000", "163909.173000", "163909.176000", "163949.102000", "163949.105000", "163949.108000", "163949.111000", "163949.114000", "163949.116000", "163949.119000", "163949.122000", "163949.125000", "163949.128000", "163949.131000", "163949.134000", "163949.136000", "163949.139000", "163949.142000", "163949.145000", "163949.148000", "163949.151000", "163949.154000", "163949.157000", "163949.159000", "163949.162000", "163949.165000", "163949.168000", "163949.171000", "163949.174000", "163949.177000", "164029.102000", "164029.105000", "164029.108000", "164029.110000", "164029.113000", "164029.116000", "164029.119000", "164029.122000", "164029.125000", "164029.128000", "164029.131000", "164029.133000", "164029.136000", "164029.139000", "164029.142000", "164029.145000", "164029.148000", "164029.150000", "164029.153000", "164029.156000", "164029.159000", "164029.162000", "164029.164000", "164029.167000", "164029.170000", "164029.173000", "164029.176000", "164109.101000", "164109.104000", "164109.107000", "164109.110000", "164109.113000", "164109.115000", "164109.118000", "164109.121000", "164109.124000", "164109.127000", "164109.130000", "164109.133000", "164109.135000", "164109.138000", "164109.141000", "164109.144000", "164109.147000", "164109.150000", "164109.152000", "164109.155000", "164109.158000", "164109.161000", "164109.164000", "164109.167000", "164109.170000", "164109.172000", "164109.175000", "164149.102000", "164149.105000", "164149.108000", "164149.111000", "164149.113000", "164149.116000", "164149.119000", "164149.122000", "164149.125000", "164149.128000", "164149.131000", "164149.134000", "164149.136000", "164149.139000", "164149.142000", "164149.145000", "164149.148000", "164149.151000", "164149.153000", "164149.156000", "164149.159000", "164149.162000", "164149.165000", "164149.168000", "164149.170000", "164149.173000", "164149.176000", "164229.102000", "164229.105000", "164229.108000", "164229.111000", "164229.114000", "164229.116000", "164229.119000", "164229.122000", "164229.125000", "164229.128000", "164229.131000", "164229.134000", "164229.138000", "164229.141000", "164229.144000", "164229.147000", "164229.149000", "164229.152000", "164229.155000", "164229.158000", "164229.161000", "164229.164000", "164229.167000", "164229.178000", "164229.181000", "164229.184000", "164309.101000", "164309.104000", "164309.107000", "164309.110000", "164309.113000", "164309.115000", "164309.118000", "164309.121000", "164309.124000", "164309.127000", "164309.130000", "164309.133000", "164309.135000", "164309.138000", "164309.141000", "164309.144000", "164309.147000", "164309.150000", "164309.153000", "164309.156000", "164309.158000", "164309.161000", "164309.164000", "164309.167000", "164309.170000", "164309.178000", "164309.181000", "164349.102000", "164349.105000", "164349.108000", "164349.111000", "164349.114000", "164349.117000", "164349.119000", "164349.122000", "164349.125000", "164349.128000", "164349.131000", "164349.134000", "164349.137000", "164349.139000", "164349.142000", "164349.145000", "164349.148000", "164349.151000", "164349.154000", "164349.157000", "164349.159000", "164349.162000", "164349.165000", "164349.168000", "164349.171000", "164349.174000", "164349.177000", "164419.582000", "164419.585000", "164419.588000", "164419.591000", "164419.594000", "164419.597000", "164419.600000", "164419.603000", "164419.605000", "164419.608000", "164419.611000", "164419.614000", "164419.617000", "164419.620000", "164419.623000", "164419.625000", "164419.628000", "164419.631000", "164419.634000", "164419.637000", "164419.639000"],
