{
  "AcquisitionMatrixPE": 104,
  "AcquisitionNumber": 1,
  "AcquisitionTime": "15:55:13.967500",
  "BandwidthPerPixelPhaseEncode": 17.17,
  "BaseResolution": 104,
  "BodyPartExamined": "BRAIN",
  "CoilString": "HC1-7;NC1_2",
  "ConsistencyInfo": "N4_VE11C_LATEST_20160120",
  "ConversionSoftware": "dcm2niix",
  "ConversionSoftwareVersion": "v1.0.20190902",
  "DerivedVendorReportedEchoSpacing": 0.000560011,
  "DeviceSerialNumber": "167006",
  "DwellTime": 2.1e-06,
  "EchoTime": 0.037,
  "EchoTrainLength": 104,
  "EffectiveEchoSpacing": 0.000560011,
  "FlipAngle": 52,
  "HeudiconvVersion": "0.10.0",
  "ImageComments": "Unaliased_MB4_PE3_LB",
  "ImageOrientationPatientDICOM": [0.999937, 0.00268884, 0.0109237, 0.00331595, 0.857429, -0.514591],
  "ImageType": [
    "ORIGINAL",
    "PRIMARY",
    "M",
    "MB",
    "ND",
    "MOSAIC"
],
  "ImagingFrequency": 123.259,
  "InPlanePhaseEncodingDirectionDICOM": "COL",
  "InstitutionAddress": "Chemin_Queen-Mary_4565_Montreal_District_CA_H3W_1W5",
  "InstitutionName": "IUGM",
  "InstitutionalDepartmentName": "Department",
  "MRAcquisitionType": "2D",
  "MagneticFieldStrength": 3,
  "Manufacturer": "Siemens",
  "ManufacturersModelName": "Prisma_fit",
  "Modality": "MR",
  "MultibandAccelerationFactor": 4,
  "PartialFourier": 1,
  "PatientPosition": "HFS",
  "PercentPhaseFOV": 100,
  "PhaseEncodingDirection": "j",
  "PhaseEncodingSteps": 104,
  "PhaseResolution": 1,
  "PixelBandwidth": 2290,
  "ProcedureStepDescription": "video_friends",
  "ProtocolName": "func_task-friends-s06e24b",
  "PulseSequenceDetails": "%CustomerSeq%_cmrr_mbep2d_bold",
  "ReceiveCoilActiveElements": "HC1-7;NC1,2",
  "ReceiveCoilName": "HeadNeck_64",
  "ReconMatrixPE": 104,
  "RepetitionTime": 1.49,
  "SAR": 0.0623756,
  "ScanOptions": "FS",
  "ScanningSequence": "EP",
  "SequenceName": "epfid2d1_104",
  "SequenceVariant": "SK_SS",
  "SeriesDescription": "func_task-friends-s06e24b",
  "SeriesNumber": 15,
  "ShimSetting": [619, -7182, -8871, 226, 21, -208, -2, -9],
  "SliceThickness": 2,
  "SliceTiming": [0, 0.785, 0.0975, 0.8825, 0.1975, 0.98, 0.295, 1.0775, 0.3925, 1.1775, 0.49, 1.275, 0.5875, 1.3725, 0.6875, 0, 0.785, 0.0975, 0.8825, 0.1975, 0.98, 0.295, 1.0775, 0.3925, 1.1775, 0.49, 1.275, 0.5875, 1.3725, 0.6875, 0, 0.785, 0.0975, 0.8825, 0.1975, 0.98, 0.295, 1.0775, 0.3925, 1.1775, 0.49, 1.275, 0.5875, 1.3725, 0.6875, 0, 0.785, 0.0975, 0.8825, 0.1975, 0.98, 0.295, 1.0775, 0.3925, 1.1775, 0.49, 1.275, 0.5875, 1.3725, 0.6875],
  "SoftwareVersions": "syngo_MR_E11",
  "SpacingBetweenSlices": 2,
  "StationName": "MRC35049",
  "TaskName": "s06e24b",
  "TotalReadoutTime": 0.0576811,
  "TxRefAmp": 294.029,
  "WipMemBlock": "c60ea808-a12c-4365-8da6-04d50eb4ecf4||Sequence: R016 ve11c/master r/e634e98; Dec 19 2017 11:00:25 by eja",
  "dcmmeta_affine": [
    [-1.999873399734497, 0.00663190521299839, 0.021499890834093094, 102.07583618164062],
    [-0.005377678200602531, 1.7148587703704834, -1.0291892290115356, -58.383853912353516],
    [0.021847382187843323, 1.0291818380355835, 1.7147324085235596, -93.55801391601562],
    [0.0, 0.0, 0.0, 1.0]
],
  "dcmmeta_reorient_transform": [
    [0.0, -1.0, 0.0, 103.0],
    [1.0, 0.0, 0.0, 0.0],
    [0.0, 0.0, 1.0, 0.0],
    [0.0, 0.0, 0.0, 1.0]
],
  "dcmmeta_shape": [104, 104, 60, 461],
  "dcmmeta_slice_dim": 2,
  "dcmmeta_version": 0.6,
  "global": {
    "const": {
      "AcquisitionMatrix": [104, 0, 0, 104],
      "AngioFlag": "N",
      "BitsAllocated": 16,
      "BitsStored": 16,
      "BodyPartExamined": "BRAIN",
      "Columns": 832,
      "EchoNumbers": 1,
      "EchoTime": 37.0,
      "EchoTrainLength": 104,
      "FlipAngle": 52.0,
      "HighBit": 15,
      "ImageOrientationPatient": [0.99993671955997, 0.00268883901553, 0.01092369078595, 0.00331595254487, 0.85742939527047, -0.5145909410248],
      "ImagePositionPatient": [-833.12686997792, -744.41267672735, 379.11747452542],
      "ImageType": [
        "ORIGINAL",
        "PRIMARY",
        "M",
        "MB",
        "ND",
        "MOSAIC"
],
      "ImagedNucleus": "1H",
      "ImagingFrequency": 123.258847,
      "InPlanePhaseEncodingDirection": "COL",
      "MRAcquisitionType": "2D",
      "MagneticFieldStrength": 3.0,
      "Manufacturer": "SIEMENS",
      "ManufacturerModelName": "Prisma_fit",
      "Modality": "MR",
      "NumberOfAverages": 1.0,
      "NumberOfPhaseEncodingSteps": 104,
      "PercentPhaseFieldOfView": 100.0,
      "PercentSampling": 100.0,
      "PerformedProcedureStepStartTime": "142225.966000",
      "PhotometricInterpretation": "MONOCHROME2",
      "PixelBandwidth": 2290.0,
      "PixelRepresentation": 0,
      "PixelSpacing": [2.0, 2.0],
      "ProtocolName": "func_task-friends-s06e24b",
      "RepetitionTime": 1490.0,
      "Rows": 832,
      "SAR": 0.06237564144168,
      "SamplesPerPixel": 1,
      "ScanOptions": "FS",
      "ScanningSequence": "EP",
      "SequenceName": "epfid2d1_104",
      "SequenceVariant": [
        "SK",
        "SS"
],
      "SeriesDescription": "func_task-friends-s06e24b",
      "SeriesNumber": 15,
      "SeriesTime": "155634.530000",
      "SliceLocation": -49.072158540753,
      "SliceThickness": 2.0,
      "SmallestImagePixelValue": 0,
      "SoftwareVersions": "syngo MR E11",
      "SpacingBetweenSlices": 1.9999999710847,
      "SpecificCharacterSet": "ISO_IR 100",
      "StudyID": "1",
      "StudyTime": "142225.889000",
      "TransmitCoilName": "Body",
      "VariableFlipAngleFlag": "N",
      "WindowCenterWidthExplanation": "Algo1",
      "dBdt": 0.0},
    "slices": {}
  },
  "time": {
    "samples": {
      "AcquisitionNumber": [1, 2, 3, 4, 5, 6, 7, 8, 9, 10, 11, 12, 13, 14, 15, 16, 17, 18, 19, 20, 21, 22, 23, 24, 25, 26, 27, 28, 29, 30, 31, 32, 33, 34, 35, 36, 37, 38, 39, 40, 41, 42, 43, 44, 45, 46, 47, 48, 49, 50, 51, 52, 53, 54, 55, 56, 57, 58, 59, 60, 61, 62, 63, 64, 65, 66, 67, 68, 69, 70, 71, 72, 73, 74, 75, 76, 77, 78, 79, 80, 81, 82, 83, 84, 85, 86, 87, 88, 89, 90, 91, 92, 93, 94, 95, 96, 97, 98, 99, 100, 101, 102, 103, 104, 105, 106, 107, 108, 109, 110, 111, 112, 113, 114, 115, 116, 117, 118, 119, 120, 121, 122, 123, 124, 125, 126, 127, 128, 129, 130, 131, 132, 133, 134, 135, 136, 137, 138, 139, 140, 141, 142, 143, 144, 145, 146, 147, 148, 149, 150, 151, 152, 153, 154, 155, 156, 157, 158, 159, 160, 161, 162, 163, 164, 165, 166, 167, 168, 169, 170, 171, 172, 173, 174, 175, 176, 177, 178, 179, 180, 181, 182, 183, 184, 185, 186, 187, 188, 189, 190, 191, 192, 193, 194, 195, 196, 197, 198, 199, 200, 201, 202, 203, 204, 205, 206, 207, 208, 209, 210, 211, 212, 213, 214, 215, 216, 217, 218, 219, 220, 221, 222, 223, 224, 225, 226, 227, 228, 229, 230, 231, 232, 233, 234, 235, 236, 237, 238, 239, 240, 241, 242, 243, 244, 245, 246, 247, 248, 249, 250, 251, 252, 253, 254, 255, 256, 257, 258, 259, 260, 261, 262, 263, 264, 265, 266, 267, 268, 269, 270, 271, 272, 273, 274, 275, 276, 277, 278, 279, 280, 281, 282, 283, 284, 285, 286, 287, 288, 289, 290, 291, 292, 293, 294, 295, 296, 297, 298, 299, 300, 301, 302, 303, 304, 305, 306, 307, 308, 309, 310, 311, 312, 313, 314, 315, 316, 317, 318, 319, 320, 321, 322, 323, 324, 325, 326, 327, 328, 329, 330, 331, 332, 333, 334, 335, 336, 337, 338, 339, 340, 341, 342, 343, 344, 345, 346, 347, 348, 349, 350, 351, 352, 353, 354, 355, 356, 357, 358, 359, 360, 361, 362, 363, 364, 365, 366, 367, 368, 369, 370, 371, 372, 373, 374, 375, 376, 377, 378, 379, 380, 381, 382, 383, 384, 385, 386, 387, 388, 389, 390, 391, 392, 393, 394, 395, 396, 397, 398, 399, 400, 401, 402, 403, 404, 405, 406, 407, 408, 409, 410, 411, 412, 413, 414, 415, 416, 417, 418, 419, 420, 421, 422, 423, 424, 425, 426, 427, 428, 429, 430, 431, 432, 433, 434, 435, 436, 437, 438, 439, 440, 441, 442, 443, 444, 445, 446, 447, 448, 449, 450, 451, 452, 453, 454, 455, 456, 457, 458, 459, 460, 461],
      "AcquisitionTime": ["155513.967500", "155515.457500", "155516.947500", "155518.437500", "155519.927500", "155521.417500", "155522.907500", "155524.397500", "155525.887500", "155527.377500", "155528.867500", "155530.357500", "155531.847500", "155533.337500", "155534.827500", "155536.317500", "155537.807500", "155539.297500", "155540.787500", "155542.277500", "155543.767500", "155545.257500", "155546.747500", "155548.237500", "155549.727500", "155551.217500", "155552.707500", "155554.197500", "155555.687500", "155557.177500", "155558.667500", "155600.157500", "155601.647500", "155603.137500", "155604.627500", "155606.117500", "155607.607500", "155609.097500", "155610.587500", "155612.077500", "155613.567500", "155615.057500", "155616.547500", "155618.037500", "155619.527500", "155621.017500", "155622.507500", "155623.997500", "155625.487500", "155626.977500", "155628.467500", "155629.957500", "155631.447500", "155632.937500", "155634.427500", "155635.917500", "155637.407500", "155638.897500", "155640.387500", "155641.877500", "155643.367500", "155644.857500", "155646.347500", "155647.837500", "155649.327500", "155650.817500", "155652.307500", "155653.797500", "155655.287500", "155656.777500", "155658.267500", "155659.757500", "155701.247500", "155702.737500", "155704.227500", "155705.717500", "155707.207500", "155708.697500", "155710.187500", "155711.677500", "155713.167500", "155714.657500", "155716.147500", "155717.637500", "155719.127500", "155720.617500", "155722.107500", "155723.597500", "155725.087500", "155726.577500", "155728.067500", "155729.557500", "155731.047500", "155732.537500", "155734.027500", "155735.517500", "155737.007500", "155738.497500", "155739.987500", "155741.477500", "155742.967500", "155744.457500", "155745.947500", "155747.437500", "155748.927500", "155750.417500", "155751.907500", "155753.397500", "155754.887500", "155756.377500", "155757.867500", "155759.357500", "155800.847500", "155802.337500", "155803.827500", "155805.317500", "155806.807500", "155808.297500", "155809.787500", "155811.277500", "155812.767500", "155814.257500", "155815.747500", "155817.237500", "155818.727500", "155820.217500", "155821.707500", "155823.197500", "155824.687500", "155826.177500", "155827.667500", "155829.157500", "155830.647500", "155832.137500", "155833.627500", "155835.117500", "155836.607500", "155838.097500", "155839.587500", "155841.077500", "155842.567500", "155844.057500", "155845.547500", "155847.037500", "155848.527500", "155850.017500", "155851.507500", "155852.997500", "155854.487500", "155855.977500", "155857.467500", "155858.957500", "155900.447500", "155901.937500", "155903.427500", "155904.917500", "155906.407500", "155907.897500", "155909.387500", "155910.877500", "155912.367500", "155913.857500", "155915.347500", "155916.837500", "155918.327500", "155919.817500", "155921.307500", "155922.797500", "155924.287500", "155925.777500", "155927.267500", "155928.757500", "155930.247500", "155931.737500", "155933.227500", "155934.717500", "155936.207500", "155937.697500", "155939.187500", "155940.677500", "155942.167500", "155943.657500", "155945.147500", "155946.637500", "155948.127500", "155949.617500", "155951.107500", "155952.597500", "155954.087500", "155955.577500", "155957.067500", "155958.557500", "160000.047500", "160001.537500", "160003.027500", "160004.517500", "160006.007500", "160007.497500", "160008.987500", "160010.477500", "160011.967500", "160013.457500", "160014.947500", "160016.437500", "160017.927500", "160019.417500", "160020.907500", "160022.397500", "160023.887500", "160025.377500", "160026.867500", "160028.357500", "160029.847500", "160031.337500", "160032.827500", "160034.317500", "160035.807500", "160037.297500", "160038.787500", "160040.277500", "160041.767500", "160043.257500", "160044.747500", "160046.237500", "160047.727500", "160049.217500", "160050.707500", "160052.197500", "160053.687500", "160055.177500", "160056.667500", "160058.157500", "160059.647500", "160101.137500", "160102.627500", "160104.117500", "160105.607500", "160107.097500", "160108.587500", "160110.077500", "160111.567500", "160113.057500", "160114.547500", "160116.037500", "160117.527500", "160119.017500", "160120.507500", "160121.997500", "160123.487500", "160124.977500", "160126.467500", "160127.957500", "160129.447500", "160130.937500", "160132.427500", "160133.917500", "160135.407500", "160136.897500", "160138.387500", "160139.877500", "160141.367500", "160142.857500", "160144.347500", "160145.837500", "160147.327500", "160148.817500", "160150.307500", "160151.797500", "160153.287500", "160154.777500", "160156.267500", "160157.757500", "160159.247500", "160200.737500", "160202.227500", "160203.717500", "160205.207500", "160206.697500", "160208.187500", "160209.677500", "160211.167500", "160212.657500", "160214.147500", "160215.637500", "160217.127500", "160218.617500", "160220.107500", "160221.597500", "160223.087500", "160224.577500", "160226.067500", "160227.557500", "160229.047500", "160230.537500", "160232.027500", "160233.517500", "160235.007500", "160236.497500", "160237.987500", "160239.477500", "160240.967500", "160242.457500", "160243.947500", "160245.437500", "160246.927500", "160248.417500", "160249.907500", "160251.397500", "160252.887500", "160254.377500", "160255.867500", "160257.357500", "160258.847500", "160300.337500", "160301.827500", "160303.317500", "160304.807500", "160306.297500", "160307.787500", "160309.277500", "160310.767500", "160312.257500", "160313.747500", "160315.237500", "160316.727500", "160318.217500", "160319.707500", "160321.197500", "160322.687500", "160324.177500", "160325.667500", "160327.157500", "160328.647500", "160330.137500", "160331.627500", "160333.117500", "160334.607500", "160336.097500", "160337.587500", "160339.077500", "160340.567500", "160342.057500", "160343.547500", "160345.037500", "160346.527500", "160348.017500", "160349.507500", "160350.997500", "160352.487500", "160353.977500", "160355.467500", "160356.957500", "160358.447500", "160359.937500", "160401.427500", "160402.917500", "160404.407500", "160405.897500", "160407.387500", "160408.877500", "160410.367500", "160411.857500", "160413.347500", "160414.837500", "160416.327500", "160417.817500", "160419.307500", "160420.797500", "160422.287500", "160423.777500", "160425.267500", "160426.757500", "160428.247500", "160429.737500", "160431.227500", "160432.717500", "160434.207500", "160435.697500", "160437.187500", "160438.677500", "160440.167500", "160441.657500", "160443.147500", "160444.637500", "160446.127500", "160447.617500", "160449.107500", "160450.597500", "160452.087500", "160453.577500", "160455.067500", "160456.557500", "160458.047500", "160459.537500", "160501.027500", "160502.517500", "160504.007500", "160505.497500", "160506.987500", "160508.477500", "160509.967500", "160511.457500", "160512.947500", "160514.437500", "160515.927500", "160517.417500", "160518.907500", "160520.397500", "160521.887500", "160523.377500", "160524.867500", "160526.357500", "160527.847500", "160529.337500", "160530.827500", "160532.317500", "160533.807500", "160535.297500", "160536.787500", "160538.277500", "160539.767500", "160541.257500", "160542.747500", "160544.237500", "160545.727500", "160547.217500", "160548.707500", "160550.197500", "160551.687500", "160553.177500", "160554.667500", "160556.157500", "160557.647500", "160559.137500", "160600.627500", "160602.117500", "160603.607500", "160605.097500", "160606.587500", "160608.077500", "160609.567500", "160611.057500", "160612.547500", "160614.037500", "160615.527500", "160617.017500", "160618.507500", "160619.997500", "160621.487500", "160622.977500", "160624.467500", "160625.957500", "160627.447500", "160628.937500", "160630.427500", "160631.917500", "160633.407500", "160634.897500", "160636.387500", "160637.877500", "160639.367500"],
      "ContentTime": ["155634.533000", "155634.536000", "155634.539000", "155634.542000", "155634.545000", "155634.548000", "155634.551000", "155634.553000", "155634.556000", "155634.559000", "155634.562000", "155634.573000", "155634.576000", "155634.579000", "155634.582000", "155634.584000", "155634.587000", "155634.590000", "155634.600000", "155634.602000", "155634.605000", "155634.608000", "155634.611000", "155634.614000", "155634.616000", "155654.502000", "155654.505000", "155654.508000", "155654.510000", "155654.513000", "155654.516000", "155654.519000", "155654.522000", "155654.524000", "155654.527000", "155654.531000", "155654.534000", "155654.537000", "155654.540000", "155654.567000", "155654.570000", "155654.572000", "155654.575000", "155654.578000", "155654.581000", "155714.502000", "155714.521000", "155714.523000", "155714.526000", "155714.529000", "155714.532000", "155714.534000", "155714.537000", "155714.540000", "155714.543000", "155714.546000", "155714.549000", "155714.552000", "155714.555000", "155714.557000", "155714.560000", "155714.563000", "155714.566000", "155714.569000", "155714.571000", "155734.502000", "155734.505000", "155734.508000", "155734.510000", "155734.513000", "155734.516000", "155734.519000", "155734.521000", "155734.524000", "155734.527000", "155734.530000", "155734.533000", "155734.536000", "155734.538000", "155734.541000", "155734.544000", "155734.547000", "155734.550000", "155734.552000", "155734.555000", "155754.502000", "155754.505000", "155754.507000", "155754.510000", "155754.513000", "155754.516000", "155754.519000", "155754.521000", "155754.524000", "155754.527000", "155754.530000", "155754.533000", "155754.536000", "155754.538000", "155754.541000", "155754.544000", "155754.547000", "155754.550000", "155754.552000", "155754.555000", "155834.502000", "155834.505000", "155834.508000", "155834.511000", "155834.514000", "155834.516000", "155834.519000", "155834.522000", "155834.526000", "155834.529000", "155834.532000", "155834.535000", "155834.538000", "155834.540000", "155834.543000", "155834.546000", "155834.549000", "155834.552000", "155834.555000", "155834.558000", "155834.560000", "155834.563000", "155834.566000", "155834.569000", "155834.572000", "155834.574000", "155834.577000", "155834.580000", "155914.502000", "155914.505000", "155914.508000", "155914.511000", "155914.513000", "155914.516000", "155914.519000", "155914.522000", "155914.525000", "155914.527000", "155914.530000", "155914.533000", "155914.536000", "155914.539000", "155914.542000", "155914.544000", "155914.547000", "155914.550000", "155914.553000", "155914.556000", "155914.558000", "155914.561000", "155914.564000", "155914.567000", "155914.570000", "155914.573000", "155914.575000", "155954.502000", "155954.505000", "155954.508000", "155954.511000", "155954.513000", "155954.516000", "155954.519000", "155954.522000", "155954.525000", "155954.527000", "155954.530000", "155954.533000", "155954.536000", "155954.545000", "155954.548000", "155954.551000", "155954.554000", "155954.557000", "155954.560000", "155954.563000", "155954.565000", "155954.568000", "155954.571000", "155954.574000", "155954.577000", "155954.580000", "155954.582000", "160034.502000", "160034.505000", "160034.508000", "160034.511000", "160034.513000", "160034.516000", "160034.519000", "160034.522000", "160034.525000", "160034.528000", "160034.530000", "160034.533000", "160034.536000", "160034.539000", "160034.542000", "160034.545000", "160034.547000", "160034.550000", "160034.553000", "160034.556000", "160034.559000", "160034.562000", "160034.564000", "160034.567000", "160034.570000", "160034.573000", "160034.576000", "160114.502000", "160114.505000", "160114.508000", "160114.510000", "160114.513000", "160114.516000", "160114.519000", "160114.522000", "160114.525000", "160114.527000", "160114.530000", "160114.533000", "160114.536000", "160114.549000", "160114.552000", "160114.555000", "160114.557000", "160114.560000", "160114.563000", "160114.566000", "160114.569000", "160114.572000", "160114.574000", "160114.577000", "160114.580000", "160114.583000", "160114.586000", "160134.502000", "160134.505000", "160134.508000", "160134.511000", "160134.513000", "160134.516000", "160134.519000", "160134.522000", "160134.525000", "160134.527000", "160134.530000", "160134.533000", "160134.536000", "160214.502000", "160214.505000", "160214.508000", "160214.511000", "160214.513000", "160214.516000", "160214.519000", "160214.522000", "160214.525000", "160214.528000", "160214.530000", "160214.533000", "160214.536000", "160214.539000", "160214.542000", "160214.545000", "160214.547000", "160214.550000", "160214.553000", "160214.556000", "160214.559000", "160214.562000", "160214.564000", "160214.567000", "160214.570000", "160214.573000", "160214.576000", "160254.502000", "160254.505000", "160254.508000", "160254.511000", "160254.513000", "160254.516000", "160254.519000", "160254.522000", "160254.525000", "160254.527000", "160254.530000", "160254.533000", "160254.536000", "160254.539000", "160254.542000", "160254.544000", "160254.547000", "160254.550000", "160254.553000", "160254.556000", "160254.559000", "160254.561000", "160254.564000", "160254.567000", "160254.570000", "160254.573000", "160254.576000", "160334.502000", "160334.505000", "160334.508000", "160334.511000", "160334.513000", "160334.516000", "160334.519000", "160334.522000", "160334.524000", "160334.527000", "160334.530000", "160334.533000", "160334.536000", "160334.539000", "160334.541000", "160334.544000", "160334.547000", "160334.550000", "160334.552000", "160334.555000", "160334.558000", "160334.561000", "160334.564000", "160334.567000", "160334.569000", "160334.572000", "160334.586000", "160414.502000", "160414.505000", "160414.508000", "160414.511000", "160414.513000", "160414.516000", "160414.519000", "160414.522000", "160414.525000", "160414.527000", "160414.530000", "160414.533000", "160414.536000", "160414.539000", "160414.542000", "160414.544000", "160414.547000", "160414.550000", "160414.553000", "160414.556000", "160414.558000", "160414.561000", "160414.564000", "160414.567000", "160414.570000", "160414.572000", "160414.575000", "160454.502000", "160454.505000", "160454.508000", "160454.511000", "160454.513000", "160454.516000", "160454.519000", "160454.522000", "160454.525000", "160454.528000", "160454.531000", "160454.533000", "160454.536000", "160454.539000", "160454.542000", "160454.545000", "160454.547000", "160454.550000", "160454.553000", "160454.556000", "160454.559000", "160454.562000", "160454.564000", "160454.567000", "160454.570000", "160454.573000", "160454.576000", "160534.502000", "160534.505000", "160534.508000", "160534.511000", "160534.514000", "160534.516000", "160534.519000", "160534.522000", "160534.525000", "160534.528000", "160534.530000", "160534.533000", "160534.536000", "160534.539000", "160534.542000", "160534.545000", "160534.547000", "160534.550000", "160534.553000", "160534.556000", "160534.569000", "160534.572000", "160534.575000", "160534.578000", "160534.581000", "160534.584000", "160614.512000", "160614.516000", "160614.518000", "160614.521000", "160614.524000", "160614.527000", "160614.530000", "160614.533000", "160614.535000", "160614.538000", "160614.541000", "160614.544000", "160614.547000", "160614.550000", "160614.552000", "160614.555000", "160614.558000", "160614.561000", "160614.564000", "160614.567000", "160614.569000", "160614.572000", "160614.575000", "160614.578000", "160614.581000", "160614.584000", "160614.586000", "160641.798000", "160641.801000", "160641.804000", "160641.807000", "160641.810000", "160641.813000", "160641.815000", "160641.818000", "160641.821000", "160641.824000", "160641.827000", "160641.830000", "160641.832000", "160641.835000", "160641.838000", "160641.841000", "160641.844000", "160641.847000", "160641.849000"],
