{
  "AcquisitionMatrixPE": 104,
  "AcquisitionNumber": 1,
  "AcquisitionTime": "15:14:44.640000",
  "BandwidthPerPixelPhaseEncode": 17.17,
  "BaseResolution": 104,
  "BodyPartExamined": "BRAIN",
  "CoilString": "HC1-7;NC1_2",
  "ConsistencyInfo": "N4_VE11C_LATEST_20160120",
  "ConversionSoftware": "dcm2niix",
  "ConversionSoftwareVersion": "v1.0.20190902",
  "DerivedVendorReportedEchoSpacing": 0.000560011,
  "DeviceSerialNumber": "167006",
  "DwellTime": 2.1e-06,
  "EchoTime": 0.037,
  "EchoTrainLength": 104,
  "EffectiveEchoSpacing": 0.000560011,
  "FlipAngle": 52,
  "HeudiconvVersion": "0.10.0",
  "ImageComments": "Unaliased_MB4_PE3_LB",
  "ImageOrientationPatientDICOM": [0.999937, 0.00268884, 0.0109237, 0.00331595, 0.857429, -0.514591],
  "ImageType": [
    "ORIGINAL",
    "PRIMARY",
    "M",
    "MB",
    "ND",
    "MOSAIC"
],
  "ImagingFrequency": 123.259,
  "InPlanePhaseEncodingDirectionDICOM": "COL",
  "InstitutionAddress": "Chemin_Queen-Mary_4565_Montreal_District_CA_H3W_1W5",
  "InstitutionName": "IUGM",
  "InstitutionalDepartmentName": "Department",
  "MRAcquisitionType": "2D",
  "MagneticFieldStrength": 3,
  "Manufacturer": "Siemens",
  "ManufacturersModelName": "Prisma_fit",
  "Modality": "MR",
  "MultibandAccelerationFactor": 4,
  "PartialFourier": 1,
  "PatientPosition": "HFS",
  "PercentPhaseFOV": 100,
  "PhaseEncodingDirection": "j",
  "PhaseEncodingSteps": 104,
  "PhaseResolution": 1,
  "PixelBandwidth": 2290,
  "ProcedureStepDescription": "video_friends",
  "ProtocolName": "func_task-friends-s06e23a",
  "PulseSequenceDetails": "%CustomerSeq%_cmrr_mbep2d_bold",
  "ReceiveCoilActiveElements": "HC1-7;NC1,2",
  "ReceiveCoilName": "HeadNeck_64",
  "ReconMatrixPE": 104,
  "RepetitionTime": 1.49,
  "SAR": 0.0623894,
  "ScanOptions": "FS",
  "ScanningSequence": "EP",
  "SequenceName": "epfid2d1_104",
  "SequenceVariant": "SK_SS",
  "SeriesDescription": "func_task-friends-s06e23a",
  "SeriesNumber": 9,
  "ShimSetting": [619, -7182, -8871, 226, 21, -208, -2, -9],
  "SliceThickness": 2,
  "SliceTiming": [0, 0.785, 0.0975, 0.8825, 0.195, 0.98, 0.295, 1.0775, 0.3925, 1.175, 0.49, 1.2725, 0.5875, 1.3725, 0.685, 0, 0.785, 0.0975, 0.8825, 0.195, 0.98, 0.295, 1.0775, 0.3925, 1.175, 0.49, 1.2725, 0.5875, 1.3725, 0.685, 0, 0.785, 0.0975, 0.8825, 0.195, 0.98, 0.295, 1.0775, 0.3925, 1.175, 0.49, 1.2725, 0.5875, 1.3725, 0.685, 0, 0.785, 0.0975, 0.8825, 0.195, 0.98, 0.295, 1.0775, 0.3925, 1.175, 0.49, 1.2725, 0.5875, 1.3725, 0.685],
  "SoftwareVersions": "syngo_MR_E11",
  "SpacingBetweenSlices": 2,
  "StationName": "MRC35049",
  "TaskName": "s06e23a",
  "TotalReadoutTime": 0.0576811,
  "TxRefAmp": 294.029,
  "WipMemBlock": "06eb9bd8-2873-4aba-87fb-8b532ac807ad||Sequence: R016 ve11c/master r/e634e98; Dec 19 2017 11:00:25 by eja",
  "dcmmeta_affine": [
    [-1.999873399734497, 0.00663190521299839, 0.021499890834093094, 102.07583618164062],
    [-0.005377678200602531, 1.7148587703704834, -1.0291892290115356, -58.383853912353516],
    [0.021847382187843323, 1.0291818380355835, 1.7147324085235596, -93.55801391601562],
    [0.0, 0.0, 0.0, 1.0]
],
  "dcmmeta_reorient_transform": [
    [0.0, -1.0, 0.0, 103.0],
    [1.0, 0.0, 0.0, 0.0],
    [0.0, 0.0, 1.0, 0.0],
    [0.0, 0.0, 0.0, 1.0]
],
  "dcmmeta_shape": [104, 104, 60, 486],
  "dcmmeta_slice_dim": 2,
  "dcmmeta_version": 0.6,
  "global": {
    "const": {
      "AcquisitionMatrix": [104, 0, 0, 104],
      "AngioFlag": "N",
      "BitsAllocated": 16,
      "BitsStored": 16,
      "BodyPartExamined": "BRAIN",
      "Columns": 832,
      "EchoNumbers": 1,
      "EchoTime": 37.0,
      "EchoTrainLength": 104,
      "FlipAngle": 52.0,
      "HighBit": 15,
      "ImageOrientationPatient": [0.99993671955997, 0.00268883901553, 0.01092369078595, 0.00331595254487, 0.85742939527047, -0.5145909410248],
      "ImagePositionPatient": [-833.12686997792, -744.41267672735, 379.11747452542],
      "ImageType": [
        "ORIGINAL",
        "PRIMARY",
        "M",
        "MB",
        "ND",
        "MOSAIC"
],
      "ImagedNucleus": "1H",
      "ImagingFrequency": 123.258829,
      "InPlanePhaseEncodingDirection": "COL",
      "MRAcquisitionType": "2D",
      "MagneticFieldStrength": 3.0,
      "Manufacturer": "SIEMENS",
      "ManufacturerModelName": "Prisma_fit",
      "Modality": "MR",
      "NumberOfAverages": 1.0,
      "NumberOfPhaseEncodingSteps": 104,
      "PercentPhaseFieldOfView": 100.0,
      "PercentSampling": 100.0,
      "PerformedProcedureStepStartTime": "142225.966000",
      "PhotometricInterpretation": "MONOCHROME2",
      "PixelBandwidth": 2290.0,
      "PixelRepresentation": 0,
      "PixelSpacing": [2.0, 2.0],
      "ProtocolName": "func_task-friends-s06e23a",
      "RepetitionTime": 1490.0,
      "Rows": 832,
      "SAR": 0.06238940430672,
      "SamplesPerPixel": 1,
      "ScanOptions": "FS",
      "ScanningSequence": "EP",
      "SequenceName": "epfid2d1_104",
      "SequenceVariant": [
        "SK",
        "SS"
],
      "SeriesDescription": "func_task-friends-s06e23a",
      "SeriesNumber": 9,
      "SeriesTime": "151614.523000",
      "SliceLocation": -49.072158540753,
      "SliceThickness": 2.0,
      "SmallestImagePixelValue": 0,
      "SoftwareVersions": "syngo MR E11",
      "SpacingBetweenSlices": 1.9999999710847,
      "SpecificCharacterSet": "ISO_IR 100",
      "StudyID": "1",
      "StudyTime": "142225.889000",
      "TransmitCoilName": "Body",
      "VariableFlipAngleFlag": "N",
      "WindowCenterWidthExplanation": "Algo1",
      "dBdt": 0.0},
    "slices": {}
  },
  "time": {
    "samples": {
      "AcquisitionNumber": [1, 2, 3, 4, 5, 6, 7, 8, 9, 10, 11, 12, 13, 14, 15, 16, 17, 18, 19, 20, 21, 22, 23, 24, 25, 26, 27, 28, 29, 30, 31, 32, 33, 34, 35, 36, 37, 38, 39, 40, 41, 42, 43, 44, 45, 46, 47, 48, 49, 50, 51, 52, 53, 54, 55, 56, 57, 58, 59, 60, 61, 62, 63, 64, 65, 66, 67, 68, 69, 70, 71, 72, 73, 74, 75, 76, 77, 78, 79, 80, 81, 82, 83, 84, 85, 86, 87, 88, 89, 90, 91, 92, 93, 94, 95, 96, 97, 98, 99, 100, 101, 102, 103, 104, 105, 106, 107, 108, 109, 110, 111, 112, 113, 114, 115, 116, 117, 118, 119, 120, 121, 122, 123, 124, 125, 126, 127, 128, 129, 130, 131, 132, 133, 134, 135, 136, 137, 138, 139, 140, 141, 142, 143, 144, 145, 146, 147, 148, 149, 150, 151, 152, 153, 154, 155, 156, 157, 158, 159, 160, 161, 162, 163, 164, 165, 166, 167, 168, 169, 170, 171, 172, 173, 174, 175, 176, 177, 178, 179, 180, 181, 182, 183, 184, 185, 186, 187, 188, 189, 190, 191, 192, 193, 194, 195, 196, 197, 198, 199, 200, 201, 202, 203, 204, 205, 206, 207, 208, 209, 210, 211, 212, 213, 214, 215, 216, 217, 218, 219, 220, 221, 222, 223, 224, 225, 226, 227, 228, 229, 230, 231, 232, 233, 234, 235, 236, 237, 238, 239, 240, 241, 242, 243, 244, 245, 246, 247, 248, 249, 250, 251, 252, 253, 254, 255, 256, 257, 258, 259, 260, 261, 262, 263, 264, 265, 266, 267, 268, 269, 270, 271, 272, 273, 274, 275, 276, 277, 278, 279, 280, 281, 282, 283, 284, 285, 286, 287, 288, 289, 290, 291, 292, 293, 294, 295, 296, 297, 298, 299, 300, 301, 302, 303, 304, 305, 306, 307, 308, 309, 310, 311, 312, 313, 314, 315, 316, 317, 318, 319, 320, 321, 322, 323, 324, 325, 326, 327, 328, 329, 330, 331, 332, 333, 334, 335, 336, 337, 338, 339, 340, 341, 342, 343, 344, 345, 346, 347, 348, 349, 350, 351, 352, 353, 354, 355, 356, 357, 358, 359, 360, 361, 362, 363, 364, 365, 366, 367, 368, 369, 370, 371, 372, 373, 374, 375, 376, 377, 378, 379, 380, 381, 382, 383, 384, 385, 386, 387, 388, 389, 390, 391, 392, 393, 394, 395, 396, 397, 398, 399, 400, 401, 402, 403, 404, 405, 406, 407, 408, 409, 410, 411, 412, 413, 414, 415, 416, 417, 418, 419, 420, 421, 422, 423, 424, 425, 426, 427, 428, 429, 430, 431, 432, 433, 434, 435, 436, 437, 438, 439, 440, 441, 442, 443, 444, 445, 446, 447, 448, 449, 450, 451, 452, 453, 454, 455, 456, 457, 458, 459, 460, 461, 462, 463, 464, 465, 466, 467, 468, 469, 470, 471, 472, 473, 474, 475, 476, 477, 478, 479, 480, 481, 482, 483, 484, 485, 486],
      "AcquisitionTime": ["151444.640000", "151446.130000", "151447.620000", "151449.110000", "151450.600000", "151452.090000", "151453.580000", "151455.070000", "151456.560000", "151458.050000", "151459.540000", "151501.030000", "151502.520000", "151504.010000", "151505.500000", "151506.990000", "151508.480000", "151509.970000", "151511.460000", "151512.950000", "151514.440000", "151515.930000", "151517.420000", "151518.910000", "151520.400000", "151521.890000", "151523.380000", "151524.870000", "151526.360000", "151527.850000", "151529.340000", "151530.830000", "151532.320000", "151533.810000", "151535.300000", "151536.790000", "151538.280000", "151539.770000", "151541.260000", "151542.750000", "151544.240000", "151545.730000", "151547.220000", "151548.710000", "151550.200000", "151551.690000", "151553.180000", "151554.670000", "151556.160000", "151557.650000", "151559.140000", "151600.630000", "151602.120000", "151603.610000", "151605.100000", "151606.590000", "151608.080000", "151609.570000", "151611.060000", "151612.550000", "151614.040000", "151615.530000", "151617.020000", "151618.510000", "151620.000000", "151621.490000", "151622.980000", "151624.470000", "151625.960000", "151627.450000", "151628.940000", "151630.430000", "151631.920000", "151633.410000", "151634.900000", "151636.390000", "151637.880000", "151639.370000", "151640.860000", "151642.350000", "151643.840000", "151645.330000", "151646.820000", "151648.310000", "151649.800000", "151651.290000", "151652.780000", "151654.270000", "151655.760000", "151657.250000", "151658.740000", "151700.230000", "151701.720000", "151703.210000", "151704.700000", "151706.190000", "151707.680000", "151709.170000", "151710.660000", "151712.150000", "151713.640000", "151715.130000", "151716.620000", "151718.110000", "151719.600000", "151721.090000", "151722.580000", "151724.070000", "151725.560000", "151727.050000", "151728.540000", "151730.030000", "151731.520000", "151733.010000", "151734.500000", "151735.990000", "151737.480000", "151738.970000", "151740.460000", "151741.950000", "151743.440000", "151744.930000", "151746.420000", "151747.910000", "151749.400000", "151750.890000", "151752.380000", "151753.870000", "151755.360000", "151756.850000", "151758.340000", "151759.830000", "151801.320000", "151802.810000", "151804.300000", "151805.790000", "151807.280000", "151808.770000", "151810.260000", "151811.750000", "151813.240000", "151814.730000", "151816.220000", "151817.710000", "151819.200000", "151820.690000", "151822.180000", "151823.670000", "151825.160000", "151826.650000", "151828.140000", "151829.630000", "151831.120000", "151832.610000", "151834.100000", "151835.590000", "151837.080000", "151838.570000", "151840.060000", "151841.550000", "151843.040000", "151844.530000", "151846.020000", "151847.510000", "151849.000000", "151850.490000", "151851.980000", "151853.470000", "151854.960000", "151856.450000", "151857.940000", "151859.430000", "151900.920000", "151902.410000", "151903.900000", "151905.390000", "151906.880000", "151908.370000", "151909.860000", "151911.350000", "151912.840000", "151914.330000", "151915.820000", "151917.310000", "151918.800000", "151920.290000", "151921.780000", "151923.270000", "151924.760000", "151926.250000", "151927.740000", "151929.230000", "151930.720000", "151932.210000", "151933.700000", "151935.190000", "151936.680000", "151938.170000", "151939.660000", "151941.150000", "151942.640000", "151944.130000", "151945.620000", "151947.110000", "151948.600000", "151950.090000", "151951.580000", "151953.070000", "151954.560000", "151956.050000", "151957.540000", "151959.030000", "152000.520000", "152002.010000", "152003.500000", "152004.990000", "152006.480000", "152007.970000", "152009.460000", "152010.950000", "152012.440000", "152013.930000", "152015.420000", "152016.910000", "152018.400000", "152019.890000", "152021.380000", "152022.870000", "152024.360000", "152025.850000", "152027.340000", "152028.830000", "152030.320000", "152031.810000", "152033.300000", "152034.790000", "152036.280000", "152037.770000", "152039.260000", "152040.750000", "152042.240000", "152043.730000", "152045.220000", "152046.710000", "152048.200000", "152049.690000", "152051.180000", "152052.670000", "152054.160000", "152055.650000", "152057.140000", "152058.630000", "152100.120000", "152101.610000", "152103.100000", "152104.590000", "152106.080000", "152107.570000", "152109.060000", "152110.550000", "152112.040000", "152113.530000", "152115.020000", "152116.510000", "152118.000000", "152119.490000", "152120.980000", "152122.470000", "152123.960000", "152125.450000", "152126.940000", "152128.430000", "152129.920000", "152131.410000", "152132.900000", "152134.390000", "152135.880000", "152137.370000", "152138.860000", "152140.350000", "152141.840000", "152143.330000", "152144.820000", "152146.310000", "152147.800000", "152149.290000", "152150.780000", "152152.270000", "152153.760000", "152155.250000", "152156.740000", "152158.230000", "152159.720000", "152201.210000", "152202.700000", "152204.190000", "152205.680000", "152207.170000", "152208.660000", "152210.150000", "152211.640000", "152213.130000", "152214.620000", "152216.110000", "152217.600000", "152219.090000", "152220.580000", "152222.070000", "152223.560000", "152225.050000", "152226.540000", "152228.030000", "152229.520000", "152231.010000", "152232.500000", "152233.990000", "152235.480000", "152236.970000", "152238.460000", "152239.950000", "152241.440000", "152242.930000", "152244.420000", "152245.910000", "152247.400000", "152248.890000", "152250.380000", "152251.870000", "152253.360000", "152254.850000", "152256.340000", "152257.830000", "152259.320000", "152300.810000", "152302.300000", "152303.790000", "152305.280000", "152306.770000", "152308.260000", "152309.750000", "152311.240000", "152312.730000", "152314.220000", "152315.710000", "152317.200000", "152318.690000", "152320.180000", "152321.670000", "152323.160000", "152324.650000", "152326.140000", "152327.630000", "152329.120000", "152330.610000", "152332.100000", "152333.590000", "152335.080000", "152336.570000", "152338.060000", "152339.550000", "152341.040000", "152342.530000", "152344.020000", "152345.510000", "152347.000000", "152348.490000", "152349.980000", "152351.470000", "152352.960000", "152354.450000", "152355.940000", "152357.430000", "152358.920000", "152400.410000", "152401.900000", "152403.390000", "152404.880000", "152406.370000", "152407.860000", "152409.350000", "152410.840000", "152412.330000", "152413.820000", "152415.310000", "152416.800000", "152418.290000", "152419.780000", "152421.270000", "152422.760000", "152424.250000", "152425.740000", "152427.230000", "152428.720000", "152430.210000", "152431.700000", "152433.190000", "152434.680000", "152436.170000", "152437.660000", "152439.150000", "152440.640000", "152442.130000", "152443.620000", "152445.110000", "152446.600000", "152448.090000", "152449.580000", "152451.070000", "152452.560000", "152454.050000", "152455.540000", "152457.030000", "152458.520000", "152500.010000", "152501.500000", "152502.990000", "152504.480000", "152505.970000", "152507.460000", "152508.950000", "152510.440000", "152511.930000", "152513.420000", "152514.910000", "152516.400000", "152517.890000", "152519.380000", "152520.870000", "152522.360000", "152523.850000", "152525.340000", "152526.830000", "152528.320000", "152529.810000", "152531.300000", "152532.790000", "152534.280000", "152535.770000", "152537.260000", "152538.750000", "152540.240000", "152541.730000", "152543.220000", "152544.710000", "152546.200000", "152547.690000", "152549.180000", "152550.670000", "152552.160000", "152553.650000", "152555.140000", "152556.630000", "152558.120000", "152559.610000", "152601.100000", "152602.590000", "152604.080000", "152605.570000", "152607.060000", "152608.550000", "152610.040000", "152611.530000", "152613.020000", "152614.510000", "152616.000000", "152617.490000", "152618.980000", "152620.470000", "152621.960000", "152623.450000", "152624.940000", "152626.430000", "152627.920000", "152629.410000", "152630.900000", "152632.390000", "152633.880000", "152635.370000", "152636.860000", "152638.350000", "152639.840000", "152641.330000", "152642.820000", "152644.310000", "152645.800000", "152647.290000"],
      "ContentTime": ["151614.526000", "151614.529000", "151614.532000", "151614.535000", "151614.537000", "151614.540000", "151614.543000", "151614.546000", "151614.549000", "151614.552000", "151614.554000", "151614.557000", "151614.560000", "151614.563000", "151614.566000", "151614.569000", "151614.571000", "151614.574000", "151614.577000", "151614.580000", "151614.583000", "151614.586000", "151614.588000", "151614.591000", "151614.594000", "151614.597000", "151614.600000", "151614.607000", "151614.610000", "151614.613000", "151614.616000", "151614.619000", "151634.502000", "151634.505000", "151634.508000", "151634.511000", "151634.513000", "151634.517000", "151634.520000", "151634.524000", "151634.528000", "151634.531000", "151634.534000", "151634.537000", "151634.540000", "151634.543000", "151634.546000", "151634.549000", "151634.552000", "151634.555000", "151634.558000", "151634.561000", "151654.502000", "151654.505000", "151654.508000", "151654.510000", "151654.513000", "151654.516000", "151654.519000", "151654.522000", "151654.524000", "151654.527000", "151654.530000", "151654.533000", "151654.536000", "151654.538000", "151654.541000", "151654.544000", "151654.547000", "151654.550000", "151654.552000", "151654.555000", "151654.558000", "151714.502000", "151714.505000", "151714.508000", "151714.511000", "151714.513000", "151714.516000", "151714.519000", "151714.522000", "151714.525000", "151714.527000", "151714.530000", "151714.533000", "151714.536000", "151714.539000", "151714.541000", "151714.544000", "151714.547000", "151714.558000", "151714.561000", "151714.564000", "151734.502000", "151734.505000", "151734.514000", "151734.517000", "151734.520000", "151734.522000", "151734.525000", "151734.528000", "151734.531000", "151734.534000", "151734.537000", "151734.539000", "151734.542000", "151734.545000", "151734.548000", "151734.551000", "151734.554000", "151734.556000", "151734.559000", "151734.562000", "151814.502000", "151814.505000", "151814.508000", "151814.511000", "151814.513000", "151814.516000", "151814.519000", "151814.522000", "151814.525000", "151814.527000", "151814.530000", "151814.533000", "151814.536000", "151814.541000", "151814.544000", "151814.547000", "151814.549000", "151814.552000", "151814.555000", "151814.558000", "151814.561000", "151814.564000", "151814.566000", "151814.569000", "151814.572000", "151814.575000", "151814.578000", "151854.502000", "151854.505000", "151854.508000", "151854.511000", "151854.513000", "151854.516000", "151854.519000", "151854.522000", "151854.525000", "151854.527000", "151854.530000", "151854.533000", "151854.536000", "151854.539000", "151854.541000", "151854.544000", "151854.547000", "151854.550000", "151854.553000", "151854.556000", "151854.558000", "151854.561000", "151854.564000", "151854.567000", "151854.570000", "151854.573000", "151854.577000", "151934.502000", "151934.505000", "151934.508000", "151934.511000", "151934.513000", "151934.516000", "151934.519000", "151934.522000", "151934.525000", "151934.528000", "151934.530000", "151934.533000", "151934.536000", "151934.539000", "151934.542000", "151934.544000", "151934.547000", "151934.550000", "151934.553000", "151934.556000", "151934.559000", "151934.562000", "151934.564000", "151934.567000", "151934.570000", "151934.573000", "151934.576000", "152014.502000", "152014.505000", "152014.508000", "152014.511000", "152014.514000", "152014.516000", "152014.519000", "152014.522000", "152014.525000", "152014.528000", "152014.531000", "152014.533000", "152014.536000", "152014.539000", "152014.542000", "152014.545000", "152014.548000", "152014.550000", "152014.553000", "152014.556000", "152014.559000", "152014.562000", "152014.564000", "152014.567000", "152014.570000", "152014.573000", "152014.581000", "152054.502000", "152054.505000", "152054.508000", "152054.511000", "152054.514000", "152054.516000", "152054.519000", "152054.522000", "152054.525000", "152054.528000", "152054.530000", "152054.533000", "152054.536000", "152054.539000", "152054.542000", "152054.545000", "152054.548000", "152054.550000", "152054.553000", "152054.556000", "152054.559000", "152054.563000", "152054.566000", "152054.568000", "152054.571000", "152054.574000", "152134.502000", "152134.505000", "152134.508000", "152134.511000", "152134.514000", "152134.516000", "152134.519000", "152134.522000", "152134.525000", "152134.528000", "152134.531000", "152134.533000", "152134.536000", "152134.539000", "152134.542000", "152134.545000", "152134.548000", "152134.550000", "152134.553000", "152134.556000", "152134.559000", "152134.562000", "152134.565000", "152134.568000", "152134.570000", "152134.573000", "152134.576000", "152214.502000", "152214.505000", "152214.508000", "152214.511000", "152214.513000", "152214.516000", "152214.519000", "152214.522000", "152214.525000", "152214.528000", "152214.531000", "152214.533000", "152214.536000", "152214.539000", "152214.542000", "152214.545000", "152214.547000", "152214.550000", "152214.553000", "152214.556000", "152214.559000", "152214.562000", "152214.565000", "152214.567000", "152214.570000", "152214.573000", "152214.576000", "152254.502000", "152254.505000", "152254.508000", "152254.510000", "152254.513000", "152254.516000", "152254.519000", "152254.522000", "152254.524000", "152254.527000", "152254.530000", "152254.533000", "152254.536000", "152254.539000", "152254.541000", "152254.544000", "152254.547000", "152254.550000", "152254.553000", "152254.556000", "152254.559000", "152254.561000", "152254.564000", "152254.567000", "152254.570000", "152254.573000", "152254.576000", "152334.502000", "152334.505000", "152334.508000", "152334.511000", "152334.514000", "152334.516000", "152334.519000", "152334.522000", "152334.525000", "152334.528000", "152334.531000", "152334.534000", "152334.536000", "152334.539000", "152334.542000", "152334.545000", "152334.548000", "152334.551000", "152334.553000", "152334.556000", "152334.559000", "152334.562000", "152334.565000", "152334.568000", "152334.571000", "152334.573000", "152334.576000", "152414.502000", "152414.505000", "152414.508000", "152414.511000", "152414.513000", "152414.516000", "152414.519000", "152414.522000", "152414.525000", "152414.528000", "152414.531000", "152414.533000", "152414.536000", "152414.539000", "152414.542000", "152414.545000", "152414.548000", "152414.551000", "152414.553000", "152414.556000", "152414.559000", "152414.562000", "152414.565000", "152414.568000", "152414.571000", "152414.573000", "152414.576000", "152454.502000", "152454.505000", "152454.508000", "152454.522000", "152454.525000", "152454.528000", "152454.531000", "152454.534000", "152454.537000", "152454.539000", "152454.542000", "152454.545000", "152454.548000", "152454.551000", "152454.554000", "152454.556000", "152454.559000", "152454.562000", "152454.565000", "152454.569000", "152454.572000", "152454.574000", "152454.577000", "152454.580000", "152454.584000", "152454.592000", "152534.502000", "152534.505000", "152534.508000", "152534.511000", "152534.513000", "152534.516000", "152534.519000", "152534.522000", "152534.525000", "152534.527000", "152534.530000", "152534.533000", "152534.536000", "152534.539000", "152534.542000", "152534.545000", "152534.547000", "152534.550000", "152534.553000", "152534.556000", "152534.559000", "152534.562000", "152534.565000", "152534.568000", "152534.570000", "152534.573000", "152534.576000", "152614.502000", "152614.505000", "152614.508000", "152614.511000", "152614.514000", "152614.516000", "152614.519000", "152614.522000", "152614.525000", "152614.528000", "152614.531000", "152614.533000", "152614.536000", "152614.539000", "152614.542000", "152614.545000", "152614.548000", "152614.550000", "152614.553000", "152614.556000", "152614.559000", "152614.562000", "152614.579000", "152614.582000", "152614.584000", "152614.587000", "152614.590000", "152649.358000", "152649.361000", "152649.364000", "152649.367000", "152649.370000", "152649.372000", "152649.375000", "152649.378000", "152649.381000", "152649.384000", "152649.387000", "152649.390000", "152649.393000", "152649.396000", "152649.399000", "152649.402000", "152649.405000", "152649.408000", "152649.411000", "152649.414000", "152649.417000", "152649.420000", "152649.422000", "152649.425000"],
