{
  "AcquisitionMatrixPE": 104,
  "AcquisitionNumber": 1,
  "AcquisitionTime": "09:29:22.060000",
  "BandwidthPerPixelPhaseEncode": 17.17,
  "BaseResolution": 104,
  "BodyPartExamined": "BRAIN",
  "CoilString": "HC1-7;NC1_2",
  "ConsistencyInfo": "N4_VE11C_LATEST_20160120",
  "ConversionSoftware": "dcm2niix",
  "ConversionSoftwareVersion": "v1.0.20190902",
  "DerivedVendorReportedEchoSpacing": 0.000560011,
  "DeviceSerialNumber": "167006",
  "DwellTime": 2.1e-06,
  "EchoTime": 0.037,
  "EchoTrainLength": 104,
  "EffectiveEchoSpacing": 0.000560011,
  "FlipAngle": 52,
  "ImageComments": "Unaliased_MB4_PE3_LB",
  "ImageOrientationPatientDICOM": [0.997844, -0.0647942, 0.0104603, 0.0645277, 0.93937, -0.33678],
  "ImageType": [
    "ORIGINAL",
    "PRIMARY",
    "M",
    "MB",
    "ND",
    "MOSAIC"
],
  "ImagingFrequency": 123.259,
  "InPlanePhaseEncodingDirectionDICOM": "COL",
  "InstitutionAddress": "Chemin_Queen-Mary_4565_Montreal_District_CA_H3W_1W5",
  "InstitutionName": "IUGM",
  "InstitutionalDepartmentName": "Department",
  "MRAcquisitionType": "2D",
  "MagneticFieldStrength": 3,
  "Manufacturer": "Siemens",
  "ManufacturersModelName": "Prisma_fit",
  "Modality": "MR",
  "MultibandAccelerationFactor": 4,
  "PartialFourier": 1,
  "PatientPosition": "HFS",
  "PercentPhaseFOV": 100,
  "PhaseEncodingDirection": "j",
  "PhaseEncodingSteps": 104,
  "PhaseResolution": 1,
  "PixelBandwidth": 2290,
  "ProcedureStepDescription": "video_friends",
  "ProtocolName": "func_task-friends-s04e06b",
  "PulseSequenceDetails": "%CustomerSeq%_cmrr_mbep2d_bold",
  "ReceiveCoilActiveElements": "HC1-7;NC1,2",
  "ReceiveCoilName": "HeadNeck_64",
  "ReconMatrixPE": 104,
  "RepetitionTime": 1.49,
  "SAR": 0.0313633,
  "ScanOptions": "FS",
  "ScanningSequence": "EP",
  "SequenceName": "epfid2d1_104",
  "SequenceVariant": "SK_SS",
  "SeriesDescription": "func_task-friends-s04e06b",
  "SeriesNumber": 11,
  "ShimSetting": [636, -7257, -8834, 568, 5, -254, -70, -10],
  "SliceThickness": 2,
  "SliceTiming": [0, 0.785, 0.0975, 0.8825, 0.195, 0.98, 0.295, 1.0775, 0.3925, 1.175, 0.49, 1.275, 0.5875, 1.3725, 0.685, 0, 0.785, 0.0975, 0.8825, 0.195, 0.98, 0.295, 1.0775, 0.3925, 1.175, 0.49, 1.275, 0.5875, 1.3725, 0.685, 0, 0.785, 0.0975, 0.8825, 0.195, 0.98, 0.295, 1.0775, 0.3925, 1.175, 0.49, 1.275, 0.5875, 1.3725, 0.685, 0, 0.785, 0.0975, 0.8825, 0.195, 0.98, 0.295, 1.0775, 0.3925, 1.175, 0.49, 1.275, 0.5875, 1.3725, 0.685],
  "SoftwareVersions": "syngo_MR_E11",
  "SpacingBetweenSlices": 2,
  "StationName": "MRC35049",
  "TaskName": "s04e06b",
  "TotalReadoutTime": 0.0576811,
  "TxRefAmp": 219.344,
  "WipMemBlock": "ca49c2a8-83e3-4dba-82a0-f230ab2feaf5||Sequence: R016 ve11c/master r/e634e98; Dec 19 2017 11:00:25 by eja",
  "dcmmeta_affine": [
    [-1.9956876039505005, 0.1290554255247116, -0.023990554735064507, 95.87246704101562],
    [0.12958848476409912, 1.8787394762039185, -0.6734572649002075, -79.00823974609375],
    [0.020920654758810997, 0.6735596060752869, 1.8830506801605225, -64.19989776611328],
    [0.0, 0.0, 0.0, 1.0]
],
  "dcmmeta_reorient_transform": [
    [0.0, -1.0, 0.0, 103.0],
    [1.0, 0.0, 0.0, 0.0],
    [0.0, 0.0, 1.0, 0.0],
    [0.0, 0.0, 0.0, 1.0]
],
  "dcmmeta_shape": [104, 104, 60, 465],
  "dcmmeta_slice_dim": 2,
  "dcmmeta_version": 0.6,
  "global": {
    "const": {
      "AcquisitionMatrix": [104, 0, 0, 104],
      "AngioFlag": "N",
      "BitsAllocated": 16,
      "BitsStored": 16,
      "BodyPartExamined": "BRAIN",
      "Columns": 832,
      "EchoNumbers": 1,
      "EchoTime": 37.0,
      "EchoTrainLength": 104,
      "FlipAngle": 52.0,
      "HighBit": 15,
      "ImageOrientationPatient": [0.99784381932278, -0.0647942419287, 0.01046032753912, 0.06452771151684, 0.93936975121448, -0.3367798167195],
      "ImagePositionPatient": [-882.57165233864, -751.19290145406, 242.73733411736],
      "ImageType": [
        "ORIGINAL",
        "PRIMARY",
        "M",
        "MB",
        "ND",
        "MOSAIC"
],
      "ImagedNucleus": "1H",
      "ImagingFrequency": 123.259054,
      "InPlanePhaseEncodingDirection": "COL",
      "MRAcquisitionType": "2D",
      "MagneticFieldStrength": 3.0,
      "Manufacturer": "SIEMENS",
      "ManufacturerModelName": "Prisma_fit",
      "Modality": "MR",
      "NumberOfAverages": 1.0,
      "NumberOfPhaseEncodingSteps": 104,
      "PercentPhaseFieldOfView": 100.0,
      "PercentSampling": 100.0,
      "PerformedProcedureStepStartTime": "085734.843000",
      "PhotometricInterpretation": "MONOCHROME2",
      "PixelBandwidth": 2290.0,
      "PixelRepresentation": 0,
      "PixelSpacing": [2.0, 2.0],
      "ProtocolName": "func_task-friends-s04e06b",
      "RepetitionTime": 1490.0,
      "Rows": 832,
      "SAR": 0.03136335001523,
      "SamplesPerPixel": 1,
      "ScanOptions": "FS",
      "ScanningSequence": "EP",
      "SequenceName": "epfid2d1_104",
      "SequenceVariant": [
        "SK",
        "SS"
],
      "SeriesDescription": "func_task-friends-s04e06b",
      "SeriesNumber": 11,
      "SeriesTime": "093053.814000",
      "SliceLocation": -34.991508518395,
      "SliceThickness": 2.0,
      "SmallestImagePixelValue": 0,
      "SoftwareVersions": "syngo MR E11",
      "SpacingBetweenSlices": 2.0000000141053,
      "SpecificCharacterSet": "ISO_IR 100",
      "StudyID": "1",
      "StudyTime": "085734.721000",
      "TransmitCoilName": "Body",
      "VariableFlipAngleFlag": "N",
      "WindowCenterWidthExplanation": "Algo1",
      "dBdt": 0.0},
    "slices": {}
  },
  "time": {
    "samples": {
      "AcquisitionNumber": [1, 2, 3, 4, 5, 6, 7, 8, 9, 10, 11, 12, 13, 14, 15, 16, 17, 18, 19, 20, 21, 22, 23, 24, 25, 26, 27, 28, 29, 30, 31, 32, 33, 34, 35, 36, 37, 38, 39, 40, 41, 42, 43, 44, 45, 46, 47, 48, 49, 50, 51, 52, 53, 54, 55, 56, 57, 58, 59, 60, 61, 62, 63, 64, 65, 66, 67, 68, 69, 70, 71, 72, 73, 74, 75, 76, 77, 78, 79, 80, 81, 82, 83, 84, 85, 86, 87, 88, 89, 90, 91, 92, 93, 94, 95, 96, 97, 98, 99, 100, 101, 102, 103, 104, 105, 106, 107, 108, 109, 110, 111, 112, 113, 114, 115, 116, 117, 118, 119, 120, 121, 122, 123, 124, 125, 126, 127, 128, 129, 130, 131, 132, 133, 134, 135, 136, 137, 138, 139, 140, 141, 142, 143, 144, 145, 146, 147, 148, 149, 150, 151, 152, 153, 154, 155, 156, 157, 158, 159, 160, 161, 162, 163, 164, 165, 166, 167, 168, 169, 170, 171, 172, 173, 174, 175, 176, 177, 178, 179, 180, 181, 182, 183, 184, 185, 186, 187, 188, 189, 190, 191, 192, 193, 194, 195, 196, 197, 198, 199, 200, 201, 202, 203, 204, 205, 206, 207, 208, 209, 210, 211, 212, 213, 214, 215, 216, 217, 218, 219, 220, 221, 222, 223, 224, 225, 226, 227, 228, 229, 230, 231, 232, 233, 234, 235, 236, 237, 238, 239, 240, 241, 242, 243, 244, 245, 246, 247, 248, 249, 250, 251, 252, 253, 254, 255, 256, 257, 258, 259, 260, 261, 262, 263, 264, 265, 266, 267, 268, 269, 270, 271, 272, 273, 274, 275, 276, 277, 278, 279, 280, 281, 282, 283, 284, 285, 286, 287, 288, 289, 290, 291, 292, 293, 294, 295, 296, 297, 298, 299, 300, 301, 302, 303, 304, 305, 306, 307, 308, 309, 310, 311, 312, 313, 314, 315, 316, 317, 318, 319, 320, 321, 322, 323, 324, 325, 326, 327, 328, 329, 330, 331, 332, 333, 334, 335, 336, 337, 338, 339, 340, 341, 342, 343, 344, 345, 346, 347, 348, 349, 350, 351, 352, 353, 354, 355, 356, 357, 358, 359, 360, 361, 362, 363, 364, 365, 366, 367, 368, 369, 370, 371, 372, 373, 374, 375, 376, 377, 378, 379, 380, 381, 382, 383, 384, 385, 386, 387, 388, 389, 390, 391, 392, 393, 394, 395, 396, 397, 398, 399, 400, 401, 402, 403, 404, 405, 406, 407, 408, 409, 410, 411, 412, 413, 414, 415, 416, 417, 418, 419, 420, 421, 422, 423, 424, 425, 426, 427, 428, 429, 430, 431, 432, 433, 434, 435, 436, 437, 438, 439, 440, 441, 442, 443, 444, 445, 446, 447, 448, 449, 450, 451, 452, 453, 454, 455, 456, 457, 458, 459, 460, 461, 462, 463, 464, 465],
      "AcquisitionTime": ["092922.060000", "092923.550000", "092925.040000", "092926.530000", "092928.020000", "092929.510000", "092931.000000", "092932.490000", "092933.980000", "092935.470000", "092936.960000", "092938.450000", "092939.940000", "092941.430000", "092942.920000", "092944.410000", "092945.900000", "092947.390000", "092948.880000", "092950.370000", "092951.860000", "092953.350000", "092954.840000", "092956.330000", "092957.820000", "092959.310000", "093000.800000", "093002.290000", "093003.780000", "093005.270000", "093006.760000", "093008.250000", "093009.740000", "093011.230000", "093012.720000", "093014.210000", "093015.700000", "093017.190000", "093018.680000", "093020.170000", "093021.660000", "093023.150000", "093024.640000", "093026.130000", "093027.620000", "093029.110000", "093030.600000", "093032.090000", "093033.580000", "093035.070000", "093036.560000", "093038.050000", "093039.540000", "093041.030000", "093042.520000", "093044.010000", "093045.500000", "093046.990000", "093048.480000", "093049.970000", "093051.460000", "093052.950000", "093054.440000", "093055.930000", "093057.420000", "093058.910000", "093100.400000", "093101.890000", "093103.380000", "093104.870000", "093106.360000", "093107.850000", "093109.340000", "093110.830000", "093112.320000", "093113.810000", "093115.300000", "093116.790000", "093118.280000", "093119.770000", "093121.260000", "093122.750000", "093124.240000", "093125.730000", "093127.220000", "093128.710000", "093130.200000", "093131.690000", "093133.180000", "093134.670000", "093136.160000", "093137.650000", "093139.140000", "093140.630000", "093142.120000", "093143.610000", "093145.100000", "093146.590000", "093148.080000", "093149.570000", "093151.060000", "093152.550000", "093154.040000", "093155.530000", "093157.020000", "093158.510000", "093200.000000", "093201.490000", "093202.980000", "093204.470000", "093205.960000", "093207.450000", "093208.940000", "093210.430000", "093211.920000", "093213.410000", "093214.900000", "093216.390000", "093217.880000", "093219.370000", "093220.860000", "093222.350000", "093223.840000", "093225.330000", "093226.820000", "093228.310000", "093229.800000", "093231.290000", "093232.780000", "093234.270000", "093235.760000", "093237.250000", "093238.740000", "093240.230000", "093241.720000", "093243.210000", "093244.700000", "093246.190000", "093247.680000", "093249.170000", "093250.660000", "093252.150000", "093253.640000", "093255.130000", "093256.620000", "093258.110000", "093259.600000", "093301.090000", "093302.580000", "093304.070000", "093305.560000", "093307.050000", "093308.540000", "093310.030000", "093311.520000", "093313.010000", "093314.500000", "093315.990000", "093317.480000", "093318.970000", "093320.460000", "093321.950000", "093323.440000", "093324.930000", "093326.420000", "093327.910000", "093329.400000", "093330.890000", "093332.380000", "093333.870000", "093335.360000", "093336.850000", "093338.340000", "093339.830000", "093341.320000", "093342.810000", "093344.300000", "093345.790000", "093347.280000", "093348.770000", "093350.260000", "093351.750000", "093353.240000", "093354.730000", "093356.220000", "093357.710000", "093359.200000", "093400.690000", "093402.180000", "093403.670000", "093405.160000", "093406.650000", "093408.140000", "093409.630000", "093411.120000", "093412.610000", "093414.100000", "093415.590000", "093417.080000", "093418.570000", "093420.060000", "093421.550000", "093423.040000", "093424.530000", "093426.020000", "093427.510000", "093429.000000", "093430.490000", "093431.980000", "093433.470000", "093434.960000", "093436.450000", "093437.940000", "093439.430000", "093440.920000", "093442.410000", "093443.900000", "093445.390000", "093446.880000", "093448.370000", "093449.860000", "093451.350000", "093452.840000", "093454.330000", "093455.820000", "093457.310000", "093458.800000", "093500.290000", "093501.780000", "093503.270000", "093504.760000", "093506.250000", "093507.740000", "093509.230000", "093510.720000", "093512.210000", "093513.700000", "093515.190000", "093516.680000", "093518.170000", "093519.660000", "093521.150000", "093522.640000", "093524.130000", "093525.620000", "093527.110000", "093528.600000", "093530.090000", "093531.580000", "093533.070000", "093534.560000", "093536.050000", "093537.540000", "093539.030000", "093540.520000", "093542.010000", "093543.500000", "093544.990000", "093546.480000", "093547.970000", "093549.460000", "093550.950000", "093552.440000", "093553.930000", "093555.420000", "093556.910000", "093558.400000", "093559.890000", "093601.380000", "093602.870000", "093604.360000", "093605.850000", "093607.340000", "093608.830000", "093610.320000", "093611.810000", "093613.300000", "093614.790000", "093616.280000", "093617.770000", "093619.260000", "093620.750000", "093622.240000", "093623.730000", "093625.220000", "093626.710000", "093628.200000", "093629.690000", "093631.180000", "093632.670000", "093634.160000", "093635.650000", "093637.140000", "093638.630000", "093640.120000", "093641.610000", "093643.100000", "093644.590000", "093646.080000", "093647.570000", "093649.060000", "093650.550000", "093652.040000", "093653.530000", "093655.020000", "093656.510000", "093658.000000", "093659.490000", "093700.980000", "093702.470000", "093703.960000", "093705.450000", "093706.940000", "093708.430000", "093709.920000", "093711.410000", "093712.900000", "093714.390000", "093715.880000", "093717.370000", "093718.860000", "093720.350000", "093721.840000", "093723.330000", "093724.820000", "093726.310000", "093727.800000", "093729.290000", "093730.780000", "093732.270000", "093733.760000", "093735.250000", "093736.740000", "093738.230000", "093739.720000", "093741.210000", "093742.700000", "093744.190000", "093745.680000", "093747.170000", "093748.660000", "093750.150000", "093751.640000", "093753.130000", "093754.620000", "093756.110000", "093757.600000", "093759.090000", "093800.580000", "093802.070000", "093803.560000", "093805.050000", "093806.540000", "093808.030000", "093809.520000", "093811.010000", "093812.500000", "093813.990000", "093815.480000", "093816.970000", "093818.460000", "093819.950000", "093821.440000", "093822.930000", "093824.420000", "093825.910000", "093827.400000", "093828.890000", "093830.380000", "093831.870000", "093833.360000", "093834.850000", "093836.340000", "093837.830000", "093839.320000", "093840.810000", "093842.300000", "093843.790000", "093845.280000", "093846.770000", "093848.260000", "093849.750000", "093851.240000", "093852.730000", "093854.220000", "093855.710000", "093857.200000", "093858.690000", "093900.180000", "093901.670000", "093903.160000", "093904.650000", "093906.140000", "093907.630000", "093909.120000", "093910.610000", "093912.100000", "093913.590000", "093915.080000", "093916.570000", "093918.060000", "093919.550000", "093921.040000", "093922.530000", "093924.020000", "093925.510000", "093927.000000", "093928.490000", "093929.980000", "093931.470000", "093932.960000", "093934.450000", "093935.940000", "093937.430000", "093938.920000", "093940.410000", "093941.900000", "093943.390000", "093944.880000", "093946.370000", "093947.860000", "093949.350000", "093950.840000", "093952.330000", "093953.820000", "093955.310000", "093956.800000", "093958.290000", "093959.780000", "094001.270000", "094002.760000", "094004.250000", "094005.740000", "094007.230000", "094008.720000", "094010.210000", "094011.700000", "094013.190000", "094014.680000", "094016.170000", "094017.660000", "094019.150000", "094020.640000", "094022.130000", "094023.620000", "094025.110000", "094026.600000", "094028.090000", "094029.580000", "094031.070000", "094032.560000", "094034.050000", "094035.540000", "094037.030000", "094038.520000", "094040.010000", "094041.500000", "094042.990000", "094044.480000", "094045.970000", "094047.460000", "094048.950000", "094050.440000", "094051.930000", "094053.420000"],
      "ContentTime": ["093053.817000", "093053.820000", "093053.823000", "093053.826000", "093053.829000", "093053.832000", "093053.835000", "093053.837000", "093053.840000", "093053.843000", "093053.846000", "093053.849000", "093053.852000", "093053.855000", "093053.858000", "093053.860000", "093053.863000", "093053.866000", "093053.869000", "093053.872000", "093053.875000", "093053.878000", "093053.881000", "093053.884000", "093053.887000", "093053.889000", "093053.892000", "093053.895000", "093053.898000", "093053.901000", "093053.904000", "093053.907000", "093053.910000", "093053.912000", "093053.915000", "093053.918000", "093053.921000", "093053.924000", "093053.927000", "093113.781000", "093113.784000", "093113.787000", "093113.790000", "093113.793000", "093113.796000", "093113.798000", "093113.801000", "093113.804000", "093113.807000", "093113.810000", "093113.813000", "093113.816000", "093113.819000", "093113.822000", "093113.824000", "093113.827000", "093113.830000", "093113.833000", "093113.836000", "093133.780000", "093133.783000", "093133.786000", "093133.789000", "093133.792000", "093133.794000", "093133.797000", "093133.800000", "093133.803000", "093133.806000", "093133.809000", "093133.812000", "093133.814000", "093133.817000", "093133.820000", "093133.823000", "093133.826000", "093133.829000", "093133.832000", "093133.835000", "093153.780000", "093153.783000", "093153.786000", "093153.789000", "093153.791000", "093153.794000", "093153.797000", "093153.800000", "093153.803000", "093153.806000", "093153.809000", "093153.812000", "093153.814000", "093153.827000", "093153.830000", "093153.833000", "093153.836000", "093153.839000", "093153.841000", "093153.844000", "093233.780000", "093233.783000", "093233.786000", "093233.789000", "093233.791000", "093233.794000", "093233.797000", "093233.800000", "093233.803000", "093233.806000", "093233.809000", "093233.812000", "093233.814000", "093233.817000", "093233.820000", "093233.823000", "093233.826000", "093233.829000", "093233.832000", "093233.835000", "093233.838000", "093233.841000", "093233.843000", "093233.846000", "093233.849000", "093233.852000", "093233.855000", "093233.858000", "093233.861000", "093313.781000", "093313.784000", "093313.787000", "093313.790000", "093313.793000", "093313.796000", "093313.799000", "093313.802000", "093313.805000", "093313.808000", "093313.811000", "093313.814000", "093313.817000", "093313.820000", "093313.823000", "093313.826000", "093313.829000", "093313.832000", "093313.835000", "093313.838000", "093313.841000", "093313.843000", "093313.846000", "093313.849000", "093313.852000", "093313.855000", "093353.780000", "093353.783000", "093353.786000", "093353.789000", "093353.792000", "093353.795000", "093353.797000", "093353.800000", "093353.803000", "093353.806000", "093353.809000", "093353.812000", "093353.815000", "093353.818000", "093353.820000", "093353.823000", "093353.826000", "093353.829000", "093353.832000", "093353.835000", "093353.838000", "093353.841000", "093353.844000", "093353.847000", "093353.850000", "093353.853000", "093353.855000", "093433.780000", "093433.783000", "093433.786000", "093433.789000", "093433.792000", "093433.795000", "093433.797000", "093433.800000", "093433.803000", "093433.806000", "093433.809000", "093433.812000", "093433.815000", "093433.818000", "093433.820000", "093433.823000", "093433.826000", "093433.829000", "093433.832000", "093433.835000", "093433.838000", "093433.841000", "093433.844000", "093433.847000", "093433.850000", "093433.853000", "093433.856000", "093513.781000", "093513.784000", "093513.787000", "093513.790000", "093513.793000", "093513.796000", "093513.799000", "093513.802000", "093513.804000", "093513.807000", "093513.810000", "093513.813000", "093513.816000", "093513.819000", "093513.822000", "093513.824000", "093513.827000", "093513.830000", "093513.833000", "093513.836000", "093513.839000", "093513.842000", "093513.845000", "093513.848000", "093513.851000", "093513.853000", "093513.856000", "093553.781000", "093553.784000", "093553.787000", "093553.790000", "093553.793000", "093553.796000", "093553.799000", "093553.801000", "093553.804000", "093553.807000", "093553.810000", "093553.813000", "093553.816000", "093553.819000", "093553.822000", "093553.825000", "093553.827000", "093553.830000", "093553.833000", "093553.836000", "093553.839000", "093553.842000", "093553.845000", "093553.848000", "093553.851000", "093553.854000", "093553.857000", "093633.780000", "093633.783000", "093633.786000", "093633.789000", "093633.792000", "093633.795000", "093633.798000", "093633.800000", "093633.803000", "093633.806000", "093633.809000", "093633.812000", "093633.815000", "093633.818000", "093633.821000", "093633.824000", "093633.826000", "093633.829000", "093633.832000", "093633.849000", "093633.852000", "093633.854000", "093633.857000", "093633.860000", "093633.863000", "093633.866000", "093633.869000", "093713.780000", "093713.783000", "093713.786000", "093713.789000", "093713.792000", "093713.795000", "093713.798000", "093713.800000", "093713.803000", "093713.807000", "093713.810000", "093713.813000", "093713.816000", "093713.819000", "093713.822000", "093713.824000", "093713.827000", "093713.830000", "093713.833000", "093713.836000", "093713.839000", "093713.842000", "093713.845000", "093713.848000", "093713.850000", "093713.853000", "093753.781000", "093753.784000", "093753.787000", "093753.790000", "093753.793000", "093753.795000", "093753.798000", "093753.801000", "093753.804000", "093753.807000", "093753.810000", "093753.813000", "093753.816000", "093753.819000", "093753.822000", "093753.824000", "093753.827000", "093753.830000", "093753.833000", "093753.836000", "093753.839000", "093753.842000", "093753.845000", "093753.848000", "093753.851000", "093753.853000", "093753.856000", "093833.780000", "093833.783000", "093833.786000", "093833.789000", "093833.792000", "093833.795000", "093833.798000", "093833.800000", "093833.803000", "093833.806000", "093833.809000", "093833.812000", "093833.815000", "093833.818000", "093833.821000", "093833.824000", "093833.826000", "093833.829000", "093833.832000", "093833.835000", "093833.838000", "093833.841000", "093833.844000", "093833.847000", "093833.850000", "093833.853000", "093833.855000", "093913.780000", "093913.783000", "093913.786000", "093913.789000", "093913.792000", "093913.794000", "093913.797000", "093913.800000", "093913.803000", "093913.806000", "093913.809000", "093913.812000", "093913.815000", "093913.818000", "093913.820000", "093913.823000", "093913.826000", "093913.829000", "093913.832000", "093913.835000", "093913.838000", "093913.841000", "093913.844000", "093913.846000", "093913.849000", "093913.852000", "093913.855000", "093953.781000", "093953.784000", "093953.787000", "093953.790000", "093953.793000", "093953.796000", "093953.799000", "093953.802000", "093953.805000", "093953.807000", "093953.810000", "093953.813000", "093953.816000", "093953.819000", "093953.822000", "093953.825000", "093953.828000", "093953.831000", "093953.834000", "093953.837000", "093953.840000", "093953.842000", "093953.845000", "093953.848000", "093953.851000", "093953.854000", "093953.857000", "094033.781000", "094033.784000", "094033.787000", "094033.790000", "094033.793000", "094033.796000", "094033.799000", "094033.802000", "094033.805000", "094033.807000", "094033.810000", "094033.813000", "094033.816000", "094033.819000", "094033.822000", "094033.825000", "094033.828000", "094033.831000", "094033.833000", "094033.836000", "094033.839000", "094033.842000", "094033.845000", "094033.848000", "094033.851000", "094033.854000", "094033.857000", "094055.880000", "094055.883000", "094055.892000", "094055.895000", "094055.898000", "094055.901000", "094055.904000", "094055.907000", "094055.910000", "094055.913000", "094055.916000", "094055.919000", "094055.922000", "094055.925000", "094055.928000"],
