{
  "AcquisitionMatrixPE": 104,
  "AcquisitionNumber": 1,
  "AcquisitionTime": "09:54:10.630000",
  "BandwidthPerPixelPhaseEncode": 17.17,
  "BaseResolution": 104,
  "BodyPartExamined": "BRAIN",
  "CoilString": "HC1-7;NC1_2",
  "ConsistencyInfo": "N4_VE11C_LATEST_20160120",
  "ConversionSoftware": "dcm2niix",
  "ConversionSoftwareVersion": "v1.0.20190902",
  "DerivedVendorReportedEchoSpacing": 0.000560011,
  "DeviceSerialNumber": "167006",
  "DwellTime": 2.1e-06,
  "EchoTime": 0.037,
  "EchoTrainLength": 104,
  "EffectiveEchoSpacing": 0.000560011,
  "FlipAngle": 52,
  "ImageComments": "Unaliased_MB4_PE3_LB",
  "ImageOrientationPatientDICOM": [0.997844, -0.0647942, 0.0104603, 0.0645277, 0.93937, -0.33678],
  "ImageType": [
    "ORIGINAL",
    "PRIMARY",
    "M",
    "MB",
    "ND",
    "MOSAIC"
],
  "ImagingFrequency": 123.259,
  "InPlanePhaseEncodingDirectionDICOM": "COL",
  "InstitutionAddress": "Chemin_Queen-Mary_4565_Montreal_District_CA_H3W_1W5",
  "InstitutionName": "IUGM",
  "InstitutionalDepartmentName": "Department",
  "MRAcquisitionType": "2D",
  "MagneticFieldStrength": 3,
  "Manufacturer": "Siemens",
  "ManufacturersModelName": "Prisma_fit",
  "Modality": "MR",
  "MultibandAccelerationFactor": 4,
  "PartialFourier": 1,
  "PatientPosition": "HFS",
  "PercentPhaseFOV": 100,
  "PhaseEncodingDirection": "j",
  "PhaseEncodingSteps": 104,
  "PhaseResolution": 1,
  "PixelBandwidth": 2290,
  "ProcedureStepDescription": "video_friends",
  "ProtocolName": "func_task-friends-s04e07b",
  "PulseSequenceDetails": "%CustomerSeq%_cmrr_mbep2d_bold",
  "ReceiveCoilActiveElements": "HC1-7;NC1,2",
  "ReceiveCoilName": "HeadNeck_64",
  "ReconMatrixPE": 104,
  "RepetitionTime": 1.49,
  "SAR": 0.0313719,
  "ScanOptions": "FS",
  "ScanningSequence": "EP",
  "SequenceName": "epfid2d1_104",
  "SequenceVariant": "SK_SS",
  "SeriesDescription": "func_task-friends-s04e07b",
  "SeriesNumber": 15,
  "ShimSetting": [636, -7257, -8834, 568, 5, -254, -70, -10],
  "SliceThickness": 2,
  "SliceTiming": [0, 0.785, 0.0975, 0.8825, 0.1975, 0.98, 0.295, 1.0775, 0.3925, 1.1775, 0.49, 1.275, 0.5875, 1.3725, 0.6875, 0, 0.785, 0.0975, 0.8825, 0.1975, 0.98, 0.295, 1.0775, 0.3925, 1.1775, 0.49, 1.275, 0.5875, 1.3725, 0.6875, 0, 0.785, 0.0975, 0.8825, 0.1975, 0.98, 0.295, 1.0775, 0.3925, 1.1775, 0.49, 1.275, 0.5875, 1.3725, 0.6875, 0, 0.785, 0.0975, 0.8825, 0.1975, 0.98, 0.295, 1.0775, 0.3925, 1.1775, 0.49, 1.275, 0.5875, 1.3725, 0.6875],
  "SoftwareVersions": "syngo_MR_E11",
  "SpacingBetweenSlices": 2,
  "StationName": "MRC35049",
  "TaskName": "s04e07b",
  "TotalReadoutTime": 0.0576811,
  "TxRefAmp": 219.344,
  "WipMemBlock": "0fa59455-2f74-402f-bd28-f11d52bd5d7e||Sequence: R016 ve11c/master r/e634e98; Dec 19 2017 11:00:25 by eja",
  "dcmmeta_affine": [
    [-1.9956876039505005, 0.1290554255247116, -0.023990554735064507, 95.87246704101562],
    [0.12958848476409912, 1.8787394762039185, -0.6734572649002075, -79.00823974609375],
    [0.020920654758810997, 0.6735596060752869, 1.8830506801605225, -64.19989776611328],
    [0.0, 0.0, 0.0, 1.0]
],
  "dcmmeta_reorient_transform": [
    [0.0, -1.0, 0.0, 103.0],
    [1.0, 0.0, 0.0, 0.0],
    [0.0, 0.0, 1.0, 0.0],
    [0.0, 0.0, 0.0, 1.0]
],
  "dcmmeta_shape": [104, 104, 60, 497],
  "dcmmeta_slice_dim": 2,
  "dcmmeta_version": 0.6,
  "global": {
    "const": {
      "AcquisitionMatrix": [104, 0, 0, 104],
      "AngioFlag": "N",
      "BitsAllocated": 16,
      "BitsStored": 16,
      "BodyPartExamined": "BRAIN",
      "Columns": 832,
      "EchoNumbers": 1,
      "EchoTime": 37.0,
      "EchoTrainLength": 104,
      "FlipAngle": 52.0,
      "HighBit": 15,
      "ImageOrientationPatient": [0.99784381932278, -0.0647942419287, 0.01046032753912, 0.06452771151684, 0.93936975121448, -0.3367798167195],
      "ImagePositionPatient": [-882.57165233864, -751.19290145406, 242.73733411736],
      "ImageType": [
        "ORIGINAL",
        "PRIMARY",
        "M",
        "MB",
        "ND",
        "MOSAIC"
],
      "ImagedNucleus": "1H",
      "ImagingFrequency": 123.259066,
      "InPlanePhaseEncodingDirection": "COL",
      "MRAcquisitionType": "2D",
      "MagneticFieldStrength": 3.0,
      "Manufacturer": "SIEMENS",
      "ManufacturerModelName": "Prisma_fit",
      "Modality": "MR",
      "NumberOfAverages": 1.0,
      "NumberOfPhaseEncodingSteps": 104,
      "PercentPhaseFieldOfView": 100.0,
      "PercentSampling": 100.0,
      "PerformedProcedureStepStartTime": "085734.843000",
      "PhotometricInterpretation": "MONOCHROME2",
      "PixelBandwidth": 2290.0,
      "PixelRepresentation": 0,
      "PixelSpacing": [2.0, 2.0],
      "ProtocolName": "func_task-friends-s04e07b",
      "RepetitionTime": 1490.0,
      "Rows": 832,
      "SAR": 0.03137193460329,
      "SamplesPerPixel": 1,
      "ScanOptions": "FS",
      "ScanningSequence": "EP",
      "SequenceName": "epfid2d1_104",
      "SequenceVariant": [
        "SK",
        "SS"
],
      "SeriesDescription": "func_task-friends-s04e07b",
      "SeriesNumber": 15,
      "SeriesTime": "095516.384000",
      "SliceLocation": -34.991508518395,
      "SliceThickness": 2.0,
      "SmallestImagePixelValue": 0,
      "SoftwareVersions": "syngo MR E11",
      "SpacingBetweenSlices": 2.0000000141053,
      "SpecificCharacterSet": "ISO_IR 100",
      "StudyID": "1",
      "StudyTime": "085734.721000",
      "TransmitCoilName": "Body",
      "VariableFlipAngleFlag": "N",
      "WindowCenterWidthExplanation": "Algo1",
      "dBdt": 0.0},
    "slices": {}
  },
  "time": {
    "samples": {
      "AcquisitionNumber": [1, 2, 3, 4, 5, 6, 7, 8, 9, 10, 11, 12, 13, 14, 15, 16, 17, 18, 19, 20, 21, 22, 23, 24, 25, 26, 27, 28, 29, 30, 31, 32, 33, 34, 35, 36, 37, 38, 39, 40, 41, 42, 43, 44, 45, 46, 47, 48, 49, 50, 51, 52, 53, 54, 55, 56, 57, 58, 59, 60, 61, 62, 63, 64, 65, 66, 67, 68, 69, 70, 71, 72, 73, 74, 75, 76, 77, 78, 79, 80, 81, 82, 83, 84, 85, 86, 87, 88, 89, 90, 91, 92, 93, 94, 95, 96, 97, 98, 99, 100, 101, 102, 103, 104, 105, 106, 107, 108, 109, 110, 111, 112, 113, 114, 115, 116, 117, 118, 119, 120, 121, 122, 123, 124, 125, 126, 127, 128, 129, 130, 131, 132, 133, 134, 135, 136, 137, 138, 139, 140, 141, 142, 143, 144, 145, 146, 147, 148, 149, 150, 151, 152, 153, 154, 155, 156, 157, 158, 159, 160, 161, 162, 163, 164, 165, 166, 167, 168, 169, 170, 171, 172, 173, 174, 175, 176, 177, 178, 179, 180, 181, 182, 183, 184, 185, 186, 187, 188, 189, 190, 191, 192, 193, 194, 195, 196, 197, 198, 199, 200, 201, 202, 203, 204, 205, 206, 207, 208, 209, 210, 211, 212, 213, 214, 215, 216, 217, 218, 219, 220, 221, 222, 223, 224, 225, 226, 227, 228, 229, 230, 231, 232, 233, 234, 235, 236, 237, 238, 239, 240, 241, 242, 243, 244, 245, 246, 247, 248, 249, 250, 251, 252, 253, 254, 255, 256, 257, 258, 259, 260, 261, 262, 263, 264, 265, 266, 267, 268, 269, 270, 271, 272, 273, 274, 275, 276, 277, 278, 279, 280, 281, 282, 283, 284, 285, 286, 287, 288, 289, 290, 291, 292, 293, 294, 295, 296, 297, 298, 299, 300, 301, 302, 303, 304, 305, 306, 307, 308, 309, 310, 311, 312, 313, 314, 315, 316, 317, 318, 319, 320, 321, 322, 323, 324, 325, 326, 327, 328, 329, 330, 331, 332, 333, 334, 335, 336, 337, 338, 339, 340, 341, 342, 343, 344, 345, 346, 347, 348, 349, 350, 351, 352, 353, 354, 355, 356, 357, 358, 359, 360, 361, 362, 363, 364, 365, 366, 367, 368, 369, 370, 371, 372, 373, 374, 375, 376, 377, 378, 379, 380, 381, 382, 383, 384, 385, 386, 387, 388, 389, 390, 391, 392, 393, 394, 395, 396, 397, 398, 399, 400, 401, 402, 403, 404, 405, 406, 407, 408, 409, 410, 411, 412, 413, 414, 415, 416, 417, 418, 419, 420, 421, 422, 423, 424, 425, 426, 427, 428, 429, 430, 431, 432, 433, 434, 435, 436, 437, 438, 439, 440, 441, 442, 443, 444, 445, 446, 447, 448, 449, 450, 451, 452, 453, 454, 455, 456, 457, 458, 459, 460, 461, 462, 463, 464, 465, 466, 467, 468, 469, 470, 471, 472, 473, 474, 475, 476, 477, 478, 479, 480, 481, 482, 483, 484, 485, 486, 487, 488, 489, 490, 491, 492, 493, 494, 495, 496, 497],
      "AcquisitionTime": ["095410.630000", "095412.120000", "095413.610000", "095415.100000", "095416.590000", "095418.080000", "095419.570000", "095421.060000", "095422.550000", "095424.040000", "095425.530000", "095427.020000", "095428.510000", "095430.000000", "095431.490000", "095432.980000", "095434.470000", "095435.960000", "095437.450000", "095438.940000", "095440.430000", "095441.920000", "095443.410000", "095444.900000", "095446.390000", "095447.880000", "095449.370000", "095450.860000", "095452.350000", "095453.840000", "095455.330000", "095456.820000", "095458.310000", "095459.800000", "095501.290000", "095502.780000", "095504.270000", "095505.760000", "095507.250000", "095508.740000", "095510.230000", "095511.720000", "095513.210000", "095514.700000", "095516.190000", "095517.680000", "095519.170000", "095520.660000", "095522.150000", "095523.640000", "095525.130000", "095526.620000", "095528.110000", "095529.600000", "095531.090000", "095532.580000", "095534.070000", "095535.560000", "095537.050000", "095538.540000", "095540.030000", "095541.520000", "095543.010000", "095544.500000", "095545.990000", "095547.480000", "095548.970000", "095550.460000", "095551.950000", "095553.440000", "095554.930000", "095556.420000", "095557.910000", "095559.400000", "095600.890000", "095602.380000", "095603.870000", "095605.360000", "095606.850000", "095608.340000", "095609.830000", "095611.320000", "095612.810000", "095614.300000", "095615.790000", "095617.280000", "095618.770000", "095620.260000", "095621.750000", "095623.240000", "095624.730000", "095626.220000", "095627.710000", "095629.200000", "095630.690000", "095632.180000", "095633.670000", "095635.160000", "095636.650000", "095638.140000", "095639.630000", "095641.120000", "095642.610000", "095644.100000", "095645.590000", "095647.080000", "095648.570000", "095650.060000", "095651.550000", "095653.040000", "095654.530000", "095656.020000", "095657.510000", "095659.000000", "095700.490000", "095701.980000", "095703.470000", "095704.960000", "095706.450000", "095707.940000", "095709.430000", "095710.920000", "095712.410000", "095713.900000", "095715.390000", "095716.880000", "095718.370000", "095719.860000", "095721.350000", "095722.840000", "095724.330000", "095725.820000", "095727.310000", "095728.800000", "095730.290000", "095731.780000", "095733.270000", "095734.760000", "095736.250000", "095737.740000", "095739.230000", "095740.720000", "095742.210000", "095743.700000", "095745.190000", "095746.680000", "095748.170000", "095749.660000", "095751.150000", "095752.640000", "095754.130000", "095755.620000", "095757.110000", "095758.600000", "095800.090000", "095801.580000", "095803.070000", "095804.560000", "095806.050000", "095807.540000", "095809.030000", "095810.520000", "095812.010000", "095813.500000", "095814.990000", "095816.480000", "095817.970000", "095819.460000", "095820.950000", "095822.440000", "095823.930000", "095825.420000", "095826.910000", "095828.400000", "095829.890000", "095831.380000", "095832.870000", "095834.360000", "095835.850000", "095837.340000", "095838.830000", "095840.320000", "095841.810000", "095843.300000", "095844.790000", "095846.280000", "095847.770000", "095849.260000", "095850.750000", "095852.240000", "095853.730000", "095855.220000", "095856.710000", "095858.200000", "095859.690000", "095901.180000", "095902.670000", "095904.160000", "095905.650000", "095907.140000", "095908.630000", "095910.120000", "095911.610000", "095913.100000", "095914.590000", "095916.080000", "095917.570000", "095919.060000", "095920.550000", "095922.040000", "095923.530000", "095925.020000", "095926.510000", "095928.000000", "095929.490000", "095930.980000", "095932.470000", "095933.960000", "095935.450000", "095936.940000", "095938.430000", "095939.920000", "095941.410000", "095942.900000", "095944.390000", "095945.880000", "095947.370000", "095948.860000", "095950.350000", "095951.840000", "095953.330000", "095954.820000", "095956.310000", "095957.800000", "095959.290000", "100000.780000", "100002.270000", "100003.760000", "100005.250000", "100006.740000", "100008.230000", "100009.720000", "100011.210000", "100012.700000", "100014.190000", "100015.680000", "100017.170000", "100018.660000", "100020.150000", "100021.640000", "100023.130000", "100024.620000", "100026.110000", "100027.600000", "100029.090000", "100030.580000", "100032.070000", "100033.560000", "100035.050000", "100036.540000", "100038.030000", "100039.520000", "100041.010000", "100042.500000", "100043.990000", "100045.480000", "100046.970000", "100048.460000", "100049.950000", "100051.440000", "100052.930000", "100054.420000", "100055.910000", "100057.400000", "100058.890000", "100100.380000", "100101.870000", "100103.360000", "100104.850000", "100106.340000", "100107.830000", "100109.320000", "100110.810000", "100112.300000", "100113.790000", "100115.280000", "100116.770000", "100118.260000", "100119.750000", "100121.240000", "100122.730000", "100124.220000", "100125.710000", "100127.200000", "100128.690000", "100130.180000", "100131.670000", "100133.160000", "100134.650000", "100136.140000", "100137.630000", "100139.120000", "100140.610000", "100142.100000", "100143.590000", "100145.080000", "100146.570000", "100148.060000", "100149.550000", "100151.040000", "100152.530000", "100154.020000", "100155.510000", "100157.000000", "100158.490000", "100159.980000", "100201.470000", "100202.960000", "100204.450000", "100205.940000", "100207.430000", "100208.920000", "100210.410000", "100211.900000", "100213.390000", "100214.880000", "100216.370000", "100217.860000", "100219.350000", "100220.840000", "100222.330000", "100223.820000", "100225.310000", "100226.800000", "100228.290000", "100229.780000", "100231.270000", "100232.760000", "100234.250000", "100235.740000", "100237.230000", "100238.720000", "100240.210000", "100241.700000", "100243.190000", "100244.680000", "100246.170000", "100247.660000", "100249.150000", "100250.640000", "100252.130000", "100253.620000", "100255.110000", "100256.600000", "100258.090000", "100259.580000", "100301.070000", "100302.560000", "100304.050000", "100305.540000", "100307.030000", "100308.520000", "100310.010000", "100311.500000", "100312.990000", "100314.480000", "100315.970000", "100317.460000", "100318.950000", "100320.440000", "100321.930000", "100323.420000", "100324.910000", "100326.400000", "100327.890000", "100329.380000", "100330.870000", "100332.360000", "100333.850000", "100335.340000", "100336.830000", "100338.320000", "100339.810000", "100341.300000", "100342.790000", "100344.280000", "100345.770000", "100347.260000", "100348.750000", "100350.240000", "100351.730000", "100353.220000", "100354.710000", "100356.200000", "100357.690000", "100359.180000", "100400.670000", "100402.160000", "100403.650000", "100405.140000", "100406.630000", "100408.120000", "100409.610000", "100411.100000", "100412.590000", "100414.080000", "100415.570000", "100417.060000", "100418.550000", "100420.040000", "100421.530000", "100423.020000", "100424.510000", "100426.000000", "100427.490000", "100428.980000", "100430.470000", "100431.960000", "100433.450000", "100434.940000", "100436.430000", "100437.920000", "100439.410000", "100440.900000", "100442.390000", "100443.880000", "100445.370000", "100446.860000", "100448.350000", "100449.840000", "100451.330000", "100452.820000", "100454.310000", "100455.800000", "100457.290000", "100458.780000", "100500.270000", "100501.760000", "100503.250000", "100504.740000", "100506.230000", "100507.720000", "100509.210000", "100510.700000", "100512.190000", "100513.680000", "100515.170000", "100516.660000", "100518.150000", "100519.640000", "100521.130000", "100522.620000", "100524.110000", "100525.600000", "100527.090000", "100528.580000", "100530.070000", "100531.560000", "100533.050000", "100534.540000", "100536.030000", "100537.520000", "100539.010000", "100540.500000", "100541.990000", "100543.480000", "100544.970000", "100546.460000", "100547.950000", "100549.440000", "100550.930000", "100552.420000", "100553.910000", "100555.400000", "100556.890000", "100558.380000", "100559.870000", "100601.360000", "100602.850000", "100604.340000", "100605.830000", "100607.320000", "100608.810000", "100610.300000", "100611.790000", "100613.280000", "100614.770000", "100616.260000", "100617.750000", "100619.240000", "100620.730000", "100622.220000", "100623.710000", "100625.200000", "100626.690000", "100628.180000", "100629.670000"],
      "ContentTime": ["095516.387000", "095516.391000", "095516.394000", "095516.396000", "095516.399000", "095516.402000", "095516.405000", "095516.408000", "095516.411000", "095516.423000", "095516.426000", "095536.362000", "095536.365000", "095536.368000", "095536.371000", "095536.374000", "095536.376000", "095536.379000", "095536.382000", "095536.385000", "095536.388000", "095536.391000", "095536.394000", "095536.396000", "095536.407000", "095536.410000", "095536.413000", "095536.416000", "095536.419000", "095536.421000", "095536.424000", "095536.427000", "095556.363000", "095556.366000", "095556.369000", "095556.372000", "095556.375000", "095556.377000", "095556.380000", "095556.401000", "095556.404000", "095556.407000", "095556.410000", "095556.412000", "095556.415000", "095556.418000", "095556.421000", "095556.424000", "095556.427000", "095556.430000", "095556.432000", "095556.435000", "095616.363000", "095616.366000", "095616.369000", "095616.372000", "095616.375000", "095616.378000", "095616.380000", "095616.383000", "095616.386000", "095616.389000", "095616.392000", "095616.395000", "095616.398000", "095616.401000", "095616.403000", "095616.406000", "095616.409000", "095616.412000", "095616.415000", "095616.418000", "095636.362000", "095636.365000", "095636.368000", "095636.371000", "095636.374000", "095636.377000", "095636.380000", "095636.382000", "095636.385000", "095636.388000", "095636.391000", "095636.394000", "095636.397000", "095636.400000", "095636.403000", "095636.405000", "095636.408000", "095636.411000", "095636.414000", "095636.417000", "095716.362000", "095716.365000", "095716.368000", "095716.371000", "095716.374000", "095716.377000", "095716.380000", "095716.382000", "095716.385000", "095716.388000", "095716.391000", "095716.394000", "095716.397000", "095716.400000", "095716.403000", "095716.406000", "095716.408000", "095716.411000", "095716.414000", "095716.417000", "095716.420000", "095716.423000", "095716.426000", "095716.429000", "095716.431000", "095716.434000", "095716.437000", "095716.440000", "095716.443000", "095716.446000", "095716.454000", "095716.457000", "095756.362000", "095756.365000", "095756.368000", "095756.371000", "095756.374000", "095756.377000", "095756.380000", "095756.382000", "095756.385000", "095756.388000", "095756.391000", "095756.394000", "095756.397000", "095756.400000", "095756.403000", "095756.406000", "095756.408000", "095756.411000", "095756.414000", "095756.417000", "095756.420000", "095756.423000", "095756.426000", "095756.429000", "095756.432000", "095756.434000", "095756.437000", "095836.363000", "095836.366000", "095836.376000", "095836.379000", "095836.382000", "095836.385000", "095836.387000", "095836.390000", "095836.393000", "095836.396000", "095836.399000", "095836.402000", "095836.405000", "095836.408000", "095836.411000", "095836.413000", "095836.416000", "095836.419000", "095836.422000", "095836.425000", "095836.428000", "095836.431000", "095836.445000", "095836.448000", "095836.451000", "095836.454000", "095836.457000", "095916.362000", "095916.365000", "095916.368000", "095916.371000", "095916.374000", "095916.377000", "095916.380000", "095916.383000", "095916.386000", "095916.389000", "095916.392000", "095916.395000", "095916.398000", "095916.400000", "095916.403000", "095916.406000", "095916.409000", "095916.412000", "095916.415000", "095916.418000", "095916.421000", "095916.423000", "095916.426000", "095916.429000", "095916.432000", "095916.435000", "095916.438000", "095956.362000", "095956.365000", "095956.368000", "095956.371000", "095956.374000", "095956.377000", "095956.380000", "095956.383000", "095956.386000", "095956.389000", "095956.392000", "095956.395000", "095956.398000", "095956.400000", "095956.403000", "095956.406000", "095956.409000", "095956.412000", "095956.415000", "095956.418000", "095956.421000", "095956.424000", "095956.426000", "095956.429000", "095956.432000", "095956.435000", "100036.363000", "100036.366000", "100036.369000", "100036.372000", "100036.375000", "100036.378000", "100036.381000", "100036.384000", "100036.386000", "100036.389000", "100036.392000", "100036.395000", "100036.398000", "100036.401000", "100036.404000", "100036.407000", "100036.410000", "100036.413000", "100036.416000", "100036.419000", "100036.422000", "100036.425000", "100036.428000", "100036.431000", "100036.433000", "100036.436000", "100036.439000", "100116.362000", "100116.365000", "100116.368000", "100116.371000", "100116.374000", "100116.377000", "100116.380000", "100116.383000", "100116.385000", "100116.388000", "100116.391000", "100116.394000", "100116.397000", "100116.400000", "100116.403000", "100116.406000", "100116.409000", "100116.412000", "100116.415000", "100116.418000", "100116.421000", "100116.423000", "100116.426000", "100116.429000", "100116.432000", "100116.435000", "100116.438000", "100156.362000", "100156.365000", "100156.368000", "100156.371000", "100156.374000", "100156.377000", "100156.380000", "100156.383000", "100156.386000", "100156.390000", "100156.393000", "100156.396000", "100156.399000", "100156.401000", "100156.404000", "100156.407000", "100156.410000", "100156.413000", "100156.416000", "100156.419000", "100156.422000", "100156.425000", "100156.428000", "100156.432000", "100156.434000", "100156.438000", "100156.441000", "100236.363000", "100236.366000", "100236.369000", "100236.372000", "100236.375000", "100236.378000", "100236.381000", "100236.384000", "100236.386000", "100236.389000", "100236.392000", "100236.395000", "100236.398000", "100236.401000", "100236.404000", "100236.407000", "100236.410000", "100236.413000", "100236.416000", "100236.419000", "100236.422000", "100236.432000", "100236.435000", "100236.438000", "100236.441000", "100236.444000", "100236.447000", "100316.362000", "100316.365000", "100316.368000", "100316.371000", "100316.374000", "100316.377000", "100316.380000", "100316.383000", "100316.385000", "100316.388000", "100316.391000", "100316.394000", "100316.397000", "100316.400000", "100316.403000", "100316.406000", "100316.409000", "100316.412000", "100316.415000", "100316.417000", "100316.420000", "100316.423000", "100316.439000", "100316.442000", "100316.444000", "100316.447000", "100316.450000", "100356.362000", "100356.365000", "100356.368000", "100356.371000", "100356.374000", "100356.377000", "100356.380000", "100356.383000", "100356.386000", "100356.389000", "100356.392000", "100356.395000", "100356.397000", "100356.400000", "100356.403000", "100356.406000", "100356.409000", "100356.412000", "100356.415000", "100356.418000", "100356.421000", "100356.424000", "100356.427000", "100356.430000", "100356.433000", "100356.435000", "100436.362000", "100436.365000", "100436.368000", "100436.371000", "100436.374000", "100436.377000", "100436.380000", "100436.383000", "100436.386000", "100436.388000", "100436.392000", "100436.395000", "100436.397000", "100436.400000", "100436.403000", "100436.406000", "100436.409000", "100436.412000", "100436.415000", "100436.418000", "100436.421000", "100436.423000", "100436.426000", "100436.429000", "100436.432000", "100436.435000", "100436.438000", "100456.363000", "100456.366000", "100456.369000", "100456.372000", "100456.375000", "100456.378000", "100456.381000", "100456.384000", "100456.387000", "100456.390000", "100456.393000", "100456.396000", "100456.399000", "100456.401000", "100536.362000", "100536.365000", "100536.368000", "100536.371000", "100536.374000", "100536.377000", "100536.380000", "100536.383000", "100536.386000", "100536.388000", "100536.391000", "100536.394000", "100536.397000", "100536.400000", "100536.403000", "100536.406000", "100536.409000", "100536.412000", "100536.415000", "100536.418000", "100536.420000", "100536.423000", "100536.426000", "100536.429000", "100536.432000", "100536.435000", "100536.438000", "100616.362000", "100616.365000", "100616.368000", "100616.371000", "100616.374000", "100616.377000", "100616.380000", "100616.383000", "100616.386000", "100616.390000", "100616.393000", "100616.396000", "100616.398000", "100616.401000", "100616.404000", "100616.407000", "100616.410000", "100616.413000", "100616.416000", "100616.419000", "100616.422000", "100616.425000", "100616.427000", "100616.430000", "100616.433000", "100616.436000", "100631.470000", "100631.473000", "100631.476000", "100631.479000", "100631.481000", "100631.484000", "100631.487000", "100631.490000", "100631.493000", "100631.496000", "100631.499000"],
