{
  "AcquisitionMatrixPE": 104,
  "AcquisitionNumber": 1,
  "AcquisitionTime": "11:49:34.235000",
  "BandwidthPerPixelPhaseEncode": 17.17,
  "BaseResolution": 104,
  "BodyPartExamined": "BRAIN",
  "CoilString": "HC1-7;NC1_2",
  "ConsistencyInfo": "N4_VE11C_LATEST_20160120",
  "ConversionSoftware": "dcm2niix",
  "ConversionSoftwareVersion": "v1.0.20190902",
  "DerivedVendorReportedEchoSpacing": 0.000560011,
  "DeviceSerialNumber": "167006",
  "DwellTime": 2.1e-06,
  "EchoTime": 0.037,
  "EchoTrainLength": 104,
  "EffectiveEchoSpacing": 0.000560011,
  "FlipAngle": 52,
  "ImageComments": "Unaliased_MB4_PE3_LB",
  "ImageOrientationPatientDICOM": [0.999065, -0.0431139, 0.0033094, 0.0418732, 0.945536, -0.322813],
  "ImageType": [
    "ORIGINAL",
    "PRIMARY",
    "M",
    "MB",
    "ND",
    "MOSAIC"
],
  "ImagingFrequency": 123.259,
  "InPlanePhaseEncodingDirectionDICOM": "COL",
  "InstitutionAddress": "Chemin_Queen-Mary_4565_Montreal_District_CA_H3W_1W5",
  "InstitutionName": "IUGM",
  "InstitutionalDepartmentName": "Department",
  "MRAcquisitionType": "2D",
  "MagneticFieldStrength": 3,
  "Manufacturer": "Siemens",
  "ManufacturersModelName": "Prisma_fit",
  "Modality": "MR",
  "MultibandAccelerationFactor": 4,
  "PartialFourier": 1,
  "PatientPosition": "HFS",
  "PercentPhaseFOV": 100,
  "PhaseEncodingDirection": "j",
  "PhaseEncodingSteps": 104,
  "PhaseResolution": 1,
  "PixelBandwidth": 2290,
  "ProcedureStepDescription": "video_friends",
  "ProtocolName": "func_task-friends-s04e11b",
  "PulseSequenceDetails": "%CustomerSeq%_cmrr_mbep2d_bold",
  "ReceiveCoilActiveElements": "HC1-7;NC1,2",
  "ReceiveCoilName": "HeadNeck_64",
  "ReconMatrixPE": 104,
  "RepetitionTime": 1.49,
  "SAR": 0.0335709,
  "ScanOptions": "FS",
  "ScanningSequence": "EP",
  "SequenceName": "epfid2d1_104",
  "SequenceVariant": "SK_SS",
  "SeriesDescription": "func_task-friends-s04e11b",
  "SeriesNumber": 38,
  "ShimSetting": [639, -7267, -8813, 624, 57, -228, -44, 9],
  "SliceThickness": 2,
  "SliceTiming": [0, 0.785, 0.1, 0.8825, 0.1975, 0.98, 0.295, 1.0775, 0.3925, 1.1775, 0.49, 1.275, 0.59, 1.3725, 0.6875, 0, 0.785, 0.1, 0.8825, 0.1975, 0.98, 0.295, 1.0775, 0.3925, 1.1775, 0.49, 1.275, 0.59, 1.3725, 0.6875, 0, 0.785, 0.1, 0.8825, 0.1975, 0.98, 0.295, 1.0775, 0.3925, 1.1775, 0.49, 1.275, 0.59, 1.3725, 0.6875, 0, 0.785, 0.1, 0.8825, 0.1975, 0.98, 0.295, 1.0775, 0.3925, 1.1775, 0.49, 1.275, 0.59, 1.3725, 0.6875],
  "SoftwareVersions": "syngo_MR_E11",
  "SpacingBetweenSlices": 2,
  "StationName": "MRC35049",
  "TaskName": "s04e11b",
  "TotalReadoutTime": 0.0576811,
  "TxRefAmp": 222.458,
  "WipMemBlock": "7598e78d-d9bf-40a4-8dde-e8410c9a6362||Sequence: R016 ve11c/master r/e634e98; Dec 19 2017 11:00:25 by eja",
  "dcmmeta_affine": [
    [-1.9981293678283691, 0.08374636620283127, -0.02157708816230297, 98.50997924804688],
    [0.08622770011425018, 1.8910722732543945, -0.6452987194061279, -75.97367095947266],
    [0.006618794985115528, 0.6456254124641418, 1.8929141759872437, -58.83173370361328],
    [0.0, 0.0, 0.0, 1.0]
],
  "dcmmeta_reorient_transform": [
    [0.0, -1.0, 0.0, 103.0],
    [1.0, 0.0, 0.0, 0.0],
    [0.0, 0.0, 1.0, 0.0],
    [0.0, 0.0, 0.0, 1.0]
],
  "dcmmeta_shape": [104, 104, 60, 483],
  "dcmmeta_slice_dim": 2,
  "dcmmeta_version": 0.6,
  "global": {
    "const": {
      "AcquisitionMatrix": [104, 0, 0, 104],
      "AngioFlag": "N",
      "BitsAllocated": 16,
      "BitsStored": 16,
      "BodyPartExamined": "BRAIN",
      "Columns": 832,
      "EchoNumbers": 1,
      "EchoTime": 37.0,
      "EchoTrainLength": 104,
      "FlipAngle": 52.0,
      "HighBit": 15,
      "ImageOrientationPatient": [0.99906468447306, -0.043113850758, 0.00330939746179, 0.04187318430052, 0.94553614235234, -0.3228127010233],
      "ImagePositionPatient": [-864.93862310285, -775.77020347904, 240.26608724729],
      "ImageType": [
        "ORIGINAL",
        "PRIMARY",
        "M",
        "MB",
        "ND",
        "MOSAIC"
],
      "ImagedNucleus": "1H",
      "ImagingFrequency": 123.259073,
      "InPlanePhaseEncodingDirection": "COL",
      "MRAcquisitionType": "2D",
      "MagneticFieldStrength": 3.0,
      "Manufacturer": "SIEMENS",
      "ManufacturerModelName": "Prisma_fit",
      "Modality": "MR",
      "NumberOfAverages": 1.0,
      "NumberOfPhaseEncodingSteps": 104,
      "PercentPhaseFieldOfView": 100.0,
      "PercentSampling": 100.0,
      "PerformedProcedureStepStartTime": "085734.843000",
      "PhotometricInterpretation": "MONOCHROME2",
      "PixelBandwidth": 2290.0,
      "PixelRepresentation": 0,
      "PixelSpacing": [2.0, 2.0],
      "ProtocolName": "func_task-friends-s04e11b",
      "RepetitionTime": 1490.0,
      "Rows": 832,
      "SAR": 0.03357093469483,
      "SamplesPerPixel": 1,
      "ScanOptions": "FS",
      "ScanningSequence": "EP",
      "SequenceName": "epfid2d1_104",
      "SequenceVariant": [
        "SK",
        "SS"
],
      "SeriesDescription": "func_task-friends-s04e11b",
      "SeriesNumber": 38,
      "SeriesTime": "115056.393000",
      "SliceLocation": -32.231635794683,
      "SliceThickness": 2.0,
      "SmallestImagePixelValue": 0,
      "SoftwareVersions": "syngo MR E11",
      "SpacingBetweenSlices": 2.0000000385529,
      "SpecificCharacterSet": "ISO_IR 100",
      "StudyID": "1",
      "StudyTime": "085734.721000",
      "TransmitCoilName": "Body",
      "VariableFlipAngleFlag": "N",
      "WindowCenterWidthExplanation": "Algo1",
      "dBdt": 0.0},
    "slices": {}
  },
  "time": {
    "samples": {
      "AcquisitionNumber": [1, 2, 3, 4, 5, 6, 7, 8, 9, 10, 11, 12, 13, 14, 15, 16, 17, 18, 19, 20, 21, 22, 23, 24, 25, 26, 27, 28, 29, 30, 31, 32, 33, 34, 35, 36, 37, 38, 39, 40, 41, 42, 43, 44, 45, 46, 47, 48, 49, 50, 51, 52, 53, 54, 55, 56, 57, 58, 59, 60, 61, 62, 63, 64, 65, 66, 67, 68, 69, 70, 71, 72, 73, 74, 75, 76, 77, 78, 79, 80, 81, 82, 83, 84, 85, 86, 87, 88, 89, 90, 91, 92, 93, 94, 95, 96, 97, 98, 99, 100, 101, 102, 103, 104, 105, 106, 107, 108, 109, 110, 111, 112, 113, 114, 115, 116, 117, 118, 119, 120, 121, 122, 123, 124, 125, 126, 127, 128, 129, 130, 131, 132, 133, 134, 135, 136, 137, 138, 139, 140, 141, 142, 143, 144, 145, 146, 147, 148, 149, 150, 151, 152, 153, 154, 155, 156, 157, 158, 159, 160, 161, 162, 163, 164, 165, 166, 167, 168, 169, 170, 171, 172, 173, 174, 175, 176, 177, 178, 179, 180, 181, 182, 183, 184, 185, 186, 187, 188, 189, 190, 191, 192, 193, 194, 195, 196, 197, 198, 199, 200, 201, 202, 203, 204, 205, 206, 207, 208, 209, 210, 211, 212, 213, 214, 215, 216, 217, 218, 219, 220, 221, 222, 223, 224, 225, 226, 227, 228, 229, 230, 231, 232, 233, 234, 235, 236, 237, 238, 239, 240, 241, 242, 243, 244, 245, 246, 247, 248, 249, 250, 251, 252, 253, 254, 255, 256, 257, 258, 259, 260, 261, 262, 263, 264, 265, 266, 267, 268, 269, 270, 271, 272, 273, 274, 275, 276, 277, 278, 279, 280, 281, 282, 283, 284, 285, 286, 287, 288, 289, 290, 291, 292, 293, 294, 295, 296, 297, 298, 299, 300, 301, 302, 303, 304, 305, 306, 307, 308, 309, 310, 311, 312, 313, 314, 315, 316, 317, 318, 319, 320, 321, 322, 323, 324, 325, 326, 327, 328, 329, 330, 331, 332, 333, 334, 335, 336, 337, 338, 339, 340, 341, 342, 343, 344, 345, 346, 347, 348, 349, 350, 351, 352, 353, 354, 355, 356, 357, 358, 359, 360, 361, 362, 363, 364, 365, 366, 367, 368, 369, 370, 371, 372, 373, 374, 375, 376, 377, 378, 379, 380, 381, 382, 383, 384, 385, 386, 387, 388, 389, 390, 391, 392, 393, 394, 395, 396, 397, 398, 399, 400, 401, 402, 403, 404, 405, 406, 407, 408, 409, 410, 411, 412, 413, 414, 415, 416, 417, 418, 419, 420, 421, 422, 423, 424, 425, 426, 427, 428, 429, 430, 431, 432, 433, 434, 435, 436, 437, 438, 439, 440, 441, 442, 443, 444, 445, 446, 447, 448, 449, 450, 451, 452, 453, 454, 455, 456, 457, 458, 459, 460, 461, 462, 463, 464, 465, 466, 467, 468, 469, 470, 471, 472, 473, 474, 475, 476, 477, 478, 479, 480, 481, 482, 483],
      "AcquisitionTime": ["114934.235000", "114935.725000", "114937.215000", "114938.705000", "114940.195000", "114941.685000", "114943.175000", "114944.665000", "114946.155000", "114947.645000", "114949.135000", "114950.625000", "114952.115000", "114953.605000", "114955.095000", "114956.585000", "114958.075000", "114959.565000", "115001.055000", "115002.545000", "115004.035000", "115005.525000", "115007.015000", "115008.505000", "115009.995000", "115011.485000", "115012.975000", "115014.465000", "115015.955000", "115017.445000", "115018.935000", "115020.425000", "115021.915000", "115023.405000", "115024.895000", "115026.385000", "115027.875000", "115029.365000", "115030.855000", "115032.345000", "115033.835000", "115035.325000", "115036.815000", "115038.305000", "115039.795000", "115041.285000", "115042.775000", "115044.265000", "115045.755000", "115047.245000", "115048.735000", "115050.225000", "115051.715000", "115053.205000", "115054.695000", "115056.185000", "115057.675000", "115059.165000", "115100.655000", "115102.145000", "115103.635000", "115105.125000", "115106.615000", "115108.105000", "115109.595000", "115111.085000", "115112.575000", "115114.065000", "115115.555000", "115117.045000", "115118.535000", "115120.025000", "115121.515000", "115123.005000", "115124.495000", "115125.985000", "115127.475000", "115128.965000", "115130.455000", "115131.945000", "115133.435000", "115134.925000", "115136.415000", "115137.905000", "115139.395000", "115140.885000", "115142.375000", "115143.865000", "115145.355000", "115146.845000", "115148.335000", "115149.825000", "115151.315000", "115152.805000", "115154.295000", "115155.785000", "115157.275000", "115158.765000", "115200.255000", "115201.745000", "115203.235000", "115204.725000", "115206.215000", "115207.705000", "115209.195000", "115210.685000", "115212.175000", "115213.665000", "115215.155000", "115216.645000", "115218.135000", "115219.625000", "115221.115000", "115222.605000", "115224.095000", "115225.585000", "115227.075000", "115228.565000", "115230.055000", "115231.545000", "115233.035000", "115234.525000", "115236.015000", "115237.505000", "115238.995000", "115240.485000", "115241.975000", "115243.465000", "115244.955000", "115246.445000", "115247.935000", "115249.425000", "115250.915000", "115252.405000", "115253.895000", "115255.385000", "115256.875000", "115258.365000", "115259.855000", "115301.345000", "115302.835000", "115304.325000", "115305.815000", "115307.305000", "115308.795000", "115310.285000", "115311.775000", "115313.265000", "115314.755000", "115316.245000", "115317.735000", "115319.225000", "115320.715000", "115322.205000", "115323.695000", "115325.185000", "115326.675000", "115328.165000", "115329.655000", "115331.145000", "115332.635000", "115334.125000", "115335.615000", "115337.105000", "115338.595000", "115340.085000", "115341.575000", "115343.065000", "115344.555000", "115346.045000", "115347.535000", "115349.025000", "115350.515000", "115352.005000", "115353.495000", "115354.985000", "115356.475000", "115357.965000", "115359.455000", "115400.945000", "115402.435000", "115403.925000", "115405.415000", "115406.905000", "115408.395000", "115409.885000", "115411.375000", "115412.865000", "115414.355000", "115415.845000", "115417.335000", "115418.825000", "115420.315000", "115421.805000", "115423.295000", "115424.785000", "115426.275000", "115427.765000", "115429.255000", "115430.745000", "115432.235000", "115433.725000", "115435.215000", "115436.705000", "115438.195000", "115439.685000", "115441.175000", "115442.665000", "115444.155000", "115445.645000", "115447.135000", "115448.625000", "115450.115000", "115451.605000", "115453.095000", "115454.585000", "115456.075000", "115457.565000", "115459.055000", "115500.545000", "115502.035000", "115503.525000", "115505.015000", "115506.505000", "115507.995000", "115509.485000", "115510.975000", "115512.465000", "115513.955000", "115515.445000", "115516.935000", "115518.425000", "115519.915000", "115521.405000", "115522.895000", "115524.385000", "115525.875000", "115527.365000", "115528.855000", "115530.345000", "115531.835000", "115533.325000", "115534.815000", "115536.305000", "115537.795000", "115539.285000", "115540.775000", "115542.265000", "115543.755000", "115545.245000", "115546.735000", "115548.225000", "115549.715000", "115551.205000", "115552.695000", "115554.185000", "115555.675000", "115557.165000", "115558.655000", "115600.145000", "115601.635000", "115603.125000", "115604.615000", "115606.105000", "115607.595000", "115609.085000", "115610.575000", "115612.065000", "115613.555000", "115615.045000", "115616.535000", "115618.025000", "115619.515000", "115621.005000", "115622.495000", "115623.985000", "115625.475000", "115626.965000", "115628.455000", "115629.945000", "115631.435000", "115632.925000", "115634.415000", "115635.905000", "115637.395000", "115638.885000", "115640.375000", "115641.865000", "115643.355000", "115644.845000", "115646.335000", "115647.825000", "115649.315000", "115650.805000", "115652.295000", "115653.785000", "115655.275000", "115656.765000", "115658.255000", "115659.745000", "115701.235000", "115702.725000", "115704.215000", "115705.705000", "115707.195000", "115708.685000", "115710.175000", "115711.665000", "115713.155000", "115714.645000", "115716.135000", "115717.625000", "115719.115000", "115720.605000", "115722.095000", "115723.585000", "115725.075000", "115726.565000", "115728.055000", "115729.545000", "115731.035000", "115732.525000", "115734.015000", "115735.505000", "115736.995000", "115738.485000", "115739.975000", "115741.465000", "115742.955000", "115744.445000", "115745.935000", "115747.425000", "115748.915000", "115750.405000", "115751.895000", "115753.385000", "115754.875000", "115756.365000", "115757.855000", "115759.345000", "115800.835000", "115802.325000", "115803.815000", "115805.305000", "115806.795000", "115808.285000", "115809.775000", "115811.265000", "115812.755000", "115814.245000", "115815.735000", "115817.225000", "115818.715000", "115820.205000", "115821.695000", "115823.185000", "115824.675000", "115826.165000", "115827.655000", "115829.145000", "115830.635000", "115832.125000", "115833.615000", "115835.105000", "115836.595000", "115838.085000", "115839.575000", "115841.065000", "115842.555000", "115844.045000", "115845.535000", "115847.025000", "115848.515000", "115850.005000", "115851.495000", "115852.985000", "115854.475000", "115855.965000", "115857.455000", "115858.945000", "115900.435000", "115901.925000", "115903.415000", "115904.905000", "115906.395000", "115907.885000", "115909.375000", "115910.865000", "115912.355000", "115913.845000", "115915.335000", "115916.825000", "115918.315000", "115919.805000", "115921.295000", "115922.785000", "115924.275000", "115925.765000", "115927.255000", "115928.745000", "115930.235000", "115931.725000", "115933.215000", "115934.705000", "115936.195000", "115937.685000", "115939.175000", "115940.665000", "115942.155000", "115943.645000", "115945.135000", "115946.625000", "115948.115000", "115949.605000", "115951.095000", "115952.585000", "115954.075000", "115955.565000", "115957.055000", "115958.545000", "120000.035000", "120001.525000", "120003.015000", "120004.505000", "120005.995000", "120007.485000", "120008.975000", "120010.465000", "120011.955000", "120013.445000", "120014.935000", "120016.425000", "120017.915000", "120019.405000", "120020.895000", "120022.385000", "120023.875000", "120025.365000", "120026.855000", "120028.345000", "120029.835000", "120031.325000", "120032.815000", "120034.305000", "120035.795000", "120037.285000", "120038.775000", "120040.265000", "120041.755000", "120043.245000", "120044.735000", "120046.225000", "120047.715000", "120049.205000", "120050.695000", "120052.185000", "120053.675000", "120055.165000", "120056.655000", "120058.145000", "120059.635000", "120101.125000", "120102.615000", "120104.105000", "120105.595000", "120107.085000", "120108.575000", "120110.065000", "120111.555000", "120113.045000", "120114.535000", "120116.025000", "120117.515000", "120119.005000", "120120.495000", "120121.985000", "120123.475000", "120124.965000", "120126.455000", "120127.945000", "120129.435000", "120130.925000", "120132.415000"],
      "ContentTime": ["115056.396000", "115056.400000", "115056.403000", "115056.406000", "115056.409000", "115056.412000", "115056.415000", "115056.418000", "115056.429000", "115056.432000", "115056.435000", "115056.439000", "115056.449000", "115056.452000", "115056.455000", "115056.458000", "115056.461000", "115056.464000", "115056.467000", "115056.470000", "115056.473000", "115056.476000", "115056.479000", "115056.482000", "115056.486000", "115056.489000", "115116.362000", "115116.365000", "115116.368000", "115116.371000", "115116.374000", "115116.377000", "115116.380000", "115116.382000", "115116.385000", "115116.388000", "115116.391000", "115116.394000", "115116.397000", "115116.400000", "115116.403000", "115116.417000", "115116.420000", "115116.423000", "115116.426000", "115116.429000", "115136.363000", "115136.366000", "115136.369000", "115136.372000", "115136.375000", "115136.378000", "115136.381000", "115136.383000", "115136.386000", "115136.389000", "115136.392000", "115136.395000", "115136.398000", "115136.401000", "115136.404000", "115136.407000", "115136.409000", "115136.412000", "115136.415000", "115136.418000", "115136.421000", "115156.363000", "115156.366000", "115156.369000", "115156.372000", "115156.375000", "115156.377000", "115156.380000", "115156.383000", "115156.386000", "115156.389000", "115156.392000", "115156.395000", "115156.398000", "115156.400000", "115156.403000", "115156.406000", "115156.409000", "115156.412000", "115156.415000", "115156.418000", "115216.362000", "115216.365000", "115216.368000", "115216.371000", "115216.374000", "115216.377000", "115216.380000", "115216.382000", "115216.385000", "115216.388000", "115216.391000", "115216.394000", "115216.397000", "115216.400000", "115216.403000", "115216.406000", "115216.409000", "115216.411000", "115216.414000", "115216.417000", "115256.362000", "115256.365000", "115256.368000", "115256.371000", "115256.374000", "115256.377000", "115256.379000", "115256.382000", "115256.385000", "115256.388000", "115256.391000", "115256.394000", "115256.397000", "115256.400000", "115256.402000", "115256.405000", "115256.408000", "115256.411000", "115256.414000", "115256.417000", "115256.420000", "115256.422000", "115256.435000", "115256.438000", "115256.441000", "115256.444000", "115256.447000", "115256.450000", "115336.362000", "115336.365000", "115336.368000", "115336.371000", "115336.374000", "115336.377000", "115336.380000", "115336.383000", "115336.385000", "115336.388000", "115336.391000", "115336.394000", "115336.397000", "115336.400000", "115336.403000", "115336.406000", "115336.408000", "115336.411000", "115336.414000", "115336.417000", "115336.420000", "115336.423000", "115336.426000", "115336.429000", "115336.432000", "115336.435000", "115336.437000", "115416.363000", "115416.366000", "115416.369000", "115416.372000", "115416.375000", "115416.377000", "115416.380000", "115416.383000", "115416.386000", "115416.389000", "115416.392000", "115416.395000", "115416.398000", "115416.401000", "115416.404000", "115416.407000", "115416.410000", "115416.412000", "115416.415000", "115416.418000", "115416.421000", "115416.424000", "115416.427000", "115416.430000", "115416.433000", "115416.436000", "115416.439000", "115456.362000", "115456.365000", "115456.368000", "115456.371000", "115456.374000", "115456.377000", "115456.380000", "115456.383000", "115456.385000", "115456.388000", "115456.391000", "115456.394000", "115456.397000", "115456.400000", "115456.403000", "115456.406000", "115456.409000", "115456.412000", "115456.414000", "115456.417000", "115456.420000", "115456.423000", "115456.426000", "115456.429000", "115456.432000", "115456.435000", "115536.362000", "115536.365000", "115536.368000", "115536.371000", "115536.374000", "115536.377000", "115536.380000", "115536.383000", "115536.386000", "115536.389000", "115536.391000", "115536.394000", "115536.397000", "115536.400000", "115536.403000", "115536.406000", "115536.409000", "115536.412000", "115536.414000", "115536.417000", "115536.420000", "115536.423000", "115536.426000", "115536.429000", "115536.432000", "115536.435000", "115536.438000", "115616.363000", "115616.366000", "115616.369000", "115616.372000", "115616.375000", "115616.378000", "115616.381000", "115616.384000", "115616.386000", "115616.389000", "115616.392000", "115616.395000", "115616.398000", "115616.401000", "115616.404000", "115616.407000", "115616.410000", "115616.413000", "115616.416000", "115616.418000", "115616.421000", "115616.424000", "115616.427000", "115616.430000", "115616.433000", "115616.436000", "115616.439000", "115656.362000", "115656.365000", "115656.368000", "115656.371000", "115656.374000", "115656.377000", "115656.380000", "115656.383000", "115656.385000", "115656.388000", "115656.391000", "115656.394000", "115656.397000", "115656.400000", "115656.403000", "115656.406000", "115656.409000", "115656.411000", "115656.414000", "115656.417000", "115656.420000", "115656.423000", "115656.426000", "115656.429000", "115656.432000", "115656.434000", "115656.437000", "115736.362000", "115736.365000", "115736.368000", "115736.371000", "115736.374000", "115736.377000", "115736.380000", "115736.383000", "115736.385000", "115736.388000", "115736.391000", "115736.394000", "115736.397000", "115736.400000", "115736.403000", "115736.406000", "115736.409000", "115736.421000", "115736.424000", "115736.427000", "115736.430000", "115736.433000", "115736.436000", "115736.439000", "115736.442000", "115736.445000", "115736.448000", "115816.362000", "115816.365000", "115816.368000", "115816.371000", "115816.374000", "115816.377000", "115816.380000", "115816.382000", "115816.385000", "115816.388000", "115816.391000", "115816.394000", "115816.397000", "115816.400000", "115816.403000", "115816.406000", "115816.409000", "115816.412000", "115816.414000", "115816.417000", "115816.420000", "115816.423000", "115816.426000", "115816.429000", "115816.432000", "115816.435000", "115816.438000", "115856.363000", "115856.366000", "115856.369000", "115856.372000", "115856.375000", "115856.378000", "115856.381000", "115856.384000", "115856.387000", "115856.390000", "115856.393000", "115856.396000", "115856.399000", "115856.401000", "115856.404000", "115856.407000", "115856.410000", "115856.413000", "115856.416000", "115856.419000", "115856.422000", "115856.425000", "115856.428000", "115856.431000", "115856.433000", "115856.436000", "115936.362000", "115936.365000", "115936.368000", "115936.371000", "115936.374000", "115936.377000", "115936.380000", "115936.383000", "115936.386000", "115936.388000", "115936.391000", "115936.394000", "115936.397000", "115936.400000", "115936.403000", "115936.406000", "115936.409000", "115936.412000", "115936.415000", "115936.418000", "115936.420000", "115936.423000", "115936.426000", "115936.429000", "115936.432000", "115936.435000", "115936.438000", "120016.362000", "120016.365000", "120016.368000", "120016.371000", "120016.374000", "120016.377000", "120016.380000", "120016.383000", "120016.386000", "120016.389000", "120016.392000", "120016.394000", "120016.397000", "120016.400000", "120016.403000", "120016.406000", "120016.409000", "120016.412000", "120016.415000", "120016.418000", "120016.421000", "120016.424000", "120016.426000", "120016.429000", "120016.432000", "120016.435000", "120016.438000", "120056.363000", "120056.366000", "120056.369000", "120056.372000", "120056.375000", "120056.378000", "120056.381000", "120056.384000", "120056.387000", "120056.390000", "120056.392000", "120056.395000", "120056.398000", "120056.401000", "120056.404000", "120056.407000", "120056.410000", "120056.413000", "120056.416000", "120056.419000", "120056.422000", "120056.425000", "120056.427000", "120056.430000", "120056.433000", "120056.436000", "120056.439000", "120134.452000", "120134.456000", "120134.459000", "120134.461000", "120134.464000", "120134.468000", "120134.471000", "120134.474000", "120134.477000", "120134.488000", "120134.491000", "120134.494000", "120134.497000", "120134.500000", "120134.503000", "120134.506000", "120134.509000", "120134.512000", "120134.515000", "120134.517000", "120134.520000", "120134.523000", "120134.526000", "120134.529000", "120134.532000", "120134.535000"],
