{
  "AcquisitionMatrixPE": 104,
  "AcquisitionNumber": 1,
  "AcquisitionTime": "10:06:58.962500",
  "BandwidthPerPixelPhaseEncode": 17.17,
  "BaseResolution": 104,
  "BodyPartExamined": "BRAIN",
  "CoilString": "HC1-7;NC1_2",
  "ConsistencyInfo": "N4_VE11C_LATEST_20160120",
  "ConversionSoftware": "dcm2niix",
  "ConversionSoftwareVersion": "v1.0.20190902",
  "DerivedVendorReportedEchoSpacing": 0.000560011,
  "DeviceSerialNumber": "167006",
  "DwellTime": 2.1e-06,
  "EchoTime": 0.037,
  "EchoTrainLength": 104,
  "EffectiveEchoSpacing": 0.000560011,
  "FlipAngle": 52,
  "ImageComments": "Unaliased_MB4_PE3_LB",
  "ImageOrientationPatientDICOM": [0.997844, -0.0647942, 0.0104603, 0.0645277, 0.93937, -0.33678],
  "ImageType": [
    "ORIGINAL",
    "PRIMARY",
    "M",
    "MB",
    "ND",
    "MOSAIC"
],
  "ImagingFrequency": 123.259,
  "InPlanePhaseEncodingDirectionDICOM": "COL",
  "InstitutionAddress": "Chemin_Queen-Mary_4565_Montreal_District_CA_H3W_1W5",
  "InstitutionName": "IUGM",
  "InstitutionalDepartmentName": "Department",
  "MRAcquisitionType": "2D",
  "MagneticFieldStrength": 3,
  "Manufacturer": "Siemens",
  "ManufacturersModelName": "Prisma_fit",
  "Modality": "MR",
  "MultibandAccelerationFactor": 4,
  "PartialFourier": 1,
  "PatientPosition": "HFS",
  "PercentPhaseFOV": 100,
  "PhaseEncodingDirection": "j",
  "PhaseEncodingSteps": 104,
  "PhaseResolution": 1,
  "PixelBandwidth": 2290,
  "ProcedureStepDescription": "video_friends",
  "ProtocolName": "func_task-friends-s04e08a",
  "PulseSequenceDetails": "%CustomerSeq%_cmrr_mbep2d_bold",
  "ReceiveCoilActiveElements": "HC1-7;NC1,2",
  "ReceiveCoilName": "HeadNeck_64",
  "ReconMatrixPE": 104,
  "RepetitionTime": 1.49,
  "SAR": 0.0313734,
  "ScanOptions": "FS",
  "ScanningSequence": "EP",
  "SequenceName": "epfid2d1_104",
  "SequenceVariant": "SK_SS",
  "SeriesDescription": "func_task-friends-s04e08a",
  "SeriesNumber": 17,
  "ShimSetting": [636, -7257, -8834, 568, 5, -254, -70, -10],
  "SliceThickness": 2,
  "SliceTiming": [0, 0.7825, 0.0975, 0.88, 0.195, 0.98, 0.2925, 1.0775, 0.39, 1.175, 0.49, 1.2725, 0.5875, 1.37, 0.685, 0, 0.7825, 0.0975, 0.88, 0.195, 0.98, 0.2925, 1.0775, 0.39, 1.175, 0.49, 1.2725, 0.5875, 1.37, 0.685, 0, 0.7825, 0.0975, 0.88, 0.195, 0.98, 0.2925, 1.0775, 0.39, 1.175, 0.49, 1.2725, 0.5875, 1.37, 0.685, 0, 0.7825, 0.0975, 0.88, 0.195, 0.98, 0.2925, 1.0775, 0.39, 1.175, 0.49, 1.2725, 0.5875, 1.37, 0.685],
  "SoftwareVersions": "syngo_MR_E11",
  "SpacingBetweenSlices": 2,
  "StationName": "MRC35049",
  "TaskName": "s04e08a",
  "TotalReadoutTime": 0.0576811,
  "TxRefAmp": 219.344,
  "WipMemBlock": "d0359b03-9ef4-4a40-ba83-d44709dc4fdb||Sequence: R016 ve11c/master r/e634e98; Dec 19 2017 11:00:25 by eja",
  "dcmmeta_affine": [
    [-1.9956876039505005, 0.1290554255247116, -0.023990554735064507, 95.87246704101562],
    [0.12958848476409912, 1.8787394762039185, -0.6734572649002075, -79.00823974609375],
    [0.020920654758810997, 0.6735596060752869, 1.8830506801605225, -64.19989776611328],
    [0.0, 0.0, 0.0, 1.0]
],
  "dcmmeta_reorient_transform": [
    [0.0, -1.0, 0.0, 103.0],
    [1.0, 0.0, 0.0, 0.0],
    [0.0, 0.0, 1.0, 0.0],
    [0.0, 0.0, 0.0, 1.0]
],
  "dcmmeta_shape": [104, 104, 60, 503],
  "dcmmeta_slice_dim": 2,
  "dcmmeta_version": 0.6,
  "global": {
    "const": {
      "AcquisitionMatrix": [104, 0, 0, 104],
      "AngioFlag": "N",
      "BitsAllocated": 16,
      "BitsStored": 16,
      "BodyPartExamined": "BRAIN",
      "Columns": 832,
      "EchoNumbers": 1,
      "EchoTime": 37.0,
      "EchoTrainLength": 104,
      "FlipAngle": 52.0,
      "HighBit": 15,
      "ImageOrientationPatient": [0.99784381932278, -0.0647942419287, 0.01046032753912, 0.06452771151684, 0.93936975121448, -0.3367798167195],
      "ImagePositionPatient": [-882.57165233864, -751.19290145406, 242.73733411736],
      "ImageType": [
        "ORIGINAL",
        "PRIMARY",
        "M",
        "MB",
        "ND",
        "MOSAIC"
],
      "ImagedNucleus": "1H",
      "ImagingFrequency": 123.25907,
      "InPlanePhaseEncodingDirection": "COL",
      "MRAcquisitionType": "2D",
      "MagneticFieldStrength": 3.0,
      "Manufacturer": "SIEMENS",
      "ManufacturerModelName": "Prisma_fit",
      "Modality": "MR",
      "NumberOfAverages": 1.0,
      "NumberOfPhaseEncodingSteps": 104,
      "PercentPhaseFieldOfView": 100.0,
      "PercentSampling": 100.0,
      "PerformedProcedureStepStartTime": "085734.843000",
      "PhotometricInterpretation": "MONOCHROME2",
      "PixelBandwidth": 2290.0,
      "PixelRepresentation": 0,
      "PixelSpacing": [2.0, 2.0],
      "ProtocolName": "func_task-friends-s04e08a",
      "RepetitionTime": 1490.0,
      "Rows": 832,
      "SAR": 0.03137342477246,
      "SamplesPerPixel": 1,
      "ScanOptions": "FS",
      "ScanningSequence": "EP",
      "SequenceName": "epfid2d1_104",
      "SequenceVariant": [
        "SK",
        "SS"
],
      "SeriesDescription": "func_task-friends-s04e08a",
      "SeriesNumber": 17,
      "SeriesTime": "100833.808000",
      "SliceLocation": -34.991508518395,
      "SliceThickness": 2.0,
      "SmallestImagePixelValue": 0,
      "SoftwareVersions": "syngo MR E11",
      "SpacingBetweenSlices": 2.0000000141053,
      "SpecificCharacterSet": "ISO_IR 100",
      "StudyID": "1",
      "StudyTime": "085734.721000",
      "TransmitCoilName": "Body",
      "VariableFlipAngleFlag": "N",
      "WindowCenterWidthExplanation": "Algo1",
      "dBdt": 0.0},
    "slices": {}
  },
  "time": {
    "samples": {
      "AcquisitionNumber": [1, 2, 3, 4, 5, 6, 7, 8, 9, 10, 11, 12, 13, 14, 15, 16, 17, 18, 19, 20, 21, 22, 23, 24, 25, 26, 27, 28, 29, 30, 31, 32, 33, 34, 35, 36, 37, 38, 39, 40, 41, 42, 43, 44, 45, 46, 47, 48, 49, 50, 51, 52, 53, 54, 55, 56, 57, 58, 59, 60, 61, 62, 63, 64, 65, 66, 67, 68, 69, 70, 71, 72, 73, 74, 75, 76, 77, 78, 79, 80, 81, 82, 83, 84, 85, 86, 87, 88, 89, 90, 91, 92, 93, 94, 95, 96, 97, 98, 99, 100, 101, 102, 103, 104, 105, 106, 107, 108, 109, 110, 111, 112, 113, 114, 115, 116, 117, 118, 119, 120, 121, 122, 123, 124, 125, 126, 127, 128, 129, 130, 131, 132, 133, 134, 135, 136, 137, 138, 139, 140, 141, 142, 143, 144, 145, 146, 147, 148, 149, 150, 151, 152, 153, 154, 155, 156, 157, 158, 159, 160, 161, 162, 163, 164, 165, 166, 167, 168, 169, 170, 171, 172, 173, 174, 175, 176, 177, 178, 179, 180, 181, 182, 183, 184, 185, 186, 187, 188, 189, 190, 191, 192, 193, 194, 195, 196, 197, 198, 199, 200, 201, 202, 203, 204, 205, 206, 207, 208, 209, 210, 211, 212, 213, 214, 215, 216, 217, 218, 219, 220, 221, 222, 223, 224, 225, 226, 227, 228, 229, 230, 231, 232, 233, 234, 235, 236, 237, 238, 239, 240, 241, 242, 243, 244, 245, 246, 247, 248, 249, 250, 251, 252, 253, 254, 255, 256, 257, 258, 259, 260, 261, 262, 263, 264, 265, 266, 267, 268, 269, 270, 271, 272, 273, 274, 275, 276, 277, 278, 279, 280, 281, 282, 283, 284, 285, 286, 287, 288, 289, 290, 291, 292, 293, 294, 295, 296, 297, 298, 299, 300, 301, 302, 303, 304, 305, 306, 307, 308, 309, 310, 311, 312, 313, 314, 315, 316, 317, 318, 319, 320, 321, 322, 323, 324, 325, 326, 327, 328, 329, 330, 331, 332, 333, 334, 335, 336, 337, 338, 339, 340, 341, 342, 343, 344, 345, 346, 347, 348, 349, 350, 351, 352, 353, 354, 355, 356, 357, 358, 359, 360, 361, 362, 363, 364, 365, 366, 367, 368, 369, 370, 371, 372, 373, 374, 375, 376, 377, 378, 379, 380, 381, 382, 383, 384, 385, 386, 387, 388, 389, 390, 391, 392, 393, 394, 395, 396, 397, 398, 399, 400, 401, 402, 403, 404, 405, 406, 407, 408, 409, 410, 411, 412, 413, 414, 415, 416, 417, 418, 419, 420, 421, 422, 423, 424, 425, 426, 427, 428, 429, 430, 431, 432, 433, 434, 435, 436, 437, 438, 439, 440, 441, 442, 443, 444, 445, 446, 447, 448, 449, 450, 451, 452, 453, 454, 455, 456, 457, 458, 459, 460, 461, 462, 463, 464, 465, 466, 467, 468, 469, 470, 471, 472, 473, 474, 475, 476, 477, 478, 479, 480, 481, 482, 483, 484, 485, 486, 487, 488, 489, 490, 491, 492, 493, 494, 495, 496, 497, 498, 499, 500, 501, 502, 503],
      "AcquisitionTime": ["100658.962500", "100700.452500", "100701.942500", "100703.432500", "100704.922500", "100706.412500", "100707.902500", "100709.392500", "100710.882500", "100712.372500", "100713.862500", "100715.352500", "100716.842500", "100718.332500", "100719.822500", "100721.312500", "100722.802500", "100724.292500", "100725.782500", "100727.272500", "100728.762500", "100730.252500", "100731.742500", "100733.232500", "100734.722500", "100736.212500", "100737.702500", "100739.192500", "100740.682500", "100742.172500", "100743.662500", "100745.152500", "100746.642500", "100748.132500", "100749.622500", "100751.112500", "100752.602500", "100754.092500", "100755.582500", "100757.072500", "100758.562500", "100800.052500", "100801.542500", "100803.032500", "100804.522500", "100806.012500", "100807.502500", "100808.992500", "100810.482500", "100811.972500", "100813.462500", "100814.952500", "100816.442500", "100817.932500", "100819.422500", "100820.912500", "100822.402500", "100823.892500", "100825.382500", "100826.872500", "100828.362500", "100829.852500", "100831.342500", "100832.832500", "100834.322500", "100835.812500", "100837.302500", "100838.792500", "100840.282500", "100841.772500", "100843.262500", "100844.752500", "100846.242500", "100847.732500", "100849.222500", "100850.712500", "100852.202500", "100853.692500", "100855.182500", "100856.672500", "100858.162500", "100859.652500", "100901.142500", "100902.632500", "100904.122500", "100905.612500", "100907.102500", "100908.592500", "100910.082500", "100911.572500", "100913.062500", "100914.552500", "100916.042500", "100917.532500", "100919.022500", "100920.512500", "100922.002500", "100923.492500", "100924.982500", "100926.472500", "100927.962500", "100929.452500", "100930.942500", "100932.432500", "100933.922500", "100935.412500", "100936.902500", "100938.392500", "100939.882500", "100941.372500", "100942.862500", "100944.352500", "100945.842500", "100947.332500", "100948.822500", "100950.312500", "100951.802500", "100953.292500", "100954.782500", "100956.272500", "100957.762500", "100959.252500", "101000.742500", "101002.232500", "101003.722500", "101005.212500", "101006.702500", "101008.192500", "101009.682500", "101011.172500", "101012.662500", "101014.152500", "101015.642500", "101017.132500", "101018.622500", "101020.112500", "101021.602500", "101023.092500", "101024.582500", "101026.072500", "101027.562500", "101029.052500", "101030.542500", "101032.032500", "101033.522500", "101035.012500", "101036.502500", "101037.992500", "101039.482500", "101040.972500", "101042.462500", "101043.952500", "101045.442500", "101046.932500", "101048.422500", "101049.912500", "101051.402500", "101052.892500", "101054.382500", "101055.872500", "101057.362500", "101058.852500", "101100.342500", "101101.832500", "101103.322500", "101104.812500", "101106.302500", "101107.792500", "101109.282500", "101110.772500", "101112.262500", "101113.752500", "101115.242500", "101116.732500", "101118.222500", "101119.712500", "101121.202500", "101122.692500", "101124.182500", "101125.672500", "101127.162500", "101128.652500", "101130.142500", "101131.632500", "101133.122500", "101134.612500", "101136.102500", "101137.592500", "101139.082500", "101140.572500", "101142.062500", "101143.552500", "101145.042500", "101146.532500", "101148.022500", "101149.512500", "101151.002500", "101152.492500", "101153.982500", "101155.472500", "101156.962500", "101158.452500", "101159.942500", "101201.432500", "101202.922500", "101204.412500", "101205.902500", "101207.392500", "101208.882500", "101210.372500", "101211.862500", "101213.352500", "101214.842500", "101216.332500", "101217.822500", "101219.312500", "101220.802500", "101222.292500", "101223.782500", "101225.272500", "101226.762500", "101228.252500", "101229.742500", "101231.232500", "101232.722500", "101234.212500", "101235.702500", "101237.192500", "101238.682500", "101240.172500", "101241.662500", "101243.152500", "101244.642500", "101246.132500", "101247.622500", "101249.112500", "101250.602500", "101252.092500", "101253.582500", "101255.072500", "101256.562500", "101258.052500", "101259.542500", "101301.032500", "101302.522500", "101304.012500", "101305.502500", "101306.992500", "101308.482500", "101309.972500", "101311.462500", "101312.952500", "101314.442500", "101315.932500", "101317.422500", "101318.912500", "101320.402500", "101321.892500", "101323.382500", "101324.872500", "101326.362500", "101327.852500", "101329.342500", "101330.832500", "101332.322500", "101333.812500", "101335.302500", "101336.792500", "101338.282500", "101339.772500", "101341.262500", "101342.752500", "101344.242500", "101345.732500", "101347.222500", "101348.712500", "101350.202500", "101351.692500", "101353.182500", "101354.672500", "101356.162500", "101357.652500", "101359.142500", "101400.632500", "101402.122500", "101403.612500", "101405.102500", "101406.592500", "101408.082500", "101409.572500", "101411.062500", "101412.552500", "101414.042500", "101415.532500", "101417.022500", "101418.512500", "101420.002500", "101421.492500", "101422.982500", "101424.472500", "101425.962500", "101427.452500", "101428.942500", "101430.432500", "101431.922500", "101433.412500", "101434.902500", "101436.392500", "101437.882500", "101439.372500", "101440.862500", "101442.352500", "101443.842500", "101445.332500", "101446.822500", "101448.312500", "101449.802500", "101451.292500", "101452.782500", "101454.272500", "101455.762500", "101457.252500", "101458.742500", "101500.232500", "101501.722500", "101503.212500", "101504.702500", "101506.192500", "101507.682500", "101509.172500", "101510.662500", "101512.152500", "101513.642500", "101515.132500", "101516.622500", "101518.112500", "101519.602500", "101521.092500", "101522.582500", "101524.072500", "101525.562500", "101527.052500", "101528.542500", "101530.032500", "101531.522500", "101533.012500", "101534.502500", "101535.992500", "101537.482500", "101538.972500", "101540.462500", "101541.952500", "101543.442500", "101544.932500", "101546.422500", "101547.912500", "101549.402500", "101550.892500", "101552.382500", "101553.872500", "101555.362500", "101556.852500", "101558.342500", "101559.832500", "101601.322500", "101602.812500", "101604.302500", "101605.792500", "101607.282500", "101608.772500", "101610.262500", "101611.752500", "101613.242500", "101614.732500", "101616.222500", "101617.712500", "101619.202500", "101620.692500", "101622.182500", "101623.672500", "101625.162500", "101626.652500", "101628.142500", "101629.632500", "101631.122500", "101632.612500", "101634.102500", "101635.592500", "101637.082500", "101638.572500", "101640.062500", "101641.552500", "101643.042500", "101644.532500", "101646.022500", "101647.512500", "101649.002500", "101650.492500", "101651.982500", "101653.472500", "101654.962500", "101656.452500", "101657.942500", "101659.432500", "101700.922500", "101702.412500", "101703.902500", "101705.392500", "101706.882500", "101708.372500", "101709.862500", "101711.352500", "101712.842500", "101714.332500", "101715.822500", "101717.312500", "101718.802500", "101720.292500", "101721.782500", "101723.272500", "101724.762500", "101726.252500", "101727.742500", "101729.232500", "101730.722500", "101732.212500", "101733.702500", "101735.192500", "101736.682500", "101738.172500", "101739.662500", "101741.152500", "101742.642500", "101744.132500", "101745.622500", "101747.112500", "101748.602500", "101750.092500", "101751.582500", "101753.072500", "101754.562500", "101756.052500", "101757.542500", "101759.032500", "101800.522500", "101802.012500", "101803.502500", "101804.992500", "101806.482500", "101807.972500", "101809.462500", "101810.952500", "101812.442500", "101813.932500", "101815.422500", "101816.912500", "101818.402500", "101819.892500", "101821.382500", "101822.872500", "101824.362500", "101825.852500", "101827.342500", "101828.832500", "101830.322500", "101831.812500", "101833.302500", "101834.792500", "101836.282500", "101837.772500", "101839.262500", "101840.752500", "101842.242500", "101843.732500", "101845.222500", "101846.712500", "101848.202500", "101849.692500", "101851.182500", "101852.672500", "101854.162500", "101855.652500", "101857.142500", "101858.632500", "101900.122500", "101901.612500", "101903.102500", "101904.592500", "101906.082500", "101907.572500", "101909.062500", "101910.552500", "101912.042500", "101913.532500", "101915.022500", "101916.512500", "101918.002500", "101919.492500", "101920.982500", "101922.472500", "101923.962500", "101925.452500", "101926.942500"],
      "ContentTime": ["100833.812000", "100833.815000", "100833.818000", "100833.821000", "100833.824000", "100833.827000", "100833.829000", "100833.832000", "100833.835000", "100833.838000", "100833.841000", "100833.844000", "100833.847000", "100833.850000", "100833.852000", "100833.855000", "100833.858000", "100833.861000", "100833.864000", "100833.867000", "100833.870000", "100833.872000", "100833.875000", "100833.878000", "100833.881000", "100833.896000", "100833.905000", "100833.908000", "100833.911000", "100833.914000", "100833.917000", "100833.920000", "100833.923000", "100833.926000", "100833.928000", "100833.931000", "100833.934000", "100833.937000", "100833.940000", "100853.780000", "100853.783000", "100853.786000", "100853.789000", "100853.792000", "100853.795000", "100853.798000", "100853.800000", "100853.803000", "100853.806000", "100853.809000", "100853.812000", "100853.816000", "100853.819000", "100853.822000", "100853.825000", "100853.827000", "100853.830000", "100853.833000", "100853.836000", "100913.780000", "100913.783000", "100913.786000", "100913.789000", "100913.792000", "100913.794000", "100913.797000", "100913.800000", "100913.803000", "100913.806000", "100913.809000", "100913.812000", "100913.815000", "100913.818000", "100913.820000", "100913.823000", "100913.826000", "100913.829000", "100913.832000", "100913.835000", "100933.780000", "100933.783000", "100933.786000", "100933.789000", "100933.792000", "100933.794000", "100933.797000", "100933.800000", "100933.803000", "100933.806000", "100933.809000", "100933.812000", "100933.815000", "100933.818000", "100933.821000", "100933.823000", "100933.826000", "100933.829000", "100933.832000", "100933.835000", "100933.838000", "101013.781000", "101013.784000", "101013.787000", "101013.790000", "101013.793000", "101013.796000", "101013.799000", "101013.802000", "101013.805000", "101013.807000", "101013.810000", "101013.813000", "101013.816000", "101013.819000", "101013.822000", "101013.829000", "101013.832000", "101013.835000", "101013.837000", "101013.840000", "101013.843000", "101013.846000", "101013.849000", "101013.852000", "101013.855000", "101013.858000", "101013.861000", "101013.863000", "101013.866000", "101013.869000", "101053.780000", "101053.783000", "101053.786000", "101053.789000", "101053.792000", "101053.795000", "101053.797000", "101053.800000", "101053.803000", "101053.806000", "101053.809000", "101053.812000", "101053.815000", "101053.818000", "101053.820000", "101053.823000", "101053.826000", "101053.829000", "101053.832000", "101053.835000", "101053.838000", "101053.841000", "101053.844000", "101053.847000", "101053.849000", "101053.852000", "101053.855000", "101133.780000", "101133.783000", "101133.786000", "101133.789000", "101133.792000", "101133.796000", "101133.800000", "101133.803000", "101133.806000", "101133.808000", "101133.811000", "101133.814000", "101133.817000", "101133.820000", "101133.823000", "101133.826000", "101133.829000", "101133.832000", "101133.835000", "101133.838000", "101133.841000", "101133.843000", "101133.846000", "101133.849000", "101133.852000", "101133.855000", "101213.781000", "101213.784000", "101213.787000", "101213.790000", "101213.808000", "101213.811000", "101213.814000", "101213.817000", "101213.820000", "101213.823000", "101213.826000", "101213.828000", "101213.831000", "101213.834000", "101213.837000", "101213.840000", "101213.843000", "101213.846000", "101213.849000", "101213.852000", "101213.855000", "101213.857000", "101213.860000", "101213.863000", "101213.866000", "101213.869000", "101213.872000", "101253.781000", "101253.784000", "101253.787000", "101253.790000", "101253.793000", "101253.796000", "101253.799000", "101253.802000", "101253.804000", "101253.807000", "101253.810000", "101253.813000", "101253.816000", "101253.819000", "101253.822000", "101253.825000", "101253.827000", "101253.830000", "101253.833000", "101253.836000", "101253.839000", "101253.842000", "101253.845000", "101253.848000", "101253.851000", "101253.853000", "101253.856000", "101333.780000", "101333.783000", "101333.786000", "101333.789000", "101333.792000", "101333.795000", "101333.798000", "101333.800000", "101333.803000", "101333.806000", "101333.809000", "101333.812000", "101333.815000", "101333.818000", "101333.821000", "101333.824000", "101333.826000", "101333.830000", "101333.832000", "101333.835000", "101333.838000", "101333.841000", "101333.844000", "101333.847000", "101333.850000", "101333.853000", "101333.855000", "101413.780000", "101413.786000", "101413.789000", "101413.792000", "101413.794000", "101413.797000", "101413.800000", "101413.803000", "101413.806000", "101413.809000", "101413.812000", "101413.815000", "101413.818000", "101413.820000", "101413.823000", "101413.826000", "101413.829000", "101413.832000", "101413.835000", "101413.838000", "101413.841000", "101413.844000", "101413.847000", "101413.849000", "101413.852000", "101413.855000", "101413.858000", "101453.781000", "101453.784000", "101453.787000", "101453.790000", "101453.793000", "101453.796000", "101453.799000", "101453.802000", "101453.804000", "101453.807000", "101453.810000", "101453.813000", "101453.816000", "101453.819000", "101453.822000", "101453.825000", "101453.828000", "101453.831000", "101453.833000", "101453.836000", "101453.839000", "101453.842000", "101453.845000", "101453.848000", "101453.851000", "101453.854000", "101453.856000", "101513.781000", "101513.784000", "101513.787000", "101513.790000", "101513.793000", "101513.796000", "101513.799000", "101513.802000", "101513.804000", "101513.807000", "101513.810000", "101513.813000", "101513.816000", "101553.780000", "101553.783000", "101553.786000", "101553.789000", "101553.792000", "101553.795000", "101553.798000", "101553.800000", "101553.803000", "101553.806000", "101553.809000", "101553.812000", "101553.815000", "101553.818000", "101553.821000", "101553.824000", "101553.827000", "101553.830000", "101553.832000", "101553.835000", "101553.838000", "101553.841000", "101553.844000", "101553.847000", "101553.850000", "101553.853000", "101553.856000", "101633.780000", "101633.783000", "101633.786000", "101633.789000", "101633.792000", "101633.795000", "101633.798000", "101633.801000", "101633.804000", "101633.806000", "101633.809000", "101633.812000", "101633.815000", "101633.818000", "101633.821000", "101633.824000", "101633.827000", "101633.838000", "101633.841000", "101633.844000", "101633.847000", "101633.850000", "101633.853000", "101633.856000", "101633.859000", "101633.862000", "101633.865000", "101713.781000", "101713.784000", "101713.787000", "101713.790000", "101713.793000", "101713.796000", "101713.798000", "101713.801000", "101713.804000", "101713.807000", "101713.810000", "101713.813000", "101713.816000", "101713.819000", "101713.822000", "101713.825000", "101713.827000", "101713.830000", "101713.833000", "101713.836000", "101713.839000", "101713.842000", "101713.845000", "101713.848000", "101713.851000", "101713.853000", "101713.856000", "101753.780000", "101753.783000", "101753.786000", "101753.789000", "101753.792000", "101753.795000", "101753.798000", "101753.801000", "101753.804000", "101753.807000", "101753.810000", "101753.813000", "101753.816000", "101753.819000", "101753.821000", "101753.824000", "101753.827000", "101753.830000", "101753.833000", "101753.836000", "101753.839000", "101753.842000", "101753.845000", "101753.848000", "101753.851000", "101753.853000", "101753.856000", "101833.780000", "101833.783000", "101833.786000", "101833.789000", "101833.792000", "101833.795000", "101833.798000", "101833.801000", "101833.803000", "101833.806000", "101833.809000", "101833.812000", "101833.815000", "101833.818000", "101833.821000", "101833.824000", "101833.827000", "101833.830000", "101833.832000", "101833.835000", "101833.838000", "101833.841000", "101833.844000", "101833.847000", "101833.850000", "101833.854000", "101913.781000", "101913.784000", "101913.787000", "101913.790000", "101913.793000", "101913.796000", "101913.799000", "101913.802000", "101913.805000", "101913.808000", "101913.811000", "101913.813000", "101913.816000", "101913.819000", "101913.822000", "101913.825000", "101913.828000", "101913.831000", "101913.834000", "101913.837000", "101913.840000", "101913.843000", "101913.845000", "101913.848000", "101913.851000", "101913.854000", "101913.857000", "101929.169000", "101929.172000", "101929.175000", "101929.178000", "101929.181000", "101929.184000", "101929.187000", "101929.190000", "101929.193000", "101929.196000", "101929.199000"],
