{
  "AcquisitionMatrixPE": 104,
  "AcquisitionNumber": 1,
  "AcquisitionTime": "09:41:25.287500",
  "BandwidthPerPixelPhaseEncode": 17.17,
  "BaseResolution": 104,
  "BodyPartExamined": "BRAIN",
  "CoilString": "HC1-7;NC1_2",
  "ConsistencyInfo": "N4_VE11C_LATEST_20160120",
  "ConversionSoftware": "dcm2niix",
  "ConversionSoftwareVersion": "v1.0.20190902",
  "DerivedVendorReportedEchoSpacing": 0.000560011,
  "DeviceSerialNumber": "167006",
  "DwellTime": 2.1e-06,
  "EchoTime": 0.037,
  "EchoTrainLength": 104,
  "EffectiveEchoSpacing": 0.000560011,
  "FlipAngle": 52,
  "ImageComments": "Unaliased_MB4_PE3_LB",
  "ImageOrientationPatientDICOM": [0.997844, -0.0647942, 0.0104603, 0.0645277, 0.93937, -0.33678],
  "ImageType": [
    "ORIGINAL",
    "PRIMARY",
    "M",
    "MB",
    "ND",
    "MOSAIC"
],
  "ImagingFrequency": 123.259,
  "InPlanePhaseEncodingDirectionDICOM": "COL",
  "InstitutionAddress": "Chemin_Queen-Mary_4565_Montreal_District_CA_H3W_1W5",
  "InstitutionName": "IUGM",
  "InstitutionalDepartmentName": "Department",
  "MRAcquisitionType": "2D",
  "MagneticFieldStrength": 3,
  "Manufacturer": "Siemens",
  "ManufacturersModelName": "Prisma_fit",
  "Modality": "MR",
  "MultibandAccelerationFactor": 4,
  "PartialFourier": 1,
  "PatientPosition": "HFS",
  "PercentPhaseFOV": 100,
  "PhaseEncodingDirection": "j",
  "PhaseEncodingSteps": 104,
  "PhaseResolution": 1,
  "PixelBandwidth": 2290,
  "ProcedureStepDescription": "video_friends",
  "ProtocolName": "func_task-friends-s04e07a",
  "PulseSequenceDetails": "%CustomerSeq%_cmrr_mbep2d_bold",
  "ReceiveCoilActiveElements": "HC1-7;NC1,2",
  "ReceiveCoilName": "HeadNeck_64",
  "ReconMatrixPE": 104,
  "RepetitionTime": 1.49,
  "SAR": 0.0313719,
  "ScanOptions": "FS",
  "ScanningSequence": "EP",
  "SequenceName": "epfid2d1_104",
  "SequenceVariant": "SK_SS",
  "SeriesDescription": "func_task-friends-s04e07a",
  "SeriesNumber": 13,
  "ShimSetting": [636, -7257, -8834, 568, 5, -254, -70, -10],
  "SliceThickness": 2,
  "SliceTiming": [0, 0.785, 0.0975, 0.8825, 0.1975, 0.98, 0.295, 1.0775, 0.3925, 1.1775, 0.49, 1.275, 0.5875, 1.3725, 0.6875, 0, 0.785, 0.0975, 0.8825, 0.1975, 0.98, 0.295, 1.0775, 0.3925, 1.1775, 0.49, 1.275, 0.5875, 1.3725, 0.6875, 0, 0.785, 0.0975, 0.8825, 0.1975, 0.98, 0.295, 1.0775, 0.3925, 1.1775, 0.49, 1.275, 0.5875, 1.3725, 0.6875, 0, 0.785, 0.0975, 0.8825, 0.1975, 0.98, 0.295, 1.0775, 0.3925, 1.1775, 0.49, 1.275, 0.5875, 1.3725, 0.6875],
  "SoftwareVersions": "syngo_MR_E11",
  "SpacingBetweenSlices": 2,
  "StationName": "MRC35049",
  "TaskName": "s04e07a",
  "TotalReadoutTime": 0.0576811,
  "TxRefAmp": 219.344,
  "WipMemBlock": "4dba02b8-4508-4bcf-898b-52c4a2667f25||Sequence: R016 ve11c/master r/e634e98; Dec 19 2017 11:00:25 by eja",
  "dcmmeta_affine": [
    [-1.9956876039505005, 0.1290554255247116, -0.023990554735064507, 95.87246704101562],
    [0.12958848476409912, 1.8787394762039185, -0.6734572649002075, -79.00823974609375],
    [0.020920654758810997, 0.6735596060752869, 1.8830506801605225, -64.19989776611328],
    [0.0, 0.0, 0.0, 1.0]
],
  "dcmmeta_reorient_transform": [
    [0.0, -1.0, 0.0, 103.0],
    [1.0, 0.0, 0.0, 0.0],
    [0.0, 0.0, 1.0, 0.0],
    [0.0, 0.0, 0.0, 1.0]
],
  "dcmmeta_shape": [104, 104, 60, 497],
  "dcmmeta_slice_dim": 2,
  "dcmmeta_version": 0.6,
  "global": {
    "const": {
      "AcquisitionMatrix": [104, 0, 0, 104],
      "AngioFlag": "N",
      "BitsAllocated": 16,
      "BitsStored": 16,
      "BodyPartExamined": "BRAIN",
      "Columns": 832,
      "EchoNumbers": 1,
      "EchoTime": 37.0,
      "EchoTrainLength": 104,
      "FlipAngle": 52.0,
      "HighBit": 15,
      "ImageOrientationPatient": [0.99784381932278, -0.0647942419287, 0.01046032753912, 0.06452771151684, 0.93936975121448, -0.3367798167195],
      "ImagePositionPatient": [-882.57165233864, -751.19290145406, 242.73733411736],
      "ImageType": [
        "ORIGINAL",
        "PRIMARY",
        "M",
        "MB",
        "ND",
        "MOSAIC"
],
      "ImagedNucleus": "1H",
      "ImagingFrequency": 123.259061,
      "InPlanePhaseEncodingDirection": "COL",
      "MRAcquisitionType": "2D",
      "MagneticFieldStrength": 3.0,
      "Manufacturer": "SIEMENS",
      "ManufacturerModelName": "Prisma_fit",
      "Modality": "MR",
      "NumberOfAverages": 1.0,
      "NumberOfPhaseEncodingSteps": 104,
      "PercentPhaseFieldOfView": 100.0,
      "PercentSampling": 100.0,
      "PerformedProcedureStepStartTime": "085734.843000",
      "PhotometricInterpretation": "MONOCHROME2",
      "PixelBandwidth": 2290.0,
      "PixelRepresentation": 0,
      "PixelSpacing": [2.0, 2.0],
      "ProtocolName": "func_task-friends-s04e07a",
      "RepetitionTime": 1490.0,
      "Rows": 832,
      "SAR": 0.03137193460329,
      "SamplesPerPixel": 1,
      "ScanOptions": "FS",
      "ScanningSequence": "EP",
      "SequenceName": "epfid2d1_104",
      "SequenceVariant": [
        "SK",
        "SS"
],
      "SeriesDescription": "func_task-friends-s04e07a",
      "SeriesNumber": 13,
      "SeriesTime": "094252.054000",
      "SliceLocation": -34.991508518395,
      "SliceThickness": 2.0,
      "SmallestImagePixelValue": 0,
      "SoftwareVersions": "syngo MR E11",
      "SpacingBetweenSlices": 2.0000000141053,
      "SpecificCharacterSet": "ISO_IR 100",
      "StudyID": "1",
      "StudyTime": "085734.721000",
      "TransmitCoilName": "Body",
      "VariableFlipAngleFlag": "N",
      "WindowCenterWidthExplanation": "Algo1",
      "dBdt": 0.0},
    "slices": {}
  },
  "time": {
    "samples": {
      "AcquisitionNumber": [1, 2, 3, 4, 5, 6, 7, 8, 9, 10, 11, 12, 13, 14, 15, 16, 17, 18, 19, 20, 21, 22, 23, 24, 25, 26, 27, 28, 29, 30, 31, 32, 33, 34, 35, 36, 37, 38, 39, 40, 41, 42, 43, 44, 45, 46, 47, 48, 49, 50, 51, 52, 53, 54, 55, 56, 57, 58, 59, 60, 61, 62, 63, 64, 65, 66, 67, 68, 69, 70, 71, 72, 73, 74, 75, 76, 77, 78, 79, 80, 81, 82, 83, 84, 85, 86, 87, 88, 89, 90, 91, 92, 93, 94, 95, 96, 97, 98, 99, 100, 101, 102, 103, 104, 105, 106, 107, 108, 109, 110, 111, 112, 113, 114, 115, 116, 117, 118, 119, 120, 121, 122, 123, 124, 125, 126, 127, 128, 129, 130, 131, 132, 133, 134, 135, 136, 137, 138, 139, 140, 141, 142, 143, 144, 145, 146, 147, 148, 149, 150, 151, 152, 153, 154, 155, 156, 157, 158, 159, 160, 161, 162, 163, 164, 165, 166, 167, 168, 169, 170, 171, 172, 173, 174, 175, 176, 177, 178, 179, 180, 181, 182, 183, 184, 185, 186, 187, 188, 189, 190, 191, 192, 193, 194, 195, 196, 197, 198, 199, 200, 201, 202, 203, 204, 205, 206, 207, 208, 209, 210, 211, 212, 213, 214, 215, 216, 217, 218, 219, 220, 221, 222, 223, 224, 225, 226, 227, 228, 229, 230, 231, 232, 233, 234, 235, 236, 237, 238, 239, 240, 241, 242, 243, 244, 245, 246, 247, 248, 249, 250, 251, 252, 253, 254, 255, 256, 257, 258, 259, 260, 261, 262, 263, 264, 265, 266, 267, 268, 269, 270, 271, 272, 273, 274, 275, 276, 277, 278, 279, 280, 281, 282, 283, 284, 285, 286, 287, 288, 289, 290, 291, 292, 293, 294, 295, 296, 297, 298, 299, 300, 301, 302, 303, 304, 305, 306, 307, 308, 309, 310, 311, 312, 313, 314, 315, 316, 317, 318, 319, 320, 321, 322, 323, 324, 325, 326, 327, 328, 329, 330, 331, 332, 333, 334, 335, 336, 337, 338, 339, 340, 341, 342, 343, 344, 345, 346, 347, 348, 349, 350, 351, 352, 353, 354, 355, 356, 357, 358, 359, 360, 361, 362, 363, 364, 365, 366, 367, 368, 369, 370, 371, 372, 373, 374, 375, 376, 377, 378, 379, 380, 381, 382, 383, 384, 385, 386, 387, 388, 389, 390, 391, 392, 393, 394, 395, 396, 397, 398, 399, 400, 401, 402, 403, 404, 405, 406, 407, 408, 409, 410, 411, 412, 413, 414, 415, 416, 417, 418, 419, 420, 421, 422, 423, 424, 425, 426, 427, 428, 429, 430, 431, 432, 433, 434, 435, 436, 437, 438, 439, 440, 441, 442, 443, 444, 445, 446, 447, 448, 449, 450, 451, 452, 453, 454, 455, 456, 457, 458, 459, 460, 461, 462, 463, 464, 465, 466, 467, 468, 469, 470, 471, 472, 473, 474, 475, 476, 477, 478, 479, 480, 481, 482, 483, 484, 485, 486, 487, 488, 489, 490, 491, 492, 493, 494, 495, 496, 497],
      "AcquisitionTime": ["094125.287500", "094126.777500", "094128.267500", "094129.757500", "094131.247500", "094132.737500", "094134.227500", "094135.717500", "094137.207500", "094138.697500", "094140.187500", "094141.677500", "094143.167500", "094144.657500", "094146.147500", "094147.637500", "094149.127500", "094150.617500", "094152.107500", "094153.597500", "094155.087500", "094156.577500", "094158.067500", "094159.557500", "094201.047500", "094202.537500", "094204.027500", "094205.517500", "094207.007500", "094208.497500", "094209.987500", "094211.477500", "094212.967500", "094214.457500", "094215.947500", "094217.437500", "094218.927500", "094220.417500", "094221.907500", "094223.397500", "094224.887500", "094226.377500", "094227.867500", "094229.357500", "094230.847500", "094232.337500", "094233.827500", "094235.317500", "094236.807500", "094238.297500", "094239.787500", "094241.277500", "094242.767500", "094244.257500", "094245.747500", "094247.237500", "094248.727500", "094250.217500", "094251.707500", "094253.197500", "094254.687500", "094256.177500", "094257.667500", "094259.157500", "094300.647500", "094302.137500", "094303.627500", "094305.117500", "094306.607500", "094308.097500", "094309.587500", "094311.077500", "094312.567500", "094314.057500", "094315.547500", "094317.037500", "094318.527500", "094320.017500", "094321.507500", "094322.997500", "094324.487500", "094325.977500", "094327.467500", "094328.957500", "094330.447500", "094331.937500", "094333.427500", "094334.917500", "094336.407500", "094337.897500", "094339.387500", "094340.877500", "094342.367500", "094343.857500", "094345.347500", "094346.837500", "094348.327500", "094349.817500", "094351.307500", "094352.797500", "094354.287500", "094355.777500", "094357.267500", "094358.757500", "094400.247500", "094401.737500", "094403.227500", "094404.717500", "094406.207500", "094407.697500", "094409.187500", "094410.677500", "094412.167500", "094413.657500", "094415.147500", "094416.637500", "094418.127500", "094419.617500", "094421.107500", "094422.597500", "094424.087500", "094425.577500", "094427.067500", "094428.557500", "094430.047500", "094431.537500", "094433.027500", "094434.517500", "094436.007500", "094437.497500", "094438.987500", "094440.477500", "094441.967500", "094443.457500", "094444.947500", "094446.437500", "094447.927500", "094449.417500", "094450.907500", "094452.397500", "094453.887500", "094455.377500", "094456.867500", "094458.357500", "094459.847500", "094501.337500", "094502.827500", "094504.317500", "094505.807500", "094507.297500", "094508.787500", "094510.277500", "094511.767500", "094513.257500", "094514.747500", "094516.237500", "094517.727500", "094519.217500", "094520.707500", "094522.197500", "094523.687500", "094525.177500", "094526.667500", "094528.157500", "094529.647500", "094531.137500", "094532.627500", "094534.117500", "094535.607500", "094537.097500", "094538.587500", "094540.077500", "094541.567500", "094543.057500", "094544.547500", "094546.037500", "094547.527500", "094549.017500", "094550.507500", "094551.997500", "094553.487500", "094554.977500", "094556.467500", "094557.957500", "094559.447500", "094600.937500", "094602.427500", "094603.917500", "094605.407500", "094606.897500", "094608.387500", "094609.877500", "094611.367500", "094612.857500", "094614.347500", "094615.837500", "094617.327500", "094618.817500", "094620.307500", "094621.797500", "094623.287500", "094624.777500", "094626.267500", "094627.757500", "094629.247500", "094630.737500", "094632.227500", "094633.717500", "094635.207500", "094636.697500", "094638.187500", "094639.677500", "094641.167500", "094642.657500", "094644.147500", "094645.637500", "094647.127500", "094648.617500", "094650.107500", "094651.597500", "094653.087500", "094654.577500", "094656.067500", "094657.557500", "094659.047500", "094700.537500", "094702.027500", "094703.517500", "094705.007500", "094706.497500", "094707.987500", "094709.477500", "094710.967500", "094712.457500", "094713.947500", "094715.437500", "094716.927500", "094718.417500", "094719.907500", "094721.397500", "094722.887500", "094724.377500", "094725.867500", "094727.357500", "094728.847500", "094730.337500", "094731.827500", "094733.317500", "094734.807500", "094736.297500", "094737.787500", "094739.277500", "094740.767500", "094742.257500", "094743.747500", "094745.237500", "094746.727500", "094748.217500", "094749.707500", "094751.197500", "094752.687500", "094754.177500", "094755.667500", "094757.157500", "094758.647500", "094800.137500", "094801.627500", "094803.117500", "094804.607500", "094806.097500", "094807.587500", "094809.077500", "094810.567500", "094812.057500", "094813.547500", "094815.037500", "094816.527500", "094818.017500", "094819.507500", "094820.997500", "094822.487500", "094823.977500", "094825.467500", "094826.957500", "094828.447500", "094829.937500", "094831.427500", "094832.917500", "094834.407500", "094835.897500", "094837.387500", "094838.877500", "094840.367500", "094841.857500", "094843.347500", "094844.837500", "094846.327500", "094847.817500", "094849.307500", "094850.797500", "094852.287500", "094853.777500", "094855.267500", "094856.757500", "094858.247500", "094859.737500", "094901.227500", "094902.717500", "094904.207500", "094905.697500", "094907.187500", "094908.677500", "094910.167500", "094911.657500", "094913.147500", "094914.637500", "094916.127500", "094917.617500", "094919.107500", "094920.597500", "094922.087500", "094923.577500", "094925.067500", "094926.557500", "094928.047500", "094929.537500", "094931.027500", "094932.517500", "094934.007500", "094935.497500", "094936.987500", "094938.477500", "094939.967500", "094941.457500", "094942.947500", "094944.437500", "094945.927500", "094947.417500", "094948.907500", "094950.397500", "094951.887500", "094953.377500", "094954.867500", "094956.357500", "094957.847500", "094959.337500", "095000.827500", "095002.317500", "095003.807500", "095005.297500", "095006.787500", "095008.277500", "095009.767500", "095011.257500", "095012.747500", "095014.237500", "095015.727500", "095017.217500", "095018.707500", "095020.197500", "095021.687500", "095023.177500", "095024.667500", "095026.157500", "095027.647500", "095029.137500", "095030.627500", "095032.117500", "095033.607500", "095035.097500", "095036.587500", "095038.077500", "095039.567500", "095041.057500", "095042.547500", "095044.037500", "095045.527500", "095047.017500", "095048.507500", "095049.997500", "095051.487500", "095052.977500", "095054.467500", "095055.957500", "095057.447500", "095058.937500", "095100.427500", "095101.917500", "095103.407500", "095104.897500", "095106.387500", "095107.877500", "095109.367500", "095110.857500", "095112.347500", "095113.837500", "095115.327500", "095116.817500", "095118.307500", "095119.797500", "095121.287500", "095122.777500", "095124.267500", "095125.757500", "095127.247500", "095128.737500", "095130.227500", "095131.717500", "095133.207500", "095134.697500", "095136.187500", "095137.677500", "095139.167500", "095140.657500", "095142.147500", "095143.637500", "095145.127500", "095146.617500", "095148.107500", "095149.597500", "095151.087500", "095152.577500", "095154.067500", "095155.557500", "095157.047500", "095158.537500", "095200.027500", "095201.517500", "095203.007500", "095204.497500", "095205.987500", "095207.477500", "095208.967500", "095210.457500", "095211.947500", "095213.437500", "095214.927500", "095216.417500", "095217.907500", "095219.397500", "095220.887500", "095222.377500", "095223.867500", "095225.357500", "095226.847500", "095228.337500", "095229.827500", "095231.317500", "095232.807500", "095234.297500", "095235.787500", "095237.277500", "095238.767500", "095240.257500", "095241.747500", "095243.237500", "095244.727500", "095246.217500", "095247.707500", "095249.197500", "095250.687500", "095252.177500", "095253.667500", "095255.157500", "095256.647500", "095258.137500", "095259.627500", "095301.117500", "095302.607500", "095304.097500", "095305.587500", "095307.077500", "095308.567500", "095310.057500", "095311.547500", "095313.037500", "095314.527500", "095316.017500", "095317.507500", "095318.997500", "095320.487500", "095321.977500", "095323.467500", "095324.957500", "095326.447500", "095327.937500", "095329.427500", "095330.917500", "095332.407500", "095333.897500", "095335.387500", "095336.877500", "095338.367500", "095339.857500", "095341.347500", "095342.837500", "095344.327500"],
      "ContentTime": ["094252.056000", "094252.060000", "094252.063000", "094252.066000", "094252.068000", "094252.071000", "094252.074000", "094252.077000", "094252.080000", "094252.083000", "094252.091000", "094252.094000", "094252.097000", "094252.099000", "094252.102000", "094252.105000", "094252.108000", "094252.111000", "094252.114000", "094252.117000", "094252.119000", "094252.122000", "094252.125000", "094252.128000", "094252.131000", "094252.134000", "094252.137000", "094252.140000", "094252.143000", "094252.146000", "094252.148000", "094252.151000", "094252.154000", "094312.024000", "094312.027000", "094312.030000", "094312.033000", "094312.036000", "094312.038000", "094312.041000", "094312.044000", "094312.047000", "094312.050000", "094312.053000", "094312.055000", "094312.058000", "094312.061000", "094312.064000", "094312.067000", "094312.070000", "094312.073000", "094312.076000", "094312.078000", "094332.024000", "094332.027000", "094332.030000", "094332.033000", "094332.035000", "094332.038000", "094332.041000", "094332.044000", "094332.047000", "094332.050000", "094332.053000", "094332.056000", "094332.058000", "094332.061000", "094332.064000", "094332.067000", "094332.070000", "094332.073000", "094332.076000", "094332.079000", "094352.024000", "094352.027000", "094352.030000", "094352.038000", "094352.041000", "094352.044000", "094352.047000", "094352.050000", "094352.052000", "094352.055000", "094352.058000", "094352.061000", "094352.064000", "094352.067000", "094352.070000", "094352.073000", "094352.075000", "094352.078000", "094352.081000", "094352.084000", "094432.024000", "094432.027000", "094432.030000", "094432.033000", "094432.036000", "094432.038000", "094432.041000", "094432.044000", "094432.047000", "094432.050000", "094432.053000", "094432.056000", "094432.059000", "094432.062000", "094432.064000", "094432.067000", "094432.070000", "094432.073000", "094432.076000", "094432.079000", "094432.082000", "094432.085000", "094432.088000", "094432.090000", "094432.093000", "094432.096000", "094432.099000", "094432.102000", "094432.105000", "094432.108000", "094432.111000", "094432.113000", "094512.024000", "094512.027000", "094512.030000", "094512.033000", "094512.036000", "094512.039000", "094512.042000", "094512.045000", "094512.048000", "094512.050000", "094512.053000", "094512.056000", "094512.059000", "094512.062000", "094512.065000", "094512.068000", "094512.071000", "094512.074000", "094512.076000", "094512.079000", "094512.082000", "094512.085000", "094512.088000", "094512.091000", "094512.094000", "094512.097000", "094512.100000", "094552.025000", "094552.028000", "094552.031000", "094552.034000", "094552.037000", "094552.040000", "094552.043000", "094552.046000", "094552.049000", "094552.052000", "094552.055000", "094552.057000", "094552.060000", "094552.063000", "094552.066000", "094552.069000", "094552.072000", "094552.075000", "094552.078000", "094552.080000", "094552.083000", "094552.086000", "094552.089000", "094552.092000", "094552.095000", "094552.099000", "094632.024000", "094632.027000", "094632.030000", "094632.033000", "094632.036000", "094632.039000", "094632.041000", "094632.044000", "094632.047000", "094632.050000", "094632.053000", "094632.056000", "094632.059000", "094632.062000", "094632.065000", "094632.067000", "094632.070000", "094632.073000", "094632.076000", "094632.079000", "094632.082000", "094632.085000", "094632.094000", "094632.097000", "094632.100000", "094632.103000", "094632.105000", "094712.025000", "094712.028000", "094712.031000", "094712.034000", "094712.037000", "094712.040000", "094712.043000", "094712.046000", "094712.048000", "094712.051000", "094712.054000", "094712.057000", "094712.060000", "094712.063000", "094712.066000", "094712.069000", "094712.072000", "094712.075000", "094712.077000", "094712.080000", "094712.083000", "094712.086000", "094712.089000", "094712.092000", "094712.095000", "094712.098000", "094712.101000", "094752.024000", "094752.027000", "094752.030000", "094752.033000", "094752.036000", "094752.039000", "094752.041000", "094752.044000", "094752.047000", "094752.050000", "094752.053000", "094752.065000", "094752.068000", "094752.070000", "094752.073000", "094752.076000", "094752.079000", "094752.082000", "094752.085000", "094752.088000", "094752.091000", "094752.093000", "094752.096000", "094752.099000", "094752.102000", "094752.105000", "094752.108000", "094832.024000", "094832.027000", "094832.030000", "094832.033000", "094832.036000", "094832.039000", "094832.042000", "094832.045000", "094832.048000", "094832.050000", "094832.053000", "094832.056000", "094832.059000", "094832.062000", "094832.065000", "094832.068000", "094832.071000", "094832.074000", "094832.076000", "094832.079000", "094832.082000", "094832.085000", "094832.088000", "094832.091000", "094832.094000", "094832.097000", "094832.100000", "094912.025000", "094912.028000", "094912.031000", "094912.034000", "094912.037000", "094912.040000", "094912.043000", "094912.046000", "094912.048000", "094912.051000", "094912.054000", "094912.057000", "094912.060000", "094912.063000", "094912.066000", "094912.069000", "094912.072000", "094912.074000", "094912.077000", "094912.080000", "094912.083000", "094912.086000", "094912.089000", "094912.092000", "094912.095000", "094912.098000", "094912.101000", "094952.024000", "094952.027000", "094952.030000", "094952.033000", "094952.036000", "094952.039000", "094952.042000", "094952.045000", "094952.047000", "094952.050000", "094952.053000", "094952.056000", "094952.059000", "094952.062000", "094952.065000", "094952.068000", "094952.071000", "094952.074000", "094952.077000", "094952.079000", "094952.082000", "094952.085000", "094952.088000", "094952.091000", "094952.094000", "094952.097000", "094952.100000", "095032.024000", "095032.027000", "095032.030000", "095032.033000", "095032.036000", "095032.039000", "095032.042000", "095032.045000", "095032.048000", "095032.051000", "095032.053000", "095032.056000", "095032.059000", "095032.062000", "095032.065000", "095032.068000", "095032.071000", "095032.074000", "095032.077000", "095032.080000", "095032.082000", "095032.085000", "095032.088000", "095032.091000", "095032.095000", "095032.098000", "095112.024000", "095112.027000", "095112.030000", "095112.033000", "095112.036000", "095112.039000", "095112.042000", "095112.044000", "095112.047000", "095112.065000", "095112.068000", "095112.071000", "095112.074000", "095112.077000", "095112.080000", "095112.083000", "095112.086000", "095112.088000", "095112.091000", "095112.094000", "095112.097000", "095112.100000", "095112.103000", "095112.106000", "095112.109000", "095112.112000", "095112.115000", "095152.025000", "095152.028000", "095152.031000", "095152.034000", "095152.037000", "095152.040000", "095152.043000", "095152.045000", "095152.048000", "095152.051000", "095152.054000", "095152.057000", "095152.060000", "095152.063000", "095152.066000", "095152.069000", "095152.072000", "095152.074000", "095152.077000", "095152.080000", "095152.083000", "095152.086000", "095152.089000", "095152.092000", "095152.095000", "095152.098000", "095152.101000", "095232.024000", "095232.027000", "095232.030000", "095232.033000", "095232.036000", "095232.039000", "095232.042000", "095232.045000", "095232.047000", "095232.050000", "095232.053000", "095232.056000", "095232.059000", "095232.062000", "095232.065000", "095232.068000", "095232.071000", "095232.074000", "095232.077000", "095232.079000", "095232.082000", "095232.085000", "095232.088000", "095232.091000", "095232.094000", "095232.097000", "095232.100000", "095312.024000", "095312.027000", "095312.030000", "095312.033000", "095312.036000", "095312.039000", "095312.042000", "095312.045000", "095312.047000", "095312.050000", "095312.053000", "095312.056000", "095312.059000", "095312.062000", "095312.065000", "095312.068000", "095312.071000", "095312.074000", "095312.077000", "095312.085000", "095312.088000", "095312.090000", "095312.093000", "095312.096000", "095312.099000", "095312.102000", "095312.105000", "095345.967000", "095345.970000", "095345.973000", "095345.976000", "095345.979000", "095345.982000", "095345.984000", "095345.988000", "095345.990000", "095345.993000", "095345.996000", "095346.001000", "095346.004000", "095346.006000", "095346.009000", "095346.012000", "095346.015000", "095346.018000", "095346.021000", "095346.025000", "095346.027000", "095346.030000", "095346.033000"],
