{
  "AcquisitionMatrixPE": 104,
  "AcquisitionNumber": 1,
  "AcquisitionTime": "10:19:56.445000",
  "BandwidthPerPixelPhaseEncode": 17.17,
  "BaseResolution": 104,
  "BodyPartExamined": "BRAIN",
  "CoilString": "HC1-7;NC1_2",
  "ConsistencyInfo": "N4_VE11C_LATEST_20160120",
  "ConversionSoftware": "dcm2niix",
  "ConversionSoftwareVersion": "v1.0.20190902",
  "DerivedVendorReportedEchoSpacing": 0.000560011,
  "DeviceSerialNumber": "167006",
  "DwellTime": 2.1e-06,
  "EchoTime": 0.037,
  "EchoTrainLength": 104,
  "EffectiveEchoSpacing": 0.000560011,
  "FlipAngle": 52,
  "ImageComments": "Unaliased_MB4_PE3_LB",
  "ImageOrientationPatientDICOM": [0.997844, -0.0647942, 0.0104603, 0.0645277, 0.93937, -0.33678],
  "ImageType": [
    "ORIGINAL",
    "PRIMARY",
    "M",
    "MB",
    "ND",
    "MOSAIC"
],
  "ImagingFrequency": 123.259,
  "InPlanePhaseEncodingDirectionDICOM": "COL",
  "InstitutionAddress": "Chemin_Queen-Mary_4565_Montreal_District_CA_H3W_1W5",
  "InstitutionName": "IUGM",
  "InstitutionalDepartmentName": "Department",
  "MRAcquisitionType": "2D",
  "MagneticFieldStrength": 3,
  "Manufacturer": "Siemens",
  "ManufacturersModelName": "Prisma_fit",
  "Modality": "MR",
  "MultibandAccelerationFactor": 4,
  "PartialFourier": 1,
  "PatientPosition": "HFS",
  "PercentPhaseFOV": 100,
  "PhaseEncodingDirection": "j",
  "PhaseEncodingSteps": 104,
  "PhaseResolution": 1,
  "PixelBandwidth": 2290,
  "ProcedureStepDescription": "video_friends",
  "ProtocolName": "func_task-friends-s04e08b",
  "PulseSequenceDetails": "%CustomerSeq%_cmrr_mbep2d_bold",
  "ReceiveCoilActiveElements": "HC1-7;NC1,2",
  "ReceiveCoilName": "HeadNeck_64",
  "ReconMatrixPE": 104,
  "RepetitionTime": 1.49,
  "SAR": 0.0313734,
  "ScanOptions": "FS",
  "ScanningSequence": "EP",
  "SequenceName": "epfid2d1_104",
  "SequenceVariant": "SK_SS",
  "SeriesDescription": "func_task-friends-s04e08b",
  "SeriesNumber": 19,
  "ShimSetting": [636, -7257, -8834, 568, 5, -254, -70, -10],
  "SliceThickness": 2,
  "SliceTiming": [0, 0.7825, 0.0975, 0.8825, 0.195, 0.98, 0.2925, 1.0775, 0.3925, 1.175, 0.49, 1.2725, 0.5875, 1.3725, 0.685, 0, 0.7825, 0.0975, 0.8825, 0.195, 0.98, 0.2925, 1.0775, 0.3925, 1.175, 0.49, 1.2725, 0.5875, 1.3725, 0.685, 0, 0.7825, 0.0975, 0.8825, 0.195, 0.98, 0.2925, 1.0775, 0.3925, 1.175, 0.49, 1.2725, 0.5875, 1.3725, 0.685, 0, 0.7825, 0.0975, 0.8825, 0.195, 0.98, 0.2925, 1.0775, 0.3925, 1.175, 0.49, 1.2725, 0.5875, 1.3725, 0.685],
  "SoftwareVersions": "syngo_MR_E11",
  "SpacingBetweenSlices": 2,
  "StationName": "MRC35049",
  "TaskName": "s04e08b",
  "TotalReadoutTime": 0.0576811,
  "TxRefAmp": 219.344,
  "WipMemBlock": "df5c5dc2-d5a4-4ec2-985c-7a31fa34df6a||Sequence: R016 ve11c/master r/e634e98; Dec 19 2017 11:00:25 by eja",
  "dcmmeta_affine": [
    [-1.9956876039505005, 0.1290554255247116, -0.023990554735064507, 95.87246704101562],
    [0.12958848476409912, 1.8787394762039185, -0.6734572649002075, -79.00823974609375],
    [0.020920654758810997, 0.6735596060752869, 1.8830506801605225, -64.19989776611328],
    [0.0, 0.0, 0.0, 1.0]
],
  "dcmmeta_reorient_transform": [
    [0.0, -1.0, 0.0, 103.0],
    [1.0, 0.0, 0.0, 0.0],
    [0.0, 0.0, 1.0, 0.0],
    [0.0, 0.0, 0.0, 1.0]
],
  "dcmmeta_shape": [104, 104, 60, 503],
  "dcmmeta_slice_dim": 2,
  "dcmmeta_version": 0.6,
  "global": {
    "const": {
      "AcquisitionMatrix": [104, 0, 0, 104],
      "AngioFlag": "N",
      "BitsAllocated": 16,
      "BitsStored": 16,
      "BodyPartExamined": "BRAIN",
      "Columns": 832,
      "EchoNumbers": 1,
      "EchoTime": 37.0,
      "EchoTrainLength": 104,
      "FlipAngle": 52.0,
      "HighBit": 15,
      "ImageOrientationPatient": [0.99784381932278, -0.0647942419287, 0.01046032753912, 0.06452771151684, 0.93936975121448, -0.3367798167195],
      "ImagePositionPatient": [-882.57165233864, -751.19290145406, 242.73733411736],
      "ImageType": [
        "ORIGINAL",
        "PRIMARY",
        "M",
        "MB",
        "ND",
        "MOSAIC"
],
      "ImagedNucleus": "1H",
      "ImagingFrequency": 123.259075,
      "InPlanePhaseEncodingDirection": "COL",
      "MRAcquisitionType": "2D",
      "MagneticFieldStrength": 3.0,
      "Manufacturer": "SIEMENS",
      "ManufacturerModelName": "Prisma_fit",
      "Modality": "MR",
      "NumberOfAverages": 1.0,
      "NumberOfPhaseEncodingSteps": 104,
      "PercentPhaseFieldOfView": 100.0,
      "PercentSampling": 100.0,
      "PerformedProcedureStepStartTime": "085734.843000",
      "PhotometricInterpretation": "MONOCHROME2",
      "PixelBandwidth": 2290.0,
      "PixelRepresentation": 0,
      "PixelSpacing": [2.0, 2.0],
      "ProtocolName": "func_task-friends-s04e08b",
      "RepetitionTime": 1490.0,
      "Rows": 832,
      "SAR": 0.03137342477246,
      "SamplesPerPixel": 1,
      "ScanOptions": "FS",
      "ScanningSequence": "EP",
      "SequenceName": "epfid2d1_104",
      "SequenceVariant": [
        "SK",
        "SS"
],
      "SeriesDescription": "func_task-friends-s04e08b",
      "SeriesNumber": 19,
      "SeriesTime": "102112.055000",
      "SliceLocation": -34.991508518395,
      "SliceThickness": 2.0,
      "SmallestImagePixelValue": 0,
      "SoftwareVersions": "syngo MR E11",
      "SpacingBetweenSlices": 2.0000000141053,
      "SpecificCharacterSet": "ISO_IR 100",
      "StudyID": "1",
      "StudyTime": "085734.721000",
      "TransmitCoilName": "Body",
      "VariableFlipAngleFlag": "N",
      "WindowCenterWidthExplanation": "Algo1",
      "dBdt": 0.0},
    "slices": {}
  },
  "time": {
    "samples": {
      "AcquisitionNumber": [1, 2, 3, 4, 5, 6, 7, 8, 9, 10, 11, 12, 13, 14, 15, 16, 17, 18, 19, 20, 21, 22, 23, 24, 25, 26, 27, 28, 29, 30, 31, 32, 33, 34, 35, 36, 37, 38, 39, 40, 41, 42, 43, 44, 45, 46, 47, 48, 49, 50, 51, 52, 53, 54, 55, 56, 57, 58, 59, 60, 61, 62, 63, 64, 65, 66, 67, 68, 69, 70, 71, 72, 73, 74, 75, 76, 77, 78, 79, 80, 81, 82, 83, 84, 85, 86, 87, 88, 89, 90, 91, 92, 93, 94, 95, 96, 97, 98, 99, 100, 101, 102, 103, 104, 105, 106, 107, 108, 109, 110, 111, 112, 113, 114, 115, 116, 117, 118, 119, 120, 121, 122, 123, 124, 125, 126, 127, 128, 129, 130, 131, 132, 133, 134, 135, 136, 137, 138, 139, 140, 141, 142, 143, 144, 145, 146, 147, 148, 149, 150, 151, 152, 153, 154, 155, 156, 157, 158, 159, 160, 161, 162, 163, 164, 165, 166, 167, 168, 169, 170, 171, 172, 173, 174, 175, 176, 177, 178, 179, 180, 181, 182, 183, 184, 185, 186, 187, 188, 189, 190, 191, 192, 193, 194, 195, 196, 197, 198, 199, 200, 201, 202, 203, 204, 205, 206, 207, 208, 209, 210, 211, 212, 213, 214, 215, 216, 217, 218, 219, 220, 221, 222, 223, 224, 225, 226, 227, 228, 229, 230, 231, 232, 233, 234, 235, 236, 237, 238, 239, 240, 241, 242, 243, 244, 245, 246, 247, 248, 249, 250, 251, 252, 253, 254, 255, 256, 257, 258, 259, 260, 261, 262, 263, 264, 265, 266, 267, 268, 269, 270, 271, 272, 273, 274, 275, 276, 277, 278, 279, 280, 281, 282, 283, 284, 285, 286, 287, 288, 289, 290, 291, 292, 293, 294, 295, 296, 297, 298, 299, 300, 301, 302, 303, 304, 305, 306, 307, 308, 309, 310, 311, 312, 313, 314, 315, 316, 317, 318, 319, 320, 321, 322, 323, 324, 325, 326, 327, 328, 329, 330, 331, 332, 333, 334, 335, 336, 337, 338, 339, 340, 341, 342, 343, 344, 345, 346, 347, 348, 349, 350, 351, 352, 353, 354, 355, 356, 357, 358, 359, 360, 361, 362, 363, 364, 365, 366, 367, 368, 369, 370, 371, 372, 373, 374, 375, 376, 377, 378, 379, 380, 381, 382, 383, 384, 385, 386, 387, 388, 389, 390, 391, 392, 393, 394, 395, 396, 397, 398, 399, 400, 401, 402, 403, 404, 405, 406, 407, 408, 409, 410, 411, 412, 413, 414, 415, 416, 417, 418, 419, 420, 421, 422, 423, 424, 425, 426, 427, 428, 429, 430, 431, 432, 433, 434, 435, 436, 437, 438, 439, 440, 441, 442, 443, 444, 445, 446, 447, 448, 449, 450, 451, 452, 453, 454, 455, 456, 457, 458, 459, 460, 461, 462, 463, 464, 465, 466, 467, 468, 469, 470, 471, 472, 473, 474, 475, 476, 477, 478, 479, 480, 481, 482, 483, 484, 485, 486, 487, 488, 489, 490, 491, 492, 493, 494, 495, 496, 497, 498, 499, 500, 501, 502, 503],
      "AcquisitionTime": ["101956.445000", "101957.935000", "101959.425000", "102000.915000", "102002.405000", "102003.895000", "102005.385000", "102006.875000", "102008.365000", "102009.855000", "102011.345000", "102012.835000", "102014.325000", "102015.815000", "102017.305000", "102018.795000", "102020.285000", "102021.775000", "102023.265000", "102024.755000", "102026.245000", "102027.735000", "102029.225000", "102030.715000", "102032.205000", "102033.695000", "102035.185000", "102036.675000", "102038.165000", "102039.655000", "102041.145000", "102042.635000", "102044.125000", "102045.615000", "102047.105000", "102048.595000", "102050.085000", "102051.575000", "102053.065000", "102054.555000", "102056.045000", "102057.535000", "102059.025000", "102100.515000", "102102.005000", "102103.495000", "102104.985000", "102106.475000", "102107.965000", "102109.455000", "102110.945000", "102112.435000", "102113.925000", "102115.415000", "102116.905000", "102118.395000", "102119.885000", "102121.375000", "102122.865000", "102124.355000", "102125.845000", "102127.335000", "102128.825000", "102130.315000", "102131.805000", "102133.295000", "102134.785000", "102136.275000", "102137.765000", "102139.255000", "102140.745000", "102142.235000", "102143.725000", "102145.215000", "102146.705000", "102148.195000", "102149.685000", "102151.175000", "102152.665000", "102154.155000", "102155.645000", "102157.135000", "102158.625000", "102200.115000", "102201.605000", "102203.095000", "102204.585000", "102206.075000", "102207.565000", "102209.055000", "102210.545000", "102212.035000", "102213.525000", "102215.015000", "102216.505000", "102217.995000", "102219.485000", "102220.975000", "102222.465000", "102223.955000", "102225.445000", "102226.935000", "102228.425000", "102229.915000", "102231.405000", "102232.895000", "102234.385000", "102235.875000", "102237.365000", "102238.855000", "102240.345000", "102241.835000", "102243.325000", "102244.815000", "102246.305000", "102247.795000", "102249.285000", "102250.775000", "102252.265000", "102253.755000", "102255.245000", "102256.735000", "102258.225000", "102259.715000", "102301.205000", "102302.695000", "102304.185000", "102305.675000", "102307.165000", "102308.655000", "102310.145000", "102311.635000", "102313.125000", "102314.615000", "102316.105000", "102317.595000", "102319.085000", "102320.575000", "102322.065000", "102323.555000", "102325.045000", "102326.535000", "102328.025000", "102329.515000", "102331.005000", "102332.495000", "102333.985000", "102335.475000", "102336.965000", "102338.455000", "102339.945000", "102341.435000", "102342.925000", "102344.415000", "102345.905000", "102347.395000", "102348.885000", "102350.375000", "102351.865000", "102353.355000", "102354.845000", "102356.335000", "102357.825000", "102359.315000", "102400.805000", "102402.295000", "102403.785000", "102405.275000", "102406.765000", "102408.255000", "102409.745000", "102411.235000", "102412.725000", "102414.215000", "102415.705000", "102417.195000", "102418.685000", "102420.175000", "102421.665000", "102423.155000", "102424.645000", "102426.135000", "102427.625000", "102429.115000", "102430.605000", "102432.095000", "102433.585000", "102435.075000", "102436.565000", "102438.055000", "102439.545000", "102441.035000", "102442.525000", "102444.015000", "102445.505000", "102446.995000", "102448.485000", "102449.975000", "102451.465000", "102452.955000", "102454.445000", "102455.935000", "102457.425000", "102458.915000", "102500.405000", "102501.895000", "102503.385000", "102504.875000", "102506.365000", "102507.855000", "102509.345000", "102510.835000", "102512.325000", "102513.815000", "102515.305000", "102516.795000", "102518.285000", "102519.775000", "102521.265000", "102522.755000", "102524.245000", "102525.735000", "102527.225000", "102528.715000", "102530.205000", "102531.695000", "102533.185000", "102534.675000", "102536.165000", "102537.655000", "102539.145000", "102540.635000", "102542.125000", "102543.615000", "102545.105000", "102546.595000", "102548.085000", "102549.575000", "102551.065000", "102552.555000", "102554.045000", "102555.535000", "102557.025000", "102558.515000", "102600.005000", "102601.495000", "102602.985000", "102604.475000", "102605.965000", "102607.455000", "102608.945000", "102610.435000", "102611.925000", "102613.415000", "102614.905000", "102616.395000", "102617.885000", "102619.375000", "102620.865000", "102622.355000", "102623.845000", "102625.335000", "102626.825000", "102628.315000", "102629.805000", "102631.295000", "102632.785000", "102634.275000", "102635.765000", "102637.255000", "102638.745000", "102640.235000", "102641.725000", "102643.215000", "102644.705000", "102646.195000", "102647.685000", "102649.175000", "102650.665000", "102652.155000", "102653.645000", "102655.135000", "102656.625000", "102658.115000", "102659.605000", "102701.095000", "102702.585000", "102704.075000", "102705.565000", "102707.055000", "102708.545000", "102710.035000", "102711.525000", "102713.015000", "102714.505000", "102715.995000", "102717.485000", "102718.975000", "102720.465000", "102721.955000", "102723.445000", "102724.935000", "102726.425000", "102727.915000", "102729.405000", "102730.895000", "102732.385000", "102733.875000", "102735.365000", "102736.855000", "102738.345000", "102739.835000", "102741.325000", "102742.815000", "102744.305000", "102745.795000", "102747.285000", "102748.775000", "102750.265000", "102751.755000", "102753.245000", "102754.735000", "102756.225000", "102757.715000", "102759.205000", "102800.695000", "102802.185000", "102803.675000", "102805.165000", "102806.655000", "102808.145000", "102809.635000", "102811.125000", "102812.615000", "102814.105000", "102815.595000", "102817.085000", "102818.575000", "102820.065000", "102821.555000", "102823.045000", "102824.535000", "102826.025000", "102827.515000", "102829.005000", "102830.495000", "102831.985000", "102833.475000", "102834.965000", "102836.455000", "102837.945000", "102839.435000", "102840.925000", "102842.415000", "102843.905000", "102845.395000", "102846.885000", "102848.375000", "102849.865000", "102851.355000", "102852.845000", "102854.335000", "102855.825000", "102857.315000", "102858.805000", "102900.295000", "102901.785000", "102903.275000", "102904.765000", "102906.255000", "102907.745000", "102909.235000", "102910.725000", "102912.215000", "102913.705000", "102915.195000", "102916.685000", "102918.175000", "102919.665000", "102921.155000", "102922.645000", "102924.135000", "102925.625000", "102927.115000", "102928.605000", "102930.095000", "102931.585000", "102933.075000", "102934.565000", "102936.055000", "102937.545000", "102939.035000", "102940.525000", "102942.015000", "102943.505000", "102944.995000", "102946.485000", "102947.975000", "102949.465000", "102950.955000", "102952.445000", "102953.935000", "102955.425000", "102956.915000", "102958.405000", "102959.895000", "103001.385000", "103002.875000", "103004.365000", "103005.855000", "103007.345000", "103008.835000", "103010.325000", "103011.815000", "103013.305000", "103014.795000", "103016.285000", "103017.775000", "103019.265000", "103020.755000", "103022.245000", "103023.735000", "103025.225000", "103026.715000", "103028.205000", "103029.695000", "103031.185000", "103032.675000", "103034.165000", "103035.655000", "103037.145000", "103038.635000", "103040.125000", "103041.615000", "103043.105000", "103044.595000", "103046.085000", "103047.575000", "103049.065000", "103050.555000", "103052.045000", "103053.535000", "103055.025000", "103056.515000", "103058.005000", "103059.495000", "103100.985000", "103102.475000", "103103.965000", "103105.455000", "103106.945000", "103108.435000", "103109.925000", "103111.415000", "103112.905000", "103114.395000", "103115.885000", "103117.375000", "103118.865000", "103120.355000", "103121.845000", "103123.335000", "103124.825000", "103126.315000", "103127.805000", "103129.295000", "103130.785000", "103132.275000", "103133.765000", "103135.255000", "103136.745000", "103138.235000", "103139.725000", "103141.215000", "103142.705000", "103144.195000", "103145.685000", "103147.175000", "103148.665000", "103150.155000", "103151.645000", "103153.135000", "103154.625000", "103156.115000", "103157.605000", "103159.095000", "103200.585000", "103202.075000", "103203.565000", "103205.055000", "103206.545000", "103208.035000", "103209.525000", "103211.015000", "103212.505000", "103213.995000", "103215.485000", "103216.975000", "103218.465000", "103219.955000", "103221.445000", "103222.935000", "103224.425000"],
      "ContentTime": ["102112.057000", "102112.061000", "102112.064000", "102112.067000", "102112.070000", "102112.073000", "102112.075000", "102112.078000", "102112.081000", "102112.084000", "102112.087000", "102112.090000", "102112.093000", "102112.099000", "102112.102000", "102112.104000", "102112.107000", "102112.110000", "102112.113000", "102112.116000", "102112.119000", "102112.122000", "102132.024000", "102132.027000", "102132.030000", "102132.043000", "102132.046000", "102132.049000", "102132.052000", "102132.055000", "102132.057000", "102132.060000", "102132.063000", "102132.066000", "102132.069000", "102132.072000", "102132.074000", "102132.077000", "102132.080000", "102132.083000", "102132.086000", "102132.089000", "102152.025000", "102152.028000", "102152.031000", "102152.034000", "102152.036000", "102152.039000", "102152.042000", "102152.045000", "102152.048000", "102152.051000", "102152.054000", "102152.057000", "102152.060000", "102152.062000", "102152.065000", "102152.068000", "102152.071000", "102152.074000", "102152.077000", "102152.080000", "102212.024000", "102212.027000", "102212.030000", "102212.033000", "102212.036000", "102212.038000", "102212.041000", "102212.044000", "102212.047000", "102212.050000", "102212.053000", "102212.056000", "102212.059000", "102212.062000", "102212.064000", "102212.067000", "102212.070000", "102212.073000", "102212.076000", "102212.079000", "102232.024000", "102232.027000", "102232.030000", "102232.033000", "102232.036000", "102232.038000", "102232.041000", "102232.044000", "102232.047000", "102232.050000", "102232.053000", "102232.056000", "102232.059000", "102232.061000", "102232.064000", "102232.067000", "102232.070000", "102232.073000", "102232.076000", "102232.079000", "102312.024000", "102312.027000", "102312.030000", "102312.033000", "102312.036000", "102312.039000", "102312.042000", "102312.044000", "102312.047000", "102312.050000", "102312.053000", "102312.056000", "102312.059000", "102312.062000", "102312.065000", "102312.068000", "102312.071000", "102312.074000", "102312.076000", "102312.079000", "102312.083000", "102312.086000", "102312.096000", "102312.100000", "102312.103000", "102312.106000", "102312.109000", "102312.112000", "102352.024000", "102352.027000", "102352.030000", "102352.033000", "102352.036000", "102352.039000", "102352.041000", "102352.044000", "102352.047000", "102352.050000", "102352.053000", "102352.056000", "102352.059000", "102352.062000", "102352.065000", "102352.067000", "102352.070000", "102352.073000", "102352.076000", "102352.079000", "102352.082000", "102352.085000", "102352.088000", "102352.091000", "102352.093000", "102352.096000", "102352.099000", "102432.024000", "102432.027000", "102432.030000", "102432.033000", "102432.036000", "102432.039000", "102432.047000", "102432.050000", "102432.053000", "102432.056000", "102432.058000", "102432.061000", "102432.064000", "102432.067000", "102432.070000", "102432.073000", "102432.076000", "102432.079000", "102432.082000", "102432.085000", "102432.087000", "102432.090000", "102432.093000", "102432.096000", "102432.099000", "102432.102000", "102432.105000", "102512.024000", "102512.027000", "102512.030000", "102512.033000", "102512.036000", "102512.039000", "102512.042000", "102512.045000", "102512.048000", "102512.050000", "102512.053000", "102512.056000", "102512.059000", "102512.062000", "102512.065000", "102512.068000", "102512.071000", "102512.074000", "102512.076000", "102512.079000", "102512.082000", "102512.085000", "102512.088000", "102512.091000", "102512.094000", "102512.097000", "102512.100000", "102552.024000", "102552.027000", "102552.044000", "102552.047000", "102552.050000", "102552.053000", "102552.056000", "102552.059000", "102552.062000", "102552.065000", "102552.068000", "102552.070000", "102552.073000", "102552.076000", "102552.079000", "102552.082000", "102552.085000", "102552.088000", "102552.091000", "102552.094000", "102552.097000", "102552.099000", "102552.102000", "102552.105000", "102552.108000", "102552.111000", "102552.114000", "102632.025000", "102632.028000", "102632.031000", "102632.034000", "102632.037000", "102632.040000", "102632.043000", "102632.046000", "102632.048000", "102632.051000", "102632.054000", "102632.057000", "102632.060000", "102632.063000", "102632.066000", "102632.069000", "102632.072000", "102632.075000", "102632.077000", "102632.080000", "102632.083000", "102632.086000", "102632.089000", "102632.092000", "102632.095000", "102632.098000", "102632.101000", "102712.024000", "102712.027000", "102712.030000", "102712.033000", "102712.036000", "102712.039000", "102712.042000", "102712.045000", "102712.047000", "102712.050000", "102712.053000", "102712.056000", "102712.059000", "102712.062000", "102712.065000", "102712.068000", "102712.071000", "102712.073000", "102712.076000", "102712.079000", "102712.082000", "102712.085000", "102712.088000", "102712.091000", "102712.094000", "102712.097000", "102712.100000", "102752.024000", "102752.027000", "102752.030000", "102752.033000", "102752.036000", "102752.039000", "102752.042000", "102752.045000", "102752.047000", "102752.050000", "102752.053000", "102752.056000", "102752.059000", "102752.062000", "102752.065000", "102752.068000", "102752.071000", "102752.074000", "102752.076000", "102752.079000", "102752.083000", "102752.086000", "102752.089000", "102752.092000", "102752.095000", "102752.098000", "102832.024000", "102832.027000", "102832.030000", "102832.033000", "102832.036000", "102832.039000", "102832.042000", "102832.045000", "102832.048000", "102832.051000", "102832.053000", "102832.056000", "102832.059000", "102832.062000", "102832.065000", "102832.068000", "102832.071000", "102832.074000", "102832.077000", "102832.080000", "102832.083000", "102832.085000", "102832.088000", "102832.091000", "102832.094000", "102832.097000", "102832.100000", "102912.024000", "102912.027000", "102912.030000", "102912.033000", "102912.036000", "102912.039000", "102912.042000", "102912.045000", "102912.047000", "102912.050000", "102912.053000", "102912.056000", "102912.059000", "102912.062000", "102912.065000", "102912.068000", "102912.071000", "102912.074000", "102912.077000", "102912.080000", "102912.082000", "102912.085000", "102912.088000", "102912.091000", "102912.094000", "102912.097000", "102912.100000", "102952.024000", "102952.027000", "102952.030000", "102952.033000", "102952.036000", "102952.039000", "102952.041000", "102952.044000", "102952.047000", "102952.050000", "102952.053000", "102952.056000", "102952.059000", "102952.062000", "102952.065000", "102952.068000", "102952.071000", "102952.074000", "102952.076000", "102952.079000", "102952.082000", "102952.085000", "102952.088000", "102952.091000", "102952.094000", "102952.097000", "102952.099000", "103032.024000", "103032.027000", "103032.030000", "103032.045000", "103032.048000", "103032.051000", "103032.054000", "103032.057000", "103032.059000", "103032.062000", "103032.065000", "103032.068000", "103032.071000", "103032.074000", "103032.077000", "103032.080000", "103032.083000", "103032.086000", "103032.089000", "103032.091000", "103032.094000", "103032.097000", "103032.100000", "103032.103000", "103032.106000", "103032.109000", "103032.112000", "103112.025000", "103112.028000", "103112.031000", "103112.034000", "103112.037000", "103112.040000", "103112.043000", "103112.046000", "103112.049000", "103112.051000", "103112.054000", "103112.057000", "103112.060000", "103112.063000", "103112.066000", "103112.069000", "103112.072000", "103112.075000", "103112.078000", "103112.081000", "103112.084000", "103112.086000", "103112.089000", "103112.092000", "103112.095000", "103112.098000", "103112.101000", "103152.024000", "103152.027000", "103152.030000", "103152.033000", "103152.036000", "103152.039000", "103152.042000", "103152.045000", "103152.048000", "103152.051000", "103152.053000", "103152.056000", "103152.059000", "103152.062000", "103152.065000", "103152.068000", "103152.071000", "103152.074000", "103152.077000", "103152.080000", "103152.083000", "103152.086000", "103152.089000", "103152.092000", "103152.095000", "103152.098000", "103226.420000", "103226.423000", "103226.426000", "103226.429000", "103226.432000", "103226.435000", "103226.438000", "103226.441000", "103226.444000", "103226.447000", "103226.450000", "103226.453000", "103226.456000", "103226.459000", "103226.462000", "103226.465000", "103226.468000", "103226.471000", "103226.474000", "103226.477000", "103226.480000", "103226.483000", "103226.485000", "103226.488000"],
