{
  "AcquisitionMatrixPE": 104,
  "AcquisitionNumber": 1,
  "AcquisitionTime": "09:39:32.380000",
  "BandwidthPerPixelPhaseEncode": 17.17,
  "BaseResolution": 104,
  "BodyPartExamined": "BRAIN",
  "CoilCombinationMethod": "Sum of Squares",
  "ConsistencyInfo": "N4_VE11C_LATEST_20160120",
  "ConversionSoftware": "dcm2niix",
  "ConversionSoftwareVersion": "v1.0.20230411",
  "DerivedVendorReportedEchoSpacing": 0.000560011,
  "DeviceSerialNumber": "167006",
  "DwellTime": 2.1e-06,
  "EchoTime": 0.037,
  "EchoTrainLength": 104,
  "EffectiveEchoSpacing": 0.000560011,
  "FlipAngle": 52,
  "HeudiconvVersion": "0.5.3.post861+ge7d3c7f",
  "ImageComments": "Unaliased MB4/PE3/LB",
  "ImageOrientationPatientDICOM": [0.997604, -0.0691681, -0.00167121, 0.0648618, 0.943357, -0.325379],
  "ImageOrientationText": "Tra>Cor(-18.9)>Sag(-1.4)",
  "ImageType": [
    "ORIGINAL",
    "PRIMARY",
    "M",
    "MB",
    "ND",
    "MOSAIC"
],
  "ImagingFrequency": 123.249784,
  "InPlanePhaseEncodingDirectionDICOM": "COL",
  "InstitutionAddress": "Chemin Queen-Mary 4565,Montreal,District,CA,H3W 1W5",
  "InstitutionName": "IUGM",
  "InstitutionalDepartmentName": "Department",
  "MRAcquisitionType": "2D",
  "MagneticFieldStrength": 3,
  "Manufacturer": "Siemens",
  "ManufacturersModelName": "Prisma_fit",
  "MatrixCoilMode": "SENSE",
  "Modality": "MR",
  "MultibandAccelerationFactor": 4,
  "NonlinearGradientCorrection": false,
  "PartialFourier": 1,
  "PatientPosition": "HFS",
  "PercentPhaseFOV": 100,
  "PercentSampling": 100,
  "PhaseEncodingDirection": "j",
  "PhaseEncodingSteps": 104,
  "PhaseResolution": 1,
  "PixelBandwidth": 2290,
  "ProcedureStepDescription": "video^friends",
  "ProtocolName": "func_task-friends-s07e03b",
  "PulseSequenceDetails": "%CustomerSeq%\\cmrr_mbep2d_bold",
  "ReceiveCoilActiveElements": "HC1-7;NC1,2",
  "ReceiveCoilName": "HeadNeck_64",
  "ReconMatrixPE": 104,
  "RepetitionTime": 1.49,
  "SAR": 0.0411937,
  "ScanOptions": "FS",
  "ScanningSequence": "EP",
  "SequenceName": "epfid2d1_104",
  "SequenceVariant": "SK\\SS",
  "SeriesDescription": "func_task-friends-s07e03b",
  "SeriesNumber": 12,
  "ShimSetting": [604, -7280, -8828, 504, 25, -252, -134, 34],
  "SliceThickness": 2,
  "SliceTiming": [0, 0.785, 0.0975, 0.8825, 0.195, 0.98, 0.295, 1.0775, 0.3925, 1.175, 0.49, 1.275, 0.5875, 1.3725, 0.685, 0, 0.785, 0.0975, 0.8825, 0.195, 0.98, 0.295, 1.0775, 0.3925, 1.175, 0.49, 1.275, 0.5875, 1.3725, 0.685, 0, 0.785, 0.0975, 0.8825, 0.195, 0.98, 0.295, 1.0775, 0.3925, 1.175, 0.49, 1.275, 0.5875, 1.3725, 0.685, 0, 0.785, 0.0975, 0.8825, 0.195, 0.98, 0.295, 1.0775, 0.3925, 1.175, 0.49, 1.275, 0.5875, 1.3725, 0.685],
  "SoftwareVersions": "syngo MR E11",
  "SpacingBetweenSlices": 2,
  "StationName": "MRC35049",
  "TaskName": "s07e03b",
  "TotalReadoutTime": 0.0576811,
  "TxRefAmp": 231.257,
  "WipMemBlock": "8ab30ae9-a7fd-4ffe-b8e0-66afbe2994fb||Sequence: R017 ve11c/master r/75a17815+; Jun 28 2022 16:32:11 by eja",
  "dcmmeta_affine": [
    [-1.9952071905136108, 0.12972362339496613, -0.0481647253036499, 96.58352661132812],
    [0.13833613693714142, 1.8867131471633911, -0.6489812135696411, -81.72196960449219],
    [-0.0033424117136746645, 0.6507574319839478, 1.8911646604537964, -67.85475158691406],
    [0.0, 0.0, 0.0, 1.0]
],
  "dcmmeta_reorient_transform": [
    [0.0, -1.0, 0.0, 103.0],
    [1.0, 0.0, 0.0, 0.0],
    [0.0, 0.0, 1.0, 0.0],
    [0.0, 0.0, 0.0, 1.0]
],
  "dcmmeta_shape": [104, 104, 60, 421],
  "dcmmeta_slice_dim": 2,
  "dcmmeta_version": 0.6,
  "global": {
    "const": {
      "AcquisitionMatrix": [104, 0, 0, 104],
      "AngioFlag": "N",
      "BitsAllocated": 16,
      "BitsStored": 16,
      "BodyPartExamined": "BRAIN",
      "Columns": 832,
      "EchoNumbers": 1,
      "EchoTime": 37.0,
      "EchoTrainLength": 104,
      "FlipAngle": 52.0,
      "HighBit": 15,
      "ImageOrientationPatient": [0.99760362131282, -0.0691680693285, -0.0016712058237, 0.06486181169238, 0.94335657602958, -0.3253787267873],
      "ImagePositionPatient": [-883.41989181253, -749.01871574909, 237.26562007375],
      "ImageType": [
        "ORIGINAL",
        "PRIMARY",
        "M",
        "MB",
        "ND",
        "MOSAIC"
],
      "ImagedNucleus": "1H",
      "ImagingFrequency": 123.249784,
      "InPlanePhaseEncodingDirection": "COL",
      "MRAcquisitionType": "2D",
      "MagneticFieldStrength": 3.0,
      "Manufacturer": "SIEMENS",
      "ManufacturerModelName": "Prisma_fit",
      "Modality": "MR",
      "NumberOfAverages": 1.0,
      "NumberOfPhaseEncodingSteps": 104,
      "PercentPhaseFieldOfView": 100.0,
      "PercentSampling": 100.0,
      "PerformedProcedureStepStartTime": "090458.514000",
      "PhotometricInterpretation": "MONOCHROME2",
      "PixelBandwidth": 2290.0,
      "PixelRepresentation": 0,
      "PixelSpacing": [2.0, 2.0],
      "ProtocolName": "func_task-friends-s07e03b",
      "RepetitionTime": 1490.0,
      "Rows": 832,
      "SAR": 0.04119370768345,
      "SamplesPerPixel": 1,
      "ScanOptions": "FS",
      "ScanningSequence": "EP",
      "SequenceName": "epfid2d1_104",
      "SequenceVariant": [
        "SK",
        "SS"
],
      "SeriesDescription": "func_task-friends-s07e03b",
      "SeriesNumber": 12,
      "SeriesTime": "094045.600000",
      "SliceLocation": -39.970197173284,
      "SliceThickness": 2.0,
      "SmallestImagePixelValue": 0,
      "SoftwareVersions": "syngo MR E11",
      "SpacingBetweenSlices": 2.0000000817599,
      "SpecificCharacterSet": "ISO_IR 100",
      "StudyID": "1",
      "StudyTime": "090458.333000",
      "TransmitCoilName": "Body",
      "VariableFlipAngleFlag": "N",
      "WindowCenterWidthExplanation": "Algo1",
      "dBdt": 0.0},
    "slices": {}
  },
  "time": {
    "samples": {
      "AcquisitionNumber": [1, 2, 3, 4, 5, 6, 7, 8, 9, 10, 11, 12, 13, 14, 15, 16, 17, 18, 19, 20, 21, 22, 23, 24, 25, 26, 27, 28, 29, 30, 31, 32, 33, 34, 35, 36, 37, 38, 39, 40, 41, 42, 43, 44, 45, 46, 47, 48, 49, 50, 51, 52, 53, 54, 55, 56, 57, 58, 59, 60, 61, 62, 63, 64, 65, 66, 67, 68, 69, 70, 71, 72, 73, 74, 75, 76, 77, 78, 79, 80, 81, 82, 83, 84, 85, 86, 87, 88, 89, 90, 91, 92, 93, 94, 95, 96, 97, 98, 99, 100, 101, 102, 103, 104, 105, 106, 107, 108, 109, 110, 111, 112, 113, 114, 115, 116, 117, 118, 119, 120, 121, 122, 123, 124, 125, 126, 127, 128, 129, 130, 131, 132, 133, 134, 135, 136, 137, 138, 139, 140, 141, 142, 143, 144, 145, 146, 147, 148, 149, 150, 151, 152, 153, 154, 155, 156, 157, 158, 159, 160, 161, 162, 163, 164, 165, 166, 167, 168, 169, 170, 171, 172, 173, 174, 175, 176, 177, 178, 179, 180, 181, 182, 183, 184, 185, 186, 187, 188, 189, 190, 191, 192, 193, 194, 195, 196, 197, 198, 199, 200, 201, 202, 203, 204, 205, 206, 207, 208, 209, 210, 211, 212, 213, 214, 215, 216, 217, 218, 219, 220, 221, 222, 223, 224, 225, 226, 227, 228, 229, 230, 231, 232, 233, 234, 235, 236, 237, 238, 239, 240, 241, 242, 243, 244, 245, 246, 247, 248, 249, 250, 251, 252, 253, 254, 255, 256, 257, 258, 259, 260, 261, 262, 263, 264, 265, 266, 267, 268, 269, 270, 271, 272, 273, 274, 275, 276, 277, 278, 279, 280, 281, 282, 283, 284, 285, 286, 287, 288, 289, 290, 291, 292, 293, 294, 295, 296, 297, 298, 299, 300, 301, 302, 303, 304, 305, 306, 307, 308, 309, 310, 311, 312, 313, 314, 315, 316, 317, 318, 319, 320, 321, 322, 323, 324, 325, 326, 327, 328, 329, 330, 331, 332, 333, 334, 335, 336, 337, 338, 339, 340, 341, 342, 343, 344, 345, 346, 347, 348, 349, 350, 351, 352, 353, 354, 355, 356, 357, 358, 359, 360, 361, 362, 363, 364, 365, 366, 367, 368, 369, 370, 371, 372, 373, 374, 375, 376, 377, 378, 379, 380, 381, 382, 383, 384, 385, 386, 387, 388, 389, 390, 391, 392, 393, 394, 395, 396, 397, 398, 399, 400, 401, 402, 403, 404, 405, 406, 407, 408, 409, 410, 411, 412, 413, 414, 415, 416, 417, 418, 419, 420, 421],
      "AcquisitionTime": ["093932.380000", "093933.870000", "093935.360000", "093936.850000", "093938.340000", "093939.830000", "093941.320000", "093942.810000", "093944.300000", "093945.790000", "093947.280000", "093948.770000", "093950.260000", "093951.750000", "093953.240000", "093954.730000", "093956.220000", "093957.710000", "093959.200000", "094000.690000", "094002.180000", "094003.670000", "094005.160000", "094006.650000", "094008.140000", "094009.630000", "094011.120000", "094012.610000", "094014.100000", "094015.590000", "094017.080000", "094018.570000", "094020.060000", "094021.550000", "094023.040000", "094024.530000", "094026.020000", "094027.510000", "094029.000000", "094030.490000", "094031.980000", "094033.470000", "094034.960000", "094036.450000", "094037.940000", "094039.430000", "094040.920000", "094042.410000", "094043.900000", "094045.390000", "094046.880000", "094048.370000", "094049.860000", "094051.350000", "094052.840000", "094054.330000", "094055.820000", "094057.310000", "094058.800000", "094100.290000", "094101.780000", "094103.270000", "094104.760000", "094106.250000", "094107.740000", "094109.230000", "094110.720000", "094112.210000", "094113.700000", "094115.190000", "094116.680000", "094118.170000", "094119.660000", "094121.150000", "094122.640000", "094124.130000", "094125.620000", "094127.110000", "094128.600000", "094130.090000", "094131.580000", "094133.070000", "094134.560000", "094136.050000", "094137.540000", "094139.030000", "094140.520000", "094142.010000", "094143.500000", "094144.990000", "094146.480000", "094147.970000", "094149.460000", "094150.950000", "094152.440000", "094153.930000", "094155.420000", "094156.910000", "094158.400000", "094159.890000", "094201.380000", "094202.870000", "094204.360000", "094205.850000", "094207.340000", "094208.830000", "094210.320000", "094211.810000", "094213.300000", "094214.790000", "094216.280000", "094217.770000", "094219.260000", "094220.750000", "094222.240000", "094223.730000", "094225.220000", "094226.710000", "094228.200000", "094229.690000", "094231.180000", "094232.670000", "094234.160000", "094235.650000", "094237.140000", "094238.630000", "094240.120000", "094241.610000", "094243.100000", "094244.590000", "094246.080000", "094247.570000", "094249.060000", "094250.550000", "094252.040000", "094253.530000", "094255.020000", "094256.510000", "094258.000000", "094259.490000", "094300.980000", "094302.470000", "094303.960000", "094305.450000", "094306.940000", "094308.430000", "094309.920000", "094311.410000", "094312.900000", "094314.390000", "094315.880000", "094317.370000", "094318.860000", "094320.350000", "094321.840000", "094323.330000", "094324.820000", "094326.310000", "094327.800000", "094329.290000", "094330.780000", "094332.270000", "094333.760000", "094335.250000", "094336.740000", "094338.230000", "094339.720000", "094341.210000", "094342.700000", "094344.190000", "094345.680000", "094347.170000", "094348.660000", "094350.150000", "094351.640000", "094353.130000", "094354.620000", "094356.110000", "094357.600000", "094359.090000", "094400.580000", "094402.070000", "094403.560000", "094405.050000", "094406.540000", "094408.030000", "094409.520000", "094411.010000", "094412.500000", "094413.990000", "094415.480000", "094416.970000", "094418.460000", "094419.950000", "094421.440000", "094422.930000", "094424.420000", "094425.910000", "094427.400000", "094428.890000", "094430.380000", "094431.870000", "094433.360000", "094434.850000", "094436.340000", "094437.830000", "094439.320000", "094440.810000", "094442.300000", "094443.790000", "094445.280000", "094446.770000", "094448.260000", "094449.750000", "094451.240000", "094452.730000", "094454.220000", "094455.710000", "094457.200000", "094458.690000", "094500.180000", "094501.670000", "094503.160000", "094504.650000", "094506.140000", "094507.630000", "094509.120000", "094510.610000", "094512.100000", "094513.590000", "094515.080000", "094516.570000", "094518.060000", "094519.550000", "094521.040000", "094522.530000", "094524.020000", "094525.510000", "094527.000000", "094528.490000", "094529.980000", "094531.470000", "094532.960000", "094534.450000", "094535.940000", "094537.430000", "094538.920000", "094540.410000", "094541.900000", "094543.390000", "094544.880000", "094546.370000", "094547.860000", "094549.350000", "094550.840000", "094552.330000", "094553.820000", "094555.310000", "094556.800000", "094558.290000", "094559.780000", "094601.270000", "094602.760000", "094604.250000", "094605.740000", "094607.230000", "094608.720000", "094610.210000", "094611.700000", "094613.190000", "094614.680000", "094616.170000", "094617.660000", "094619.150000", "094620.640000", "094622.130000", "094623.620000", "094625.110000", "094626.600000", "094628.090000", "094629.580000", "094631.070000", "094632.560000", "094634.050000", "094635.540000", "094637.030000", "094638.520000", "094640.010000", "094641.500000", "094642.990000", "094644.480000", "094645.970000", "094647.460000", "094648.950000", "094650.440000", "094651.930000", "094653.420000", "094654.910000", "094656.400000", "094657.890000", "094659.380000", "094700.870000", "094702.360000", "094703.850000", "094705.340000", "094706.830000", "094708.320000", "094709.810000", "094711.300000", "094712.790000", "094714.280000", "094715.770000", "094717.260000", "094718.750000", "094720.240000", "094721.730000", "094723.220000", "094724.710000", "094726.200000", "094727.690000", "094729.180000", "094730.670000", "094732.160000", "094733.650000", "094735.140000", "094736.630000", "094738.120000", "094739.610000", "094741.100000", "094742.590000", "094744.080000", "094745.570000", "094747.060000", "094748.550000", "094750.040000", "094751.530000", "094753.020000", "094754.510000", "094756.000000", "094757.490000", "094758.980000", "094800.470000", "094801.960000", "094803.450000", "094804.940000", "094806.430000", "094807.920000", "094809.410000", "094810.900000", "094812.390000", "094813.880000", "094815.370000", "094816.860000", "094818.350000", "094819.840000", "094821.330000", "094822.820000", "094824.310000", "094825.800000", "094827.290000", "094828.780000", "094830.270000", "094831.760000", "094833.250000", "094834.740000", "094836.230000", "094837.720000", "094839.210000", "094840.700000", "094842.190000", "094843.680000", "094845.170000", "094846.660000", "094848.150000", "094849.640000", "094851.130000", "094852.620000", "094854.110000", "094855.600000", "094857.090000", "094858.580000", "094900.070000", "094901.560000", "094903.050000", "094904.540000", "094906.030000", "094907.520000", "094909.010000", "094910.500000", "094911.990000", "094913.480000", "094914.970000", "094916.460000", "094917.950000", "094919.440000", "094920.930000", "094922.420000", "094923.910000", "094925.400000", "094926.890000", "094928.380000", "094929.870000", "094931.360000", "094932.850000", "094934.340000", "094935.830000", "094937.320000", "094938.810000", "094940.300000", "094941.790000", "094943.280000", "094944.770000", "094946.260000", "094947.750000", "094949.240000", "094950.730000", "094952.220000", "094953.710000", "094955.200000", "094956.690000", "094958.180000"],
      "ContentTime": ["094045.603000", "094045.606000", "094045.609000", "094045.612000", "094045.615000", "094045.618000", "094045.621000", "094045.624000", "094045.627000", "094045.630000", "094045.632000", "094045.635000", "094045.638000", "094045.641000", "094045.652000", "094045.656000", "094045.658000", "094045.661000", "094045.664000", "094045.667000", "094045.676000", "094045.679000", "094045.681000", "094045.684000", "094105.566000", "094105.577000", "094105.580000", "094105.583000", "094105.586000", "094105.589000", "094105.592000", "094105.595000", "094105.598000", "094105.601000", "094105.604000", "094105.607000", "094105.609000", "094105.612000", "094105.615000", "094105.618000", "094105.621000", "094105.624000", "094105.627000", "094105.630000", "094125.566000", "094125.569000", "094125.572000", "094125.575000", "094125.578000", "094125.581000", "094125.584000", "094125.587000", "094125.590000", "094125.593000", "094125.596000", "094125.599000", "094125.601000", "094125.604000", "094125.607000", "094125.610000", "094125.613000", "094125.616000", "094125.619000", "094125.622000", "094145.567000", "094145.570000", "094145.573000", "094145.576000", "094145.579000", "094145.582000", "094145.585000", "094145.588000", "094145.591000", "094145.594000", "094145.597000", "094145.600000", "094145.603000", "094145.605000", "094145.608000", "094145.611000", "094145.614000", "094145.617000", "094145.620000", "094145.623000", "094225.566000", "094225.569000", "094225.572000", "094225.575000", "094225.578000", "094225.581000", "094225.584000", "094225.587000", "094225.590000", "094225.593000", "094225.596000", "094225.599000", "094225.602000", "094225.604000", "094225.607000", "094225.610000", "094225.613000", "094225.616000", "094225.619000", "094225.622000", "094225.625000", "094225.628000", "094225.631000", "094225.634000", "094225.636000", "094225.639000", "094225.642000", "094225.645000", "094225.648000", "094225.651000", "094225.654000", "094305.566000", "094305.569000", "094305.572000", "094305.575000", "094305.578000", "094305.581000", "094305.584000", "094305.587000", "094305.590000", "094305.593000", "094305.596000", "094305.599000", "094305.602000", "094305.605000", "094305.608000", "094305.611000", "094305.614000", "094305.617000", "094305.620000", "094305.623000", "094305.626000", "094305.628000", "094305.631000", "094305.634000", "094305.637000", "094305.640000", "094305.643000", "094345.566000", "094345.569000", "094345.572000", "094345.575000", "094345.578000", "094345.581000", "094345.584000", "094345.587000", "094345.590000", "094345.593000", "094345.596000", "094345.599000", "094345.602000", "094345.605000", "094345.608000", "094345.611000", "094345.614000", "094345.616000", "094345.620000", "094345.622000", "094345.625000", "094345.628000", "094345.631000", "094345.634000", "094345.637000", "094345.640000", "094345.643000", "094425.566000", "094425.569000", "094425.572000", "094425.575000", "094425.578000", "094425.581000", "094425.584000", "094425.587000", "094425.590000", "094425.593000", "094425.596000", "094425.599000", "094425.602000", "094425.605000", "094425.607000", "094425.610000", "094425.613000", "094425.616000", "094425.619000", "094425.622000", "094425.625000", "094425.628000", "094425.631000", "094425.634000", "094425.637000", "094425.640000", "094425.643000", "094505.566000", "094505.569000", "094505.572000", "094505.575000", "094505.578000", "094505.581000", "094505.584000", "094505.587000", "094505.590000", "094505.593000", "094505.596000", "094505.599000", "094505.602000", "094505.605000", "094505.608000", "094505.610000", "094505.614000", "094505.617000", "094505.619000", "094505.622000", "094505.625000", "094505.628000", "094505.631000", "094505.634000", "094505.637000", "094505.640000", "094505.643000", "094545.566000", "094545.569000", "094545.572000", "094545.575000", "094545.589000", "094545.592000", "094545.595000", "094545.598000", "094545.600000", "094545.603000", "094545.606000", "094545.609000", "094545.612000", "094545.615000", "094545.618000", "094545.621000", "094545.624000", "094545.627000", "094545.630000", "094545.633000", "094545.636000", "094545.639000", "094545.641000", "094545.645000", "094545.647000", "094545.650000", "094545.653000", "094625.567000", "094625.570000", "094625.573000", "094625.576000", "094625.579000", "094625.582000", "094625.585000", "094625.588000", "094625.591000", "094625.594000", "094625.597000", "094625.600000", "094625.603000", "094625.605000", "094625.608000", "094625.611000", "094625.614000", "094625.617000", "094625.620000", "094625.623000", "094625.626000", "094625.629000", "094625.632000", "094625.635000", "094625.638000", "094625.641000", "094705.566000", "094705.569000", "094705.572000", "094705.575000", "094705.578000", "094705.581000", "094705.584000", "094705.587000", "094705.590000", "094705.593000", "094705.596000", "094705.599000", "094705.602000", "094705.605000", "094705.608000", "094705.610000", "094705.613000", "094705.616000", "094705.619000", "094705.622000", "094705.625000", "094705.628000", "094705.631000", "094705.634000", "094705.637000", "094705.640000", "094705.643000", "094745.566000", "094745.569000", "094745.572000", "094745.575000", "094745.578000", "094745.581000", "094745.584000", "094745.587000", "094745.590000", "094745.593000", "094745.596000", "094745.599000", "094745.602000", "094745.605000", "094745.608000", "094745.611000", "094745.614000", "094745.617000", "094745.620000", "094745.623000", "094745.626000", "094745.628000", "094745.631000", "094745.634000", "094745.637000", "094745.640000", "094745.643000", "094825.566000", "094825.569000", "094825.572000", "094825.575000", "094825.578000", "094825.581000", "094825.584000", "094825.587000", "094825.590000", "094825.593000", "094825.596000", "094825.599000", "094825.602000", "094825.605000", "094825.608000", "094825.611000", "094825.614000", "094825.617000", "094825.620000", "094825.623000", "094825.625000", "094825.628000", "094825.631000", "094825.634000", "094825.637000", "094825.640000", "094825.643000", "094905.566000", "094905.569000", "094905.572000", "094905.575000", "094905.578000", "094905.581000", "094905.584000", "094905.587000", "094905.590000", "094905.593000", "094905.596000", "094905.599000", "094905.602000", "094905.605000", "094905.608000", "094905.611000", "094905.614000", "094905.617000", "094905.620000", "094905.623000", "094905.625000", "094905.628000", "094905.631000", "094905.634000", "094905.637000", "094905.640000", "094905.643000", "094945.566000", "094945.569000", "094945.572000", "094945.575000", "094945.578000", "094945.581000", "094945.584000", "094945.587000", "094945.590000", "094945.593000", "094945.596000", "094945.599000", "094945.602000", "094945.605000", "094945.608000", "094945.610000", "094945.613000", "094945.616000", "094945.619000", "094945.622000", "094945.625000", "094945.628000", "094945.631000", "094945.634000", "094945.637000", "094945.640000", "094945.643000", "095000.394000", "095000.398000", "095000.400000", "095000.403000", "095000.414000", "095000.417000", "095000.420000", "095000.423000", "095000.426000", "095000.429000"],
      "InstanceCreationTime": ["094045.603000", "094045.606000", "094045.609000", "094045.612000", "094045.615000", "094045.618000", "094045.621000", "094045.624000", "094045.627000", "094045.630000", "094045.632000", "094045.635000", "094045.638000", "094045.641000", "094045.652000", "094045.656000", "094045.658000", "094045.661000", "094045.664000", "094045.667000", "094045.676000", "094045.679000", "094045.681000", "094045.684000", "094105.566000", "094105.577000", "094105.580000", "094105.583000", "094105.586000", "094105.589000", "094105.592000", "094105.595000", "094105.598000", "094105.601000", "094105.604000", "094105.607000", "094105.609000", "094105.612000", "094105.615000", "094105.618000", "094105.621000", "094105.624000", "094105.627000", "094105.630000", "094125.566000", "094125.569000", "094125.572000", "094125.575000", "094125.578000", "094125.581000", "094125.584000", "094125.587000", "094125.590000", "094125.593000", "094125.596000", "094125.599000", "094125.601000", "094125.604000", "094125.607000", "094125.610000", "094125.613000", "094125.616000", "094125.619000", "094125.622000", "094145.567000", "094145.570000", "094145.573000", "094145.576000", "094145.579000", "094145.582000", "094145.585000", "094145.588000", "094145.591000", "094145.594000", "094145.597000", "094145.600000", "094145.603000", "094145.605000", "094145.608000", "094145.611000", "094145.614000", "094145.617000", "094145.620000", "094145.623000", "094225.566000", "094225.569000", "094225.572000", "094225.575000", "094225.578000", "094225.581000", "094225.584000", "094225.587000", "094225.590000", "094225.593000", "094225.596000", "094225.599000", "094225.602000", "094225.604000", "094225.607000", "094225.610000", "094225.613000", "094225.616000", "094225.619000", "094225.622000", "094225.625000", "094225.628000", "094225.631000", "094225.634000", "094225.636000", "094225.639000", "094225.642000", "094225.645000", "094225.648000", "094225.651000", "094225.654000", "094305.566000", "094305.569000", "094305.572000", "094305.575000", "094305.578000", "094305.581000", "094305.584000", "094305.587000", "094305.590000", "094305.593000", "094305.596000", "094305.599000", "094305.602000", "094305.605000", "094305.608000", "094305.611000", "094305.614000", "094305.617000", "094305.620000", "094305.623000", "094305.626000", "094305.628000", "094305.631000", "094305.634000", "094305.637000", "094305.640000", "094305.643000", "094345.566000", "094345.569000", "094345.572000", "094345.575000", "094345.578000", "094345.581000", "094345.584000", "094345.587000", "094345.590000", "094345.593000", "094345.596000", "094345.599000", "094345.602000", "094345.605000", "094345.608000", "094345.611000", "094345.614000", "094345.616000", "094345.620000", "094345.622000", "094345.625000", "094345.628000", "094345.631000", "094345.634000", "094345.637000", "094345.640000", "094345.643000", "094425.566000", "094425.569000", "094425.572000", "094425.575000", "094425.578000", "094425.581000", "094425.584000", "094425.587000", "094425.590000", "094425.593000", "094425.596000", "094425.599000", "094425.602000", "094425.605000", "094425.607000", "094425.610000", "094425.613000", "094425.616000", "094425.619000", "094425.622000", "094425.625000", "094425.628000", "094425.631000", "094425.634000", "094425.637000", "094425.640000", "094425.643000", "094505.566000", "094505.569000", "094505.572000", "094505.575000", "094505.578000", "094505.581000", "094505.584000", "094505.587000", "094505.590000", "094505.593000", "094505.596000", "094505.599000", "094505.602000", "094505.605000", "094505.608000", "094505.610000", "094505.614000", "094505.617000", "094505.619000", "094505.622000", "094505.625000", "094505.628000", "094505.631000", "094505.634000", "094505.637000", "094505.640000", "094505.643000", "094545.566000", "094545.569000", "094545.572000", "094545.575000", "094545.589000", "094545.592000", "094545.595000", "094545.598000", "094545.600000", "094545.603000", "094545.606000", "094545.609000", "094545.612000", "094545.615000", "094545.618000", "094545.621000", "094545.624000", "094545.627000", "094545.630000", "094545.633000", "094545.636000", "094545.639000", "094545.641000", "094545.645000", "094545.647000", "094545.650000", "094545.653000", "094625.567000", "094625.570000", "094625.573000", "094625.576000", "094625.579000", "094625.582000", "094625.585000", "094625.588000", "094625.591000", "094625.594000", "094625.597000", "094625.600000", "094625.603000", "094625.605000", "094625.608000", "094625.611000", "094625.614000", "094625.617000", "094625.620000", "094625.623000", "094625.626000", "094625.629000", "094625.632000", "094625.635000", "094625.638000", "094625.641000", "094705.566000", "094705.569000", "094705.572000", "094705.575000", "094705.578000", "094705.581000", "094705.584000", "094705.587000", "094705.590000", "094705.593000", "094705.596000", "094705.599000", "094705.602000", "094705.605000", "094705.608000", "094705.610000", "094705.613000", "094705.616000", "094705.619000", "094705.622000", "094705.625000", "094705.628000", "094705.631000", "094705.634000", "094705.637000", "094705.640000", "094705.643000", "094745.566000", "094745.569000", "094745.572000", "094745.575000", "094745.578000", "094745.581000", "094745.584000", "094745.587000", "094745.590000", "094745.593000", "094745.596000", "094745.599000", "094745.602000", "094745.605000", "094745.608000", "094745.611000", "094745.614000", "094745.617000", "094745.620000", "094745.623000", "094745.626000", "094745.628000", "094745.631000", "094745.634000", "094745.637000", "094745.640000", "094745.643000", "094825.566000", "094825.569000", "094825.572000", "094825.575000", "094825.578000", "094825.581000", "094825.584000", "094825.587000", "094825.590000", "094825.593000", "094825.596000", "094825.599000", "094825.602000", "094825.605000", "094825.608000", "094825.611000", "094825.614000", "094825.617000", "094825.620000", "094825.623000", "094825.625000", "094825.628000", "094825.631000", "094825.634000", "094825.637000", "094825.640000", "094825.643000", "094905.566000", "094905.569000", "094905.572000", "094905.575000", "094905.578000", "094905.581000", "094905.584000", "094905.587000", "094905.590000", "094905.593000", "094905.596000", "094905.599000", "094905.602000", "094905.605000", "094905.608000", "094905.611000", "094905.614000", "094905.617000", "094905.620000", "094905.623000", "094905.625000", "094905.628000", "094905.631000", "094905.634000", "094905.637000", "094905.640000", "094905.643000", "094945.566000", "094945.569000", "094945.572000", "094945.575000", "094945.578000", "094945.581000", "094945.584000", "094945.587000", "094945.590000", "094945.593000", "094945.596000", "094945.599000", "094945.602000", "094945.605000", "094945.608000", "094945.610000", "094945.613000", "094945.616000", "094945.619000", "094945.622000", "094945.625000", "094945.628000", "094945.631000", "094945.634000", "094945.637000", "094945.640000", "094945.643000", "095000.394000", "095000.398000", "095000.400000", "095000.403000", "095000.414000", "095000.417000", "095000.420000", "095000.423000", "095000.426000", "095000.429000"],
