{
  "AcquisitionMatrixPE": 104,
  "AcquisitionNumber": 1,
  "AcquisitionTime": "14:50:33.250000",
  "BandwidthPerPixelPhaseEncode": 17.17,
  "BaseResolution": 104,
  "BodyPartExamined": "BRAIN",
  "CoilString": "HC1-7;NC1_2",
  "ConsistencyInfo": "N4_VE11C_LATEST_20160120",
  "ConversionSoftware": "dcm2niix",
  "ConversionSoftwareVersion": "v1.0.20190720  (JP2:OpenJPEG) GCC7.3.0",
  "DerivedVendorReportedEchoSpacing": 0.000560011,
  "DeviceSerialNumber": "167006",
  "DwellTime": 2.1e-06,
  "EchoTime": 0.037,
  "EchoTrainLength": 104,
  "EffectiveEchoSpacing": 0.000560011,
  "FlipAngle": 52,
  "ImageComments": "Unaliased_MB4_PE3_LB",
  "ImageOrientationPatientDICOM": [0.999141, -0.0405537, 0.00850625, 0.0411778, 0.948867, -0.31298],
  "ImageType": [
    "ORIGINAL",
    "PRIMARY",
    "M",
    "MB",
    "ND",
    "MOSAIC"
],
  "ImagingFrequency": 123.259,
  "InPlanePhaseEncodingDirectionDICOM": "COL",
  "InstitutionAddress": "Chemin_Queen-Mary_4565_Montreal_District_CA_H3W_1W5",
  "InstitutionName": "IUGM",
  "InstitutionalDepartmentName": "Department",
  "MRAcquisitionType": "2D",
  "MagneticFieldStrength": 3,
  "Manufacturer": "Siemens",
  "ManufacturersModelName": "Prisma_fit",
  "Modality": "MR",
  "MultibandAccelerationFactor": 4,
  "PartialFourier": 1,
  "PatientPosition": "HFS",
  "PercentPhaseFOV": 100,
  "PhaseEncodingDirection": "j",
  "PhaseEncodingSteps": 104,
  "PhaseResolution": 1,
  "PixelBandwidth": 2290,
  "ProcedureStepDescription": "video_friends",
  "ProtocolName": "func_task-s01e03a",
  "PulseSequenceDetails": "%CustomerSeq%_cmrr_mbep2d_bold",
  "ReceiveCoilActiveElements": "HC1-7;NC1,2",
  "ReceiveCoilName": "HeadNeck_64",
  "ReconMatrixPE": 104,
  "RepetitionTime": 1.49,
  "SAR": 0.032789,
  "ScanOptions": "FS",
  "ScanningSequence": "EP",
  "SequenceName": "epfid2d1_104",
  "SequenceVariant": "SK_SS",
  "SeriesDescription": "func_task-s01e03a",
  "SeriesNumber": 8,
  "ShimSetting": [622, -7208, -8791, 686, 4, -1, -13, 10],
  "SliceThickness": 2,
  "SliceTiming": [0, 0.785, 0.0975, 0.8825, 0.1975, 0.98, 0.295, 1.0775, 0.3925, 1.1775, 0.49, 1.275, 0.5875, 1.3725, 0.6875, 0, 0.785, 0.0975, 0.8825, 0.1975, 0.98, 0.295, 1.0775, 0.3925, 1.1775, 0.49, 1.275, 0.5875, 1.3725, 0.6875, 0, 0.785, 0.0975, 0.8825, 0.1975, 0.98, 0.295, 1.0775, 0.3925, 1.1775, 0.49, 1.275, 0.5875, 1.3725, 0.6875, 0, 0.785, 0.0975, 0.8825, 0.1975, 0.98, 0.295, 1.0775, 0.3925, 1.1775, 0.49, 1.275, 0.5875, 1.3725, 0.6875],
  "SoftwareVersions": "syngo_MR_E11",
  "SpacingBetweenSlices": 2,
  "StationName": "MRC35049",
  "TaskName": "friends",
  "TotalReadoutTime": 0.0576811,
  "TxRefAmp": 211.896,
  "WipMemBlock": "6b8e4ad8-89f1-4972-a66d-bcb66a9fc604||Sequence: R016 ve11c/master r/e634e98; Dec 19 2017 11:00:25 by eja",
  "dcmmeta_affine": [
    [-1.9982823133468628, 0.08235550671815872, -0.009242396801710129, 100.47441864013672],
    [0.0811074897646904, 1.897733449935913, -0.6261222958564758, -83.40318298339844],
    [0.01701250672340393, 0.6259593963623047, 1.8994433879852295, -62.748512268066406],
    [0.0, 0.0, 0.0, 1.0]
],
  "dcmmeta_reorient_transform": [
    [0.0, -1.0, 0.0, 103.0],
    [1.0, 0.0, 0.0, 0.0],
    [0.0, 0.0, 1.0, 0.0],
    [0.0, 0.0, 0.0, 1.0]
],
  "dcmmeta_shape": [104, 104, 60, 503],
  "dcmmeta_slice_dim": 2,
  "dcmmeta_version": 0.6,
  "global": {
    "const": {
      "AcquisitionMatrix": [104, 0, 0, 104],
      "AngioFlag": "N",
      "BitsAllocated": 16,
      "BitsStored": 16,
      "BodyPartExamined": "BRAIN",
      "Columns": 832,
      "EchoNumbers": 1,
      "EchoTime": 37.0,
      "EchoTrainLength": 104,
      "FlipAngle": 52.0,
      "HighBit": 15,
      "ImageOrientationPatient": [0.99914114984187, -0.0405537464282, 0.00850625318811, 0.04117775150273, 0.94886674750986, -0.3129796930333],
      "ImagePositionPatient": [-866.30919740966, -773.31523472526, 223.38196817438],
      "ImageType": [
        "ORIGINAL",
        "PRIMARY",
        "M",
        "MB",
        "ND",
        "MOSAIC"
],
      "ImagedNucleus": "1H",
      "ImagingFrequency": 123.259162,
      "InPlanePhaseEncodingDirection": "COL",
      "MRAcquisitionType": "2D",
      "MagneticFieldStrength": 3.0,
      "Manufacturer": "SIEMENS",
      "ManufacturerModelName": "Prisma_fit",
      "Modality": "MR",
      "NumberOfAverages": 1.0,
      "NumberOfPhaseEncodingSteps": 104,
      "PercentPhaseFieldOfView": 100.0,
      "PercentSampling": 100.0,
      "PerformedProcedureStepStartTime": "144605.065000",
      "PhotometricInterpretation": "MONOCHROME2",
      "PixelBandwidth": 2290.0,
      "PixelRepresentation": 0,
      "PixelSpacing": [2.0, 2.0],
      "ProtocolName": "func_task-s01e03a",
      "RepetitionTime": 1490.0,
      "Rows": 832,
      "SAR": 0.03278902671218,
      "SamplesPerPixel": 1,
      "ScanOptions": "FS",
      "ScanningSequence": "EP",
      "SequenceName": "epfid2d1_104",
      "SequenceVariant": [
        "SK",
        "SS"
],
      "SeriesDescription": "func_task-s01e03a",
      "SeriesNumber": 8,
      "SeriesTime": "145157.081000",
      "SliceLocation": -33.947641863073,
      "SliceThickness": 2.0,
      "SmallestImagePixelValue": 0,
      "SoftwareVersions": "syngo MR E11",
      "SpacingBetweenSlices": 1.9999999710813,
      "SpecificCharacterSet": "ISO_IR 100",
      "StudyID": "1",
      "StudyTime": "144604.979000",
      "TransmitCoilName": "Body",
      "VariableFlipAngleFlag": "N",
      "WindowCenterWidthExplanation": "Algo1",
      "dBdt": 0.0},
    "slices": {}
  },
  "time": {
    "samples": {
      "AcquisitionNumber": [1, 2, 3, 4, 5, 6, 7, 8, 9, 10, 11, 12, 13, 14, 15, 16, 17, 18, 19, 20, 21, 22, 23, 24, 25, 26, 27, 28, 29, 30, 31, 32, 33, 34, 35, 36, 37, 38, 39, 40, 41, 42, 43, 44, 45, 46, 47, 48, 49, 50, 51, 52, 53, 54, 55, 56, 57, 58, 59, 60, 61, 62, 63, 64, 65, 66, 67, 68, 69, 70, 71, 72, 73, 74, 75, 76, 77, 78, 79, 80, 81, 82, 83, 84, 85, 86, 87, 88, 89, 90, 91, 92, 93, 94, 95, 96, 97, 98, 99, 100, 101, 102, 103, 104, 105, 106, 107, 108, 109, 110, 111, 112, 113, 114, 115, 116, 117, 118, 119, 120, 121, 122, 123, 124, 125, 126, 127, 128, 129, 130, 131, 132, 133, 134, 135, 136, 137, 138, 139, 140, 141, 142, 143, 144, 145, 146, 147, 148, 149, 150, 151, 152, 153, 154, 155, 156, 157, 158, 159, 160, 161, 162, 163, 164, 165, 166, 167, 168, 169, 170, 171, 172, 173, 174, 175, 176, 177, 178, 179, 180, 181, 182, 183, 184, 185, 186, 187, 188, 189, 190, 191, 192, 193, 194, 195, 196, 197, 198, 199, 200, 201, 202, 203, 204, 205, 206, 207, 208, 209, 210, 211, 212, 213, 214, 215, 216, 217, 218, 219, 220, 221, 222, 223, 224, 225, 226, 227, 228, 229, 230, 231, 232, 233, 234, 235, 236, 237, 238, 239, 240, 241, 242, 243, 244, 245, 246, 247, 248, 249, 250, 251, 252, 253, 254, 255, 256, 257, 258, 259, 260, 261, 262, 263, 264, 265, 266, 267, 268, 269, 270, 271, 272, 273, 274, 275, 276, 277, 278, 279, 280, 281, 282, 283, 284, 285, 286, 287, 288, 289, 290, 291, 292, 293, 294, 295, 296, 297, 298, 299, 300, 301, 302, 303, 304, 305, 306, 307, 308, 309, 310, 311, 312, 313, 314, 315, 316, 317, 318, 319, 320, 321, 322, 323, 324, 325, 326, 327, 328, 329, 330, 331, 332, 333, 334, 335, 336, 337, 338, 339, 340, 341, 342, 343, 344, 345, 346, 347, 348, 349, 350, 351, 352, 353, 354, 355, 356, 357, 358, 359, 360, 361, 362, 363, 364, 365, 366, 367, 368, 369, 370, 371, 372, 373, 374, 375, 376, 377, 378, 379, 380, 381, 382, 383, 384, 385, 386, 387, 388, 389, 390, 391, 392, 393, 394, 395, 396, 397, 398, 399, 400, 401, 402, 403, 404, 405, 406, 407, 408, 409, 410, 411, 412, 413, 414, 415, 416, 417, 418, 419, 420, 421, 422, 423, 424, 425, 426, 427, 428, 429, 430, 431, 432, 433, 434, 435, 436, 437, 438, 439, 440, 441, 442, 443, 444, 445, 446, 447, 448, 449, 450, 451, 452, 453, 454, 455, 456, 457, 458, 459, 460, 461, 462, 463, 464, 465, 466, 467, 468, 469, 470, 471, 472, 473, 474, 475, 476, 477, 478, 479, 480, 481, 482, 483, 484, 485, 486, 487, 488, 489, 490, 491, 492, 493, 494, 495, 496, 497, 498, 499, 500, 501, 502, 503],
      "AcquisitionTime": ["145033.250000", "145034.740000", "145036.230000", "145037.720000", "145039.210000", "145040.700000", "145042.190000", "145043.680000", "145045.170000", "145046.660000", "145048.150000", "145049.640000", "145051.130000", "145052.620000", "145054.110000", "145055.600000", "145057.090000", "145058.580000", "145100.070000", "145101.560000", "145103.050000", "145104.540000", "145106.030000", "145107.520000", "145109.010000", "145110.500000", "145111.990000", "145113.480000", "145114.970000", "145116.460000", "145117.950000", "145119.440000", "145120.930000", "145122.420000", "145123.910000", "145125.400000", "145126.890000", "145128.380000", "145129.870000", "145131.360000", "145132.850000", "145134.340000", "145135.830000", "145137.320000", "145138.810000", "145140.300000", "145141.790000", "145143.280000", "145144.770000", "145146.260000", "145147.750000", "145149.240000", "145150.730000", "145152.220000", "145153.710000", "145155.200000", "145156.690000", "145158.180000", "145159.670000", "145201.160000", "145202.650000", "145204.140000", "145205.630000", "145207.120000", "145208.610000", "145210.100000", "145211.590000", "145213.080000", "145214.570000", "145216.060000", "145217.550000", "145219.040000", "145220.530000", "145222.020000", "145223.510000", "145225.000000", "145226.490000", "145227.980000", "145229.470000", "145230.960000", "145232.450000", "145233.940000", "145235.430000", "145236.920000", "145238.410000", "145239.900000", "145241.390000", "145242.880000", "145244.370000", "145245.860000", "145247.350000", "145248.840000", "145250.330000", "145251.820000", "145253.310000", "145254.800000", "145256.290000", "145257.780000", "145259.270000", "145300.760000", "145302.250000", "145303.740000", "145305.230000", "145306.720000", "145308.210000", "145309.700000", "145311.190000", "145312.680000", "145314.170000", "145315.660000", "145317.150000", "145318.640000", "145320.130000", "145321.620000", "145323.110000", "145324.600000", "145326.090000", "145327.580000", "145329.070000", "145330.560000", "145332.050000", "145333.540000", "145335.030000", "145336.520000", "145338.010000", "145339.500000", "145340.990000", "145342.480000", "145343.970000", "145345.460000", "145346.950000", "145348.440000", "145349.930000", "145351.420000", "145352.910000", "145354.400000", "145355.890000", "145357.380000", "145358.870000", "145400.360000", "145401.850000", "145403.340000", "145404.830000", "145406.320000", "145407.810000", "145409.300000", "145410.790000", "145412.280000", "145413.770000", "145415.260000", "145416.750000", "145418.240000", "145419.730000", "145421.220000", "145422.710000", "145424.200000", "145425.690000", "145427.180000", "145428.670000", "145430.160000", "145431.650000", "145433.140000", "145434.630000", "145436.120000", "145437.610000", "145439.100000", "145440.590000", "145442.080000", "145443.570000", "145445.060000", "145446.550000", "145448.040000", "145449.530000", "145451.020000", "145452.510000", "145454.000000", "145455.490000", "145456.980000", "145458.470000", "145459.960000", "145501.450000", "145502.940000", "145504.430000", "145505.920000", "145507.410000", "145508.900000", "145510.390000", "145511.880000", "145513.370000", "145514.860000", "145516.350000", "145517.840000", "145519.330000", "145520.820000", "145522.310000", "145523.800000", "145525.290000", "145526.780000", "145528.270000", "145529.760000", "145531.250000", "145532.740000", "145534.230000", "145535.720000", "145537.210000", "145538.700000", "145540.190000", "145541.680000", "145543.170000", "145544.660000", "145546.150000", "145547.640000", "145549.130000", "145550.620000", "145552.110000", "145553.600000", "145555.090000", "145556.580000", "145558.070000", "145559.560000", "145601.050000", "145602.540000", "145604.030000", "145605.520000", "145607.010000", "145608.500000", "145609.990000", "145611.480000", "145612.970000", "145614.460000", "145615.950000", "145617.440000", "145618.930000", "145620.420000", "145621.910000", "145623.400000", "145624.890000", "145626.380000", "145627.870000", "145629.360000", "145630.850000", "145632.340000", "145633.830000", "145635.320000", "145636.810000", "145638.300000", "145639.790000", "145641.280000", "145642.770000", "145644.260000", "145645.750000", "145647.240000", "145648.730000", "145650.220000", "145651.710000", "145653.200000", "145654.690000", "145656.180000", "145657.670000", "145659.160000", "145700.650000", "145702.140000", "145703.630000", "145705.120000", "145706.610000", "145708.100000", "145709.590000", "145711.080000", "145712.570000", "145714.060000", "145715.550000", "145717.040000", "145718.530000", "145720.020000", "145721.510000", "145723.000000", "145724.490000", "145725.980000", "145727.470000", "145728.960000", "145730.450000", "145731.940000", "145733.430000", "145734.920000", "145736.410000", "145737.900000", "145739.390000", "145740.880000", "145742.370000", "145743.860000", "145745.350000", "145746.840000", "145748.330000", "145749.820000", "145751.310000", "145752.800000", "145754.290000", "145755.780000", "145757.270000", "145758.760000", "145800.250000", "145801.740000", "145803.230000", "145804.720000", "145806.210000", "145807.700000", "145809.190000", "145810.680000", "145812.170000", "145813.660000", "145815.150000", "145816.640000", "145818.130000", "145819.620000", "145821.110000", "145822.600000", "145824.090000", "145825.580000", "145827.070000", "145828.560000", "145830.050000", "145831.540000", "145833.030000", "145834.520000", "145836.010000", "145837.500000", "145838.990000", "145840.480000", "145841.970000", "145843.460000", "145844.950000", "145846.440000", "145847.930000", "145849.420000", "145850.910000", "145852.400000", "145853.890000", "145855.380000", "145856.870000", "145858.360000", "145859.850000", "145901.340000", "145902.830000", "145904.320000", "145905.810000", "145907.300000", "145908.790000", "145910.280000", "145911.770000", "145913.260000", "145914.750000", "145916.240000", "145917.730000", "145919.220000", "145920.710000", "145922.200000", "145923.690000", "145925.180000", "145926.670000", "145928.160000", "145929.650000", "145931.140000", "145932.630000", "145934.120000", "145935.610000", "145937.100000", "145938.590000", "145940.080000", "145941.570000", "145943.060000", "145944.550000", "145946.040000", "145947.530000", "145949.020000", "145950.510000", "145952.000000", "145953.490000", "145954.980000", "145956.470000", "145957.960000", "145959.450000", "150000.940000", "150002.430000", "150003.920000", "150005.410000", "150006.900000", "150008.390000", "150009.880000", "150011.370000", "150012.860000", "150014.350000", "150015.840000", "150017.330000", "150018.820000", "150020.310000", "150021.800000", "150023.290000", "150024.780000", "150026.270000", "150027.760000", "150029.250000", "150030.740000", "150032.230000", "150033.720000", "150035.210000", "150036.700000", "150038.190000", "150039.680000", "150041.170000", "150042.660000", "150044.150000", "150045.640000", "150047.130000", "150048.620000", "150050.110000", "150051.600000", "150053.090000", "150054.580000", "150056.070000", "150057.560000", "150059.050000", "150100.540000", "150102.030000", "150103.520000", "150105.010000", "150106.500000", "150107.990000", "150109.480000", "150110.970000", "150112.460000", "150113.950000", "150115.440000", "150116.930000", "150118.420000", "150119.910000", "150121.400000", "150122.890000", "150124.380000", "150125.870000", "150127.360000", "150128.850000", "150130.340000", "150131.830000", "150133.320000", "150134.810000", "150136.300000", "150137.790000", "150139.280000", "150140.770000", "150142.260000", "150143.750000", "150145.240000", "150146.730000", "150148.220000", "150149.710000", "150151.200000", "150152.690000", "150154.180000", "150155.670000", "150157.160000", "150158.650000", "150200.140000", "150201.630000", "150203.120000", "150204.610000", "150206.100000", "150207.590000", "150209.080000", "150210.570000", "150212.060000", "150213.550000", "150215.040000", "150216.530000", "150218.020000", "150219.510000", "150221.000000", "150222.490000", "150223.980000", "150225.470000", "150226.960000", "150228.450000", "150229.940000", "150231.430000", "150232.920000", "150234.410000", "150235.900000", "150237.390000", "150238.880000", "150240.370000", "150241.860000", "150243.350000", "150244.840000", "150246.330000", "150247.820000", "150249.310000", "150250.800000", "150252.290000", "150253.780000", "150255.270000", "150256.760000", "150258.250000", "150259.740000", "150301.230000"],
      "ContentTime": ["145157.084000", "145157.087000", "145157.090000", "145157.093000", "145157.096000", "145157.099000", "145157.102000", "145157.104000", "145157.107000", "145157.114000", "145157.117000", "145157.119000", "145157.122000", "145157.125000", "145157.128000", "145157.131000", "145157.134000", "145157.143000", "145157.146000", "145157.151000", "145157.155000", "145157.167000", "145157.171000", "145157.174000", "145157.177000", "145157.180000", "145217.046000", "145217.049000", "145217.052000", "145217.055000", "145217.057000", "145217.060000", "145217.063000", "145217.066000", "145217.069000", "145217.076000", "145217.079000", "145217.082000", "145217.085000", "145217.088000", "145217.090000", "145217.093000", "145217.096000", "145217.099000", "145217.102000", "145217.104000", "145237.046000", "145237.049000", "145237.052000", "145237.054000", "145237.057000", "145237.060000", "145237.063000", "145237.066000", "145237.069000", "145237.072000", "145237.075000", "145237.091000", "145237.094000", "145237.097000", "145237.099000", "145237.102000", "145237.105000", "145237.108000", "145237.111000", "145237.113000", "145257.047000", "145257.050000", "145257.053000", "145257.055000", "145257.058000", "145257.061000", "145257.064000", "145257.067000", "145257.070000", "145257.072000", "145257.082000", "145257.085000", "145257.087000", "145257.090000", "145257.093000", "145257.096000", "145257.099000", "145257.102000", "145257.104000", "145257.107000", "145257.110000", "145317.047000", "145317.050000", "145317.053000", "145317.056000", "145317.058000", "145317.061000", "145317.078000", "145317.080000", "145317.083000", "145317.086000", "145317.089000", "145317.092000", "145317.095000", "145317.097000", "145317.100000", "145317.103000", "145317.106000", "145317.109000", "145317.112000", "145317.125000", "145357.047000", "145357.050000", "145357.053000", "145357.055000", "145357.058000", "145357.061000", "145357.064000", "145357.070000", "145357.072000", "145357.075000", "145357.078000", "145357.081000", "145357.084000", "145357.086000", "145357.089000", "145357.092000", "145357.095000", "145357.098000", "145357.101000", "145357.103000", "145357.106000", "145357.109000", "145357.112000", "145357.115000", "145357.118000", "145357.120000", "145357.123000", "145357.126000", "145357.129000", "145437.046000", "145437.049000", "145437.052000", "145437.055000", "145437.058000", "145437.060000", "145437.063000", "145437.066000", "145437.069000", "145437.072000", "145437.075000", "145437.078000", "145437.080000", "145437.083000", "145437.086000", "145437.089000", "145437.092000", "145437.095000", "145437.097000", "145437.100000", "145437.103000", "145437.106000", "145437.109000", "145437.112000", "145437.115000", "145437.117000", "145437.120000", "145517.047000", "145517.050000", "145517.053000", "145517.056000", "145517.058000", "145517.061000", "145517.064000", "145517.067000", "145517.070000", "145517.073000", "145517.076000", "145517.078000", "145517.081000", "145517.084000", "145517.087000", "145517.090000", "145517.093000", "145517.095000", "145517.098000", "145517.101000", "145517.104000", "145517.107000", "145517.110000", "145517.113000", "145517.115000", "145517.118000", "145557.047000", "145557.050000", "145557.053000", "145557.056000", "145557.058000", "145557.061000", "145557.064000", "145557.067000", "145557.070000", "145557.073000", "145557.075000", "145557.078000", "145557.081000", "145557.084000", "145557.087000", "145557.090000", "145557.092000", "145557.095000", "145557.098000", "145557.101000", "145557.104000", "145557.107000", "145557.110000", "145557.113000", "145557.116000", "145557.118000", "145557.121000", "145617.047000", "145617.050000", "145617.053000", "145617.056000", "145617.059000", "145617.061000", "145617.064000", "145617.067000", "145617.070000", "145617.073000", "145617.076000", "145617.079000", "145617.082000", "145617.085000", "145657.046000", "145657.049000", "145657.052000", "145657.055000", "145657.058000", "145657.061000", "145657.063000", "145657.066000", "145657.069000", "145657.072000", "145657.075000", "145657.078000", "145657.081000", "145657.085000", "145657.088000", "145657.091000", "145657.113000", "145657.116000", "145657.119000", "145657.122000", "145657.125000", "145657.127000", "145657.130000", "145657.133000", "145657.136000", "145657.139000", "145737.047000", "145737.050000", "145737.053000", "145737.056000", "145737.059000", "145737.062000", "145737.064000", "145737.067000", "145737.070000", "145737.073000", "145737.076000", "145737.079000", "145737.082000", "145737.085000", "145737.087000", "145737.090000", "145737.093000", "145737.096000", "145737.099000", "145737.102000", "145737.104000", "145737.107000", "145737.110000", "145737.113000", "145737.116000", "145737.119000", "145737.122000", "145817.047000", "145817.050000", "145817.053000", "145817.056000", "145817.059000", "145817.061000", "145817.064000", "145817.067000", "145817.070000", "145817.073000", "145817.076000", "145817.098000", "145817.101000", "145817.104000", "145817.107000", "145817.109000", "145817.112000", "145817.115000", "145817.118000", "145817.121000", "145817.124000", "145817.127000", "145817.130000", "145817.132000", "145817.135000", "145817.138000", "145817.141000", "145857.047000", "145857.050000", "145857.053000", "145857.056000", "145857.059000", "145857.061000", "145857.064000", "145857.067000", "145857.070000", "145857.073000", "145857.076000", "145857.079000", "145857.081000", "145857.084000", "145857.087000", "145857.090000", "145857.093000", "145857.096000", "145857.099000", "145857.102000", "145857.105000", "145857.108000", "145857.110000", "145857.113000", "145857.116000", "145857.119000", "145857.122000", "145937.046000", "145937.049000", "145937.052000", "145937.055000", "145937.058000", "145937.061000", "145937.063000", "145937.066000", "145937.069000", "145937.072000", "145937.075000", "145937.078000", "145937.081000", "145937.084000", "145937.087000", "145937.090000", "145937.092000", "145937.095000", "145937.098000", "145937.101000", "145937.104000", "145937.107000", "145937.110000", "145937.112000", "145937.115000", "145937.118000", "145937.121000", "150017.047000", "150017.050000", "150017.053000", "150017.056000", "150017.059000", "150017.062000", "150017.065000", "150017.067000", "150017.070000", "150017.073000", "150017.076000", "150017.079000", "150017.082000", "150017.085000", "150017.088000", "150017.090000", "150017.093000", "150017.096000", "150017.099000", "150017.102000", "150017.105000", "150017.108000", "150017.111000", "150017.113000", "150017.116000", "150017.119000", "150017.122000", "150057.047000", "150057.050000", "150057.053000", "150057.056000", "150057.059000", "150057.061000", "150057.064000", "150057.067000", "150057.070000", "150057.073000", "150057.076000", "150057.079000", "150057.081000", "150057.084000", "150057.087000", "150057.090000", "150057.093000", "150057.096000", "150057.099000", "150057.102000", "150057.105000", "150057.108000", "150057.110000", "150057.113000", "150057.116000", "150057.119000", "150057.122000", "150137.046000", "150137.049000", "150137.052000", "150137.055000", "150137.058000", "150137.060000", "150137.063000", "150137.066000", "150137.069000", "150137.072000", "150137.075000", "150137.078000", "150137.082000", "150137.085000", "150137.088000", "150137.090000", "150137.093000", "150137.096000", "150137.099000", "150137.102000", "150137.105000", "150137.108000", "150137.110000", "150137.113000", "150137.116000", "150137.119000", "150217.047000", "150217.050000", "150217.053000", "150217.056000", "150217.059000", "150217.062000", "150217.065000", "150217.067000", "150217.070000", "150217.073000", "150217.076000", "150217.079000", "150217.082000", "150217.085000", "150217.088000", "150217.090000", "150217.093000", "150217.096000", "150217.099000", "150217.102000", "150217.105000", "150217.107000", "150217.111000", "150217.113000", "150217.116000", "150217.119000", "150217.122000", "150257.047000", "150257.050000", "150257.053000", "150257.056000", "150257.059000", "150257.062000", "150257.065000", "150257.068000", "150257.071000", "150257.074000", "150257.077000", "150257.079000", "150257.090000", "150257.093000", "150257.096000", "150257.098000", "150257.101000", "150257.104000", "150257.107000", "150257.110000", "150257.113000", "150257.116000", "150257.119000", "150257.122000", "150257.125000", "150257.128000", "150257.130000", "150303.685000", "150303.688000", "150303.691000", "150303.694000", "150303.697000"],
