{
  "AcquisitionMatrixPE": 104,
  "AcquisitionNumber": 1,
  "AcquisitionTime": "15:16:29.215000",
  "BandwidthPerPixelPhaseEncode": 17.17,
  "BaseResolution": 104,
  "BodyPartExamined": "BRAIN",
  "CoilString": "HC1-7;NC1_2",
  "ConsistencyInfo": "N4_VE11C_LATEST_20160120",
  "ConversionSoftware": "dcm2niix",
  "ConversionSoftwareVersion": "v1.0.20190720  (JP2:OpenJPEG) GCC7.3.0",
  "DerivedVendorReportedEchoSpacing": 0.000560011,
  "DeviceSerialNumber": "167006",
  "DwellTime": 2.1e-06,
  "EchoTime": 0.037,
  "EchoTrainLength": 104,
  "EffectiveEchoSpacing": 0.000560011,
  "FlipAngle": 52,
  "ImageComments": "Unaliased_MB4_PE3_LB",
  "ImageOrientationPatientDICOM": [0.999141, -0.0405537, 0.00850625, 0.0411778, 0.948867, -0.31298],
  "ImageType": [
    "ORIGINAL",
    "PRIMARY",
    "M",
    "MB",
    "ND",
    "MOSAIC"
],
  "ImagingFrequency": 123.259,
  "InPlanePhaseEncodingDirectionDICOM": "COL",
  "InstitutionAddress": "Chemin_Queen-Mary_4565_Montreal_District_CA_H3W_1W5",
  "InstitutionName": "IUGM",
  "InstitutionalDepartmentName": "Department",
  "MRAcquisitionType": "2D",
  "MagneticFieldStrength": 3,
  "Manufacturer": "Siemens",
  "ManufacturersModelName": "Prisma_fit",
  "Modality": "MR",
  "MultibandAccelerationFactor": 4,
  "PartialFourier": 1,
  "PatientPosition": "HFS",
  "PercentPhaseFOV": 100,
  "PhaseEncodingDirection": "j",
  "PhaseEncodingSteps": 104,
  "PhaseResolution": 1,
  "PixelBandwidth": 2290,
  "ProcedureStepDescription": "video_friends",
  "ProtocolName": "func_task-s01e04a",
  "PulseSequenceDetails": "%CustomerSeq%_cmrr_mbep2d_bold",
  "ReceiveCoilActiveElements": "HC1-7;NC1,2",
  "ReceiveCoilName": "HeadNeck_64",
  "ReconMatrixPE": 104,
  "RepetitionTime": 1.49,
  "SAR": 0.0327794,
  "ScanOptions": "FS",
  "ScanningSequence": "EP",
  "SequenceName": "epfid2d1_104",
  "SequenceVariant": "SK_SS",
  "SeriesDescription": "func_task-s01e04a",
  "SeriesNumber": 12,
  "ShimSetting": [622, -7208, -8791, 686, 4, -1, -13, 10],
  "SliceThickness": 2,
  "SliceTiming": [0, 0.7825, 0.0975, 0.88, 0.195, 0.98, 0.2925, 1.0775, 0.39, 1.175, 0.49, 1.2725, 0.5875, 1.37, 0.685, 0, 0.7825, 0.0975, 0.88, 0.195, 0.98, 0.2925, 1.0775, 0.39, 1.175, 0.49, 1.2725, 0.5875, 1.37, 0.685, 0, 0.7825, 0.0975, 0.88, 0.195, 0.98, 0.2925, 1.0775, 0.39, 1.175, 0.49, 1.2725, 0.5875, 1.37, 0.685, 0, 0.7825, 0.0975, 0.88, 0.195, 0.98, 0.2925, 1.0775, 0.39, 1.175, 0.49, 1.2725, 0.5875, 1.37, 0.685],
  "SoftwareVersions": "syngo_MR_E11",
  "SpacingBetweenSlices": 2,
  "StationName": "MRC35049",
  "TaskName": "friends",
  "TotalReadoutTime": 0.0576811,
  "TxRefAmp": 211.896,
  "WipMemBlock": "58c9f9cc-6038-4691-beae-3fc271fba674||Sequence: R016 ve11c/master r/e634e98; Dec 19 2017 11:00:25 by eja",
  "dcmmeta_affine": [
    [-1.9982823133468628, 0.08235550671815872, -0.009242396801710129, 100.47441864013672],
    [0.0811074897646904, 1.897733449935913, -0.6261222958564758, -83.40318298339844],
    [0.01701250672340393, 0.6259593963623047, 1.8994433879852295, -62.748512268066406],
    [0.0, 0.0, 0.0, 1.0]
],
  "dcmmeta_reorient_transform": [
    [0.0, -1.0, 0.0, 103.0],
    [1.0, 0.0, 0.0, 0.0],
    [0.0, 0.0, 1.0, 0.0],
    [0.0, 0.0, 0.0, 1.0]
],
  "dcmmeta_shape": [104, 104, 60, 468],
  "dcmmeta_slice_dim": 2,
  "dcmmeta_version": 0.6,
  "global": {
    "const": {
      "AcquisitionMatrix": [104, 0, 0, 104],
      "AngioFlag": "N",
      "BitsAllocated": 16,
      "BitsStored": 16,
      "BodyPartExamined": "BRAIN",
      "Columns": 832,
      "EchoNumbers": 1,
      "EchoTime": 37.0,
      "EchoTrainLength": 104,
      "FlipAngle": 52.0,
      "HighBit": 15,
      "ImageOrientationPatient": [0.99914114984187, -0.0405537464282, 0.00850625318811, 0.04117775150273, 0.94886674750986, -0.3129796930333],
      "ImagePositionPatient": [-866.30919740966, -773.31523472526, 223.38196817438],
      "ImageType": [
        "ORIGINAL",
        "PRIMARY",
        "M",
        "MB",
        "ND",
        "MOSAIC"
],
      "ImagedNucleus": "1H",
      "ImagingFrequency": 123.259169,
      "InPlanePhaseEncodingDirection": "COL",
      "MRAcquisitionType": "2D",
      "MagneticFieldStrength": 3.0,
      "Manufacturer": "SIEMENS",
      "ManufacturerModelName": "Prisma_fit",
      "Modality": "MR",
      "NumberOfAverages": 1.0,
      "NumberOfPhaseEncodingSteps": 104,
      "PercentPhaseFieldOfView": 100.0,
      "PercentSampling": 100.0,
      "PerformedProcedureStepStartTime": "144605.065000",
      "PhotometricInterpretation": "MONOCHROME2",
      "PixelBandwidth": 2290.0,
      "PixelRepresentation": 0,
      "PixelSpacing": [2.0, 2.0],
      "ProtocolName": "func_task-s01e04a",
      "RepetitionTime": 1490.0,
      "Rows": 832,
      "SAR": 0.03277938832469,
      "SamplesPerPixel": 1,
      "ScanOptions": "FS",
      "ScanningSequence": "EP",
      "SequenceName": "epfid2d1_104",
      "SequenceVariant": [
        "SK",
        "SS"
],
      "SeriesDescription": "func_task-s01e04a",
      "SeriesNumber": 12,
      "SeriesTime": "151758.927000",
      "SliceLocation": -33.947641863073,
      "SliceThickness": 2.0,
      "SmallestImagePixelValue": 0,
      "SoftwareVersions": "syngo MR E11",
      "SpacingBetweenSlices": 1.9999999710813,
      "SpecificCharacterSet": "ISO_IR 100",
      "StudyID": "1",
      "StudyTime": "144604.979000",
      "TransmitCoilName": "Body",
      "VariableFlipAngleFlag": "N",
      "WindowCenterWidthExplanation": "Algo1",
      "dBdt": 0.0},
    "slices": {}
  },
  "time": {
    "samples": {
      "AcquisitionNumber": [1, 2, 3, 4, 5, 6, 7, 8, 9, 10, 11, 12, 13, 14, 15, 16, 17, 18, 19, 20, 21, 22, 23, 24, 25, 26, 27, 28, 29, 30, 31, 32, 33, 34, 35, 36, 37, 38, 39, 40, 41, 42, 43, 44, 45, 46, 47, 48, 49, 50, 51, 52, 53, 54, 55, 56, 57, 58, 59, 60, 61, 62, 63, 64, 65, 66, 67, 68, 69, 70, 71, 72, 73, 74, 75, 76, 77, 78, 79, 80, 81, 82, 83, 84, 85, 86, 87, 88, 89, 90, 91, 92, 93, 94, 95, 96, 97, 98, 99, 100, 101, 102, 103, 104, 105, 106, 107, 108, 109, 110, 111, 112, 113, 114, 115, 116, 117, 118, 119, 120, 121, 122, 123, 124, 125, 126, 127, 128, 129, 130, 131, 132, 133, 134, 135, 136, 137, 138, 139, 140, 141, 142, 143, 144, 145, 146, 147, 148, 149, 150, 151, 152, 153, 154, 155, 156, 157, 158, 159, 160, 161, 162, 163, 164, 165, 166, 167, 168, 169, 170, 171, 172, 173, 174, 175, 176, 177, 178, 179, 180, 181, 182, 183, 184, 185, 186, 187, 188, 189, 190, 191, 192, 193, 194, 195, 196, 197, 198, 199, 200, 201, 202, 203, 204, 205, 206, 207, 208, 209, 210, 211, 212, 213, 214, 215, 216, 217, 218, 219, 220, 221, 222, 223, 224, 225, 226, 227, 228, 229, 230, 231, 232, 233, 234, 235, 236, 237, 238, 239, 240, 241, 242, 243, 244, 245, 246, 247, 248, 249, 250, 251, 252, 253, 254, 255, 256, 257, 258, 259, 260, 261, 262, 263, 264, 265, 266, 267, 268, 269, 270, 271, 272, 273, 274, 275, 276, 277, 278, 279, 280, 281, 282, 283, 284, 285, 286, 287, 288, 289, 290, 291, 292, 293, 294, 295, 296, 297, 298, 299, 300, 301, 302, 303, 304, 305, 306, 307, 308, 309, 310, 311, 312, 313, 314, 315, 316, 317, 318, 319, 320, 321, 322, 323, 324, 325, 326, 327, 328, 329, 330, 331, 332, 333, 334, 335, 336, 337, 338, 339, 340, 341, 342, 343, 344, 345, 346, 347, 348, 349, 350, 351, 352, 353, 354, 355, 356, 357, 358, 359, 360, 361, 362, 363, 364, 365, 366, 367, 368, 369, 370, 371, 372, 373, 374, 375, 376, 377, 378, 379, 380, 381, 382, 383, 384, 385, 386, 387, 388, 389, 390, 391, 392, 393, 394, 395, 396, 397, 398, 399, 400, 401, 402, 403, 404, 405, 406, 407, 408, 409, 410, 411, 412, 413, 414, 415, 416, 417, 418, 419, 420, 421, 422, 423, 424, 425, 426, 427, 428, 429, 430, 431, 432, 433, 434, 435, 436, 437, 438, 439, 440, 441, 442, 443, 444, 445, 446, 447, 448, 449, 450, 451, 452, 453, 454, 455, 456, 457, 458, 459, 460, 461, 462, 463, 464, 465, 466, 467, 468],
      "AcquisitionTime": ["151629.215000", "151630.705000", "151632.195000", "151633.685000", "151635.175000", "151636.665000", "151638.155000", "151639.645000", "151641.135000", "151642.625000", "151644.115000", "151645.605000", "151647.095000", "151648.585000", "151650.075000", "151651.565000", "151653.055000", "151654.545000", "151656.035000", "151657.525000", "151659.015000", "151700.505000", "151701.995000", "151703.485000", "151704.975000", "151706.465000", "151707.955000", "151709.445000", "151710.935000", "151712.425000", "151713.915000", "151715.405000", "151716.895000", "151718.385000", "151719.875000", "151721.365000", "151722.855000", "151724.345000", "151725.835000", "151727.325000", "151728.815000", "151730.305000", "151731.795000", "151733.285000", "151734.775000", "151736.265000", "151737.755000", "151739.245000", "151740.735000", "151742.225000", "151743.715000", "151745.205000", "151746.695000", "151748.185000", "151749.675000", "151751.165000", "151752.655000", "151754.145000", "151755.635000", "151757.125000", "151758.615000", "151800.105000", "151801.595000", "151803.085000", "151804.575000", "151806.065000", "151807.555000", "151809.045000", "151810.535000", "151812.025000", "151813.515000", "151815.005000", "151816.495000", "151817.985000", "151819.475000", "151820.965000", "151822.455000", "151823.945000", "151825.435000", "151826.925000", "151828.415000", "151829.905000", "151831.395000", "151832.885000", "151834.375000", "151835.865000", "151837.355000", "151838.845000", "151840.335000", "151841.825000", "151843.315000", "151844.805000", "151846.295000", "151847.785000", "151849.275000", "151850.765000", "151852.255000", "151853.745000", "151855.235000", "151856.725000", "151858.215000", "151859.705000", "151901.195000", "151902.685000", "151904.175000", "151905.665000", "151907.155000", "151908.645000", "151910.135000", "151911.625000", "151913.115000", "151914.605000", "151916.095000", "151917.585000", "151919.075000", "151920.565000", "151922.055000", "151923.545000", "151925.035000", "151926.525000", "151928.015000", "151929.505000", "151930.995000", "151932.485000", "151933.975000", "151935.465000", "151936.955000", "151938.445000", "151939.935000", "151941.425000", "151942.915000", "151944.405000", "151945.895000", "151947.385000", "151948.875000", "151950.365000", "151951.855000", "151953.345000", "151954.835000", "151956.325000", "151957.815000", "151959.305000", "152000.795000", "152002.285000", "152003.775000", "152005.265000", "152006.755000", "152008.245000", "152009.735000", "152011.225000", "152012.715000", "152014.205000", "152015.695000", "152017.185000", "152018.675000", "152020.165000", "152021.655000", "152023.145000", "152024.635000", "152026.125000", "152027.615000", "152029.105000", "152030.595000", "152032.085000", "152033.575000", "152035.065000", "152036.555000", "152038.045000", "152039.535000", "152041.025000", "152042.515000", "152044.005000", "152045.495000", "152046.985000", "152048.475000", "152049.965000", "152051.455000", "152052.945000", "152054.435000", "152055.925000", "152057.415000", "152058.905000", "152100.395000", "152101.885000", "152103.375000", "152104.865000", "152106.355000", "152107.845000", "152109.335000", "152110.825000", "152112.315000", "152113.805000", "152115.295000", "152116.785000", "152118.275000", "152119.765000", "152121.255000", "152122.745000", "152124.235000", "152125.725000", "152127.215000", "152128.705000", "152130.195000", "152131.685000", "152133.175000", "152134.665000", "152136.155000", "152137.645000", "152139.135000", "152140.625000", "152142.115000", "152143.605000", "152145.095000", "152146.585000", "152148.075000", "152149.565000", "152151.055000", "152152.545000", "152154.035000", "152155.525000", "152157.015000", "152158.505000", "152159.995000", "152201.485000", "152202.975000", "152204.465000", "152205.955000", "152207.445000", "152208.935000", "152210.425000", "152211.915000", "152213.405000", "152214.895000", "152216.385000", "152217.875000", "152219.365000", "152220.855000", "152222.345000", "152223.835000", "152225.325000", "152226.815000", "152228.305000", "152229.795000", "152231.285000", "152232.775000", "152234.265000", "152235.755000", "152237.245000", "152238.735000", "152240.225000", "152241.715000", "152243.205000", "152244.695000", "152246.185000", "152247.675000", "152249.165000", "152250.655000", "152252.145000", "152253.635000", "152255.125000", "152256.615000", "152258.105000", "152259.595000", "152301.085000", "152302.575000", "152304.065000", "152305.555000", "152307.045000", "152308.535000", "152310.025000", "152311.515000", "152313.005000", "152314.495000", "152315.985000", "152317.475000", "152318.965000", "152320.455000", "152321.945000", "152323.435000", "152324.925000", "152326.415000", "152327.905000", "152329.395000", "152330.885000", "152332.375000", "152333.865000", "152335.355000", "152336.845000", "152338.335000", "152339.825000", "152341.315000", "152342.805000", "152344.295000", "152345.785000", "152347.275000", "152348.765000", "152350.255000", "152351.745000", "152353.235000", "152354.725000", "152356.215000", "152357.705000", "152359.195000", "152400.685000", "152402.175000", "152403.665000", "152405.155000", "152406.645000", "152408.135000", "152409.625000", "152411.115000", "152412.605000", "152414.095000", "152415.585000", "152417.075000", "152418.565000", "152420.055000", "152421.545000", "152423.035000", "152424.525000", "152426.015000", "152427.505000", "152428.995000", "152430.485000", "152431.975000", "152433.465000", "152434.955000", "152436.445000", "152437.935000", "152439.425000", "152440.915000", "152442.405000", "152443.895000", "152445.385000", "152446.875000", "152448.365000", "152449.855000", "152451.345000", "152452.835000", "152454.325000", "152455.815000", "152457.305000", "152458.795000", "152500.285000", "152501.775000", "152503.265000", "152504.755000", "152506.245000", "152507.735000", "152509.225000", "152510.715000", "152512.205000", "152513.695000", "152515.185000", "152516.675000", "152518.165000", "152519.655000", "152521.145000", "152522.635000", "152524.125000", "152525.615000", "152527.105000", "152528.595000", "152530.085000", "152531.575000", "152533.065000", "152534.555000", "152536.045000", "152537.535000", "152539.025000", "152540.515000", "152542.005000", "152543.495000", "152544.985000", "152546.475000", "152547.965000", "152549.455000", "152550.945000", "152552.435000", "152553.925000", "152555.415000", "152556.905000", "152558.395000", "152559.885000", "152601.375000", "152602.865000", "152604.355000", "152605.845000", "152607.335000", "152608.825000", "152610.315000", "152611.805000", "152613.295000", "152614.785000", "152616.275000", "152617.765000", "152619.255000", "152620.745000", "152622.235000", "152623.725000", "152625.215000", "152626.705000", "152628.195000", "152629.685000", "152631.175000", "152632.665000", "152634.155000", "152635.645000", "152637.135000", "152638.625000", "152640.115000", "152641.605000", "152643.095000", "152644.585000", "152646.075000", "152647.565000", "152649.055000", "152650.545000", "152652.035000", "152653.525000", "152655.015000", "152656.505000", "152657.995000", "152659.485000", "152700.975000", "152702.465000", "152703.955000", "152705.445000", "152706.935000", "152708.425000", "152709.915000", "152711.405000", "152712.895000", "152714.385000", "152715.875000", "152717.365000", "152718.855000", "152720.345000", "152721.835000", "152723.325000", "152724.815000", "152726.305000", "152727.795000", "152729.285000", "152730.775000", "152732.265000", "152733.755000", "152735.245000", "152736.735000", "152738.225000", "152739.715000", "152741.205000", "152742.695000", "152744.185000", "152745.675000", "152747.165000", "152748.655000", "152750.145000", "152751.635000", "152753.125000", "152754.615000", "152756.105000", "152757.595000", "152759.085000", "152800.575000", "152802.065000", "152803.555000", "152805.045000"],
      "ContentTime": ["151758.930000", "151758.933000", "151758.936000", "151758.938000", "151758.941000", "151758.944000", "151758.947000", "151758.950000", "151758.953000", "151758.956000", "151758.959000", "151758.962000", "151758.964000", "151758.967000", "151758.970000", "151758.973000", "151758.976000", "151758.978000", "151758.981000", "151758.990000", "151758.993000", "151758.996000", "151759.000000", "151759.004000", "151759.007000", "151759.010000", "151759.013000", "151759.016000", "151759.019000", "151759.021000", "151759.024000", "151759.027000", "151759.030000", "151759.033000", "151759.036000", "151818.899000", "151818.902000", "151818.905000", "151818.908000", "151818.910000", "151818.913000", "151818.916000", "151818.919000", "151818.922000", "151818.925000", "151818.927000", "151818.943000", "151818.945000", "151818.948000", "151818.951000", "151818.954000", "151818.957000", "151818.960000", "151818.962000", "151818.965000", "151838.899000", "151838.902000", "151838.905000", "151838.907000", "151838.910000", "151838.913000", "151838.916000", "151838.919000", "151838.922000", "151838.924000", "151838.927000", "151838.930000", "151838.933000", "151838.936000", "151838.939000", "151838.941000", "151838.944000", "151838.947000", "151838.950000", "151838.953000", "151858.899000", "151858.902000", "151858.905000", "151858.907000", "151858.910000", "151858.913000", "151858.916000", "151858.919000", "151858.922000", "151858.924000", "151858.927000", "151858.930000", "151858.933000", "151858.936000", "151858.939000", "151858.942000", "151858.944000", "151858.947000", "151858.950000", "151858.953000", "151938.899000", "151938.902000", "151938.905000", "151938.907000", "151938.910000", "151938.913000", "151938.916000", "151938.919000", "151938.922000", "151938.924000", "151938.927000", "151938.930000", "151938.933000", "151938.936000", "151938.939000", "151938.942000", "151938.944000", "151938.947000", "151938.950000", "151938.953000", "151938.956000", "151938.959000", "151938.962000", "151938.969000", "151938.972000", "151938.975000", "151938.978000", "151938.981000", "151938.984000", "151938.987000", "151938.989000", "152018.899000", "152018.902000", "152018.905000", "152018.907000", "152018.910000", "152018.913000", "152018.916000", "152018.919000", "152018.922000", "152018.925000", "152018.927000", "152018.930000", "152018.933000", "152018.936000", "152018.939000", "152018.942000", "152018.944000", "152018.947000", "152018.950000", "152018.953000", "152018.956000", "152018.959000", "152018.961000", "152018.964000", "152018.967000", "152018.970000", "152018.973000", "152058.899000", "152058.902000", "152058.905000", "152058.908000", "152058.910000", "152058.913000", "152058.916000", "152058.919000", "152058.922000", "152058.925000", "152058.928000", "152058.930000", "152058.933000", "152058.936000", "152058.939000", "152058.942000", "152058.945000", "152058.947000", "152058.950000", "152058.953000", "152058.956000", "152058.959000", "152058.962000", "152058.964000", "152058.967000", "152058.970000", "152058.973000", "152138.899000", "152138.902000", "152138.905000", "152138.908000", "152138.910000", "152138.913000", "152138.916000", "152138.940000", "152138.943000", "152138.946000", "152138.949000", "152138.951000", "152138.954000", "152138.957000", "152138.960000", "152138.963000", "152138.966000", "152138.968000", "152138.971000", "152138.974000", "152138.977000", "152138.980000", "152138.983000", "152138.985000", "152138.988000", "152138.991000", "152138.994000", "152218.899000", "152218.902000", "152218.905000", "152218.908000", "152218.910000", "152218.913000", "152218.916000", "152218.919000", "152218.922000", "152218.925000", "152218.928000", "152218.930000", "152218.933000", "152218.936000", "152218.939000", "152218.942000", "152218.950000", "152218.953000", "152218.956000", "152218.959000", "152218.962000", "152218.965000", "152218.967000", "152218.970000", "152218.973000", "152218.976000", "152218.979000", "152258.899000", "152258.902000", "152258.905000", "152258.908000", "152258.911000", "152258.914000", "152258.917000", "152258.920000", "152258.923000", "152258.926000", "152258.929000", "152258.931000", "152258.934000", "152258.937000", "152258.940000", "152258.943000", "152258.951000", "152258.954000", "152258.957000", "152258.960000", "152258.963000", "152258.966000", "152258.969000", "152258.972000", "152258.974000", "152258.977000", "152338.899000", "152338.902000", "152338.905000", "152338.908000", "152338.911000", "152338.913000", "152338.916000", "152338.919000", "152338.922000", "152338.925000", "152338.928000", "152338.931000", "152338.933000", "152338.936000", "152338.939000", "152338.942000", "152338.945000", "152338.948000", "152338.951000", "152338.953000", "152338.956000", "152338.959000", "152338.962000", "152338.965000", "152338.968000", "152338.971000", "152338.973000", "152418.899000", "152418.902000", "152418.905000", "152418.908000", "152418.911000", "152418.914000", "152418.917000", "152418.920000", "152418.923000", "152418.925000", "152418.928000", "152418.931000", "152418.935000", "152418.938000", "152418.941000", "152418.944000", "152418.946000", "152418.949000", "152418.952000", "152418.955000", "152418.958000", "152418.961000", "152418.964000", "152418.966000", "152418.969000", "152418.972000", "152418.975000", "152458.899000", "152458.902000", "152458.905000", "152458.908000", "152458.910000", "152458.913000", "152458.916000", "152458.919000", "152458.922000", "152458.925000", "152458.928000", "152458.930000", "152458.933000", "152458.936000", "152458.939000", "152458.942000", "152458.945000", "152458.947000", "152458.950000", "152458.953000", "152458.956000", "152458.959000", "152458.962000", "152458.965000", "152458.968000", "152458.970000", "152458.973000", "152538.899000", "152538.902000", "152538.905000", "152538.908000", "152538.910000", "152538.913000", "152538.916000", "152538.919000", "152538.922000", "152538.925000", "152538.928000", "152538.931000", "152538.933000", "152538.936000", "152538.939000", "152538.942000", "152538.945000", "152538.948000", "152538.951000", "152538.954000", "152538.956000", "152538.959000", "152538.962000", "152538.965000", "152538.968000", "152538.971000", "152538.973000", "152558.899000", "152558.902000", "152558.905000", "152558.908000", "152558.911000", "152558.914000", "152558.916000", "152558.931000", "152558.934000", "152558.937000", "152558.940000", "152558.943000", "152558.945000", "152638.899000", "152638.902000", "152638.905000", "152638.908000", "152638.911000", "152638.913000", "152638.916000", "152638.919000", "152638.922000", "152638.925000", "152638.928000", "152638.931000", "152638.934000", "152638.937000", "152638.939000", "152638.942000", "152638.945000", "152638.948000", "152638.951000", "152638.954000", "152638.957000", "152638.969000", "152638.972000", "152638.975000", "152638.978000", "152638.981000", "152638.983000", "152718.899000", "152718.902000", "152718.905000", "152718.908000", "152718.911000", "152718.913000", "152718.916000", "152718.919000", "152718.922000", "152718.925000", "152718.928000", "152718.931000", "152718.934000", "152718.936000", "152718.939000", "152718.942000", "152718.945000", "152718.948000", "152718.951000", "152718.953000", "152718.962000", "152718.965000", "152718.968000", "152718.970000", "152718.973000", "152718.976000", "152718.979000", "152758.899000", "152758.902000", "152758.905000", "152758.908000", "152758.910000", "152758.913000", "152758.916000", "152758.919000", "152758.922000", "152758.925000", "152758.928000", "152758.931000", "152758.933000", "152758.936000", "152758.939000", "152758.942000", "152758.945000", "152758.948000", "152758.951000", "152758.953000", "152758.956000", "152758.959000", "152758.962000", "152758.965000", "152758.968000", "152758.971000", "152758.973000", "152807.530000", "152807.533000", "152807.536000", "152807.539000", "152807.542000", "152807.545000"],
