{
  "AcquisitionMatrixPE": 104,
  "AcquisitionNumber": 1,
  "AcquisitionTime": "15:03:33.510000",
  "BandwidthPerPixelPhaseEncode": 17.17,
  "BaseResolution": 104,
  "BodyPartExamined": "BRAIN",
  "CoilString": "HC1-7;NC1_2",
  "ConsistencyInfo": "N4_VE11C_LATEST_20160120",
  "ConversionSoftware": "dcm2niix",
  "ConversionSoftwareVersion": "v1.0.20190720  (JP2:OpenJPEG) GCC7.3.0",
  "DerivedVendorReportedEchoSpacing": 0.000560011,
  "DeviceSerialNumber": "167006",
  "DwellTime": 2.1e-06,
  "EchoTime": 0.037,
  "EchoTrainLength": 104,
  "EffectiveEchoSpacing": 0.000560011,
  "FlipAngle": 52,
  "ImageComments": "Unaliased_MB4_PE3_LB",
  "ImageOrientationPatientDICOM": [0.999141, -0.0405537, 0.00850625, 0.0411778, 0.948867, -0.31298],
  "ImageType": [
    "ORIGINAL",
    "PRIMARY",
    "M",
    "MB",
    "ND",
    "MOSAIC"
],
  "ImagingFrequency": 123.259,
  "InPlanePhaseEncodingDirectionDICOM": "COL",
  "InstitutionAddress": "Chemin_Queen-Mary_4565_Montreal_District_CA_H3W_1W5",
  "InstitutionName": "IUGM",
  "InstitutionalDepartmentName": "Department",
  "MRAcquisitionType": "2D",
  "MagneticFieldStrength": 3,
  "Manufacturer": "Siemens",
  "ManufacturersModelName": "Prisma_fit",
  "Modality": "MR",
  "MultibandAccelerationFactor": 4,
  "PartialFourier": 1,
  "PatientPosition": "HFS",
  "PercentPhaseFOV": 100,
  "PhaseEncodingDirection": "j",
  "PhaseEncodingSteps": 104,
  "PhaseResolution": 1,
  "PixelBandwidth": 2290,
  "ProcedureStepDescription": "video_friends",
  "ProtocolName": "func_task-s01e03b",
  "PulseSequenceDetails": "%CustomerSeq%_cmrr_mbep2d_bold",
  "ReceiveCoilActiveElements": "HC1-7;NC1,2",
  "ReceiveCoilName": "HeadNeck_64",
  "ReconMatrixPE": 104,
  "RepetitionTime": 1.49,
  "SAR": 0.032789,
  "ScanOptions": "FS",
  "ScanningSequence": "EP",
  "SequenceName": "epfid2d1_104",
  "SequenceVariant": "SK_SS",
  "SeriesDescription": "func_task-s01e03b",
  "SeriesNumber": 10,
  "ShimSetting": [622, -7208, -8791, 686, 4, -1, -13, 10],
  "SliceThickness": 2,
  "SliceTiming": [0, 0.7825, 0.0975, 0.8825, 0.195, 0.98, 0.2925, 1.0775, 0.3925, 1.175, 0.49, 1.2725, 0.5875, 1.3725, 0.685, 0, 0.7825, 0.0975, 0.8825, 0.195, 0.98, 0.2925, 1.0775, 0.3925, 1.175, 0.49, 1.2725, 0.5875, 1.3725, 0.685, 0, 0.7825, 0.0975, 0.8825, 0.195, 0.98, 0.2925, 1.0775, 0.3925, 1.175, 0.49, 1.2725, 0.5875, 1.3725, 0.685, 0, 0.7825, 0.0975, 0.8825, 0.195, 0.98, 0.2925, 1.0775, 0.3925, 1.175, 0.49, 1.2725, 0.5875, 1.3725, 0.685],
  "SoftwareVersions": "syngo_MR_E11",
  "SpacingBetweenSlices": 2,
  "StationName": "MRC35049",
  "TaskName": "friends",
  "TotalReadoutTime": 0.0576811,
  "TxRefAmp": 211.896,
  "WipMemBlock": "c8210ca9-a7c4-449b-8f89-8a257b4f8aa7||Sequence: R016 ve11c/master r/e634e98; Dec 19 2017 11:00:25 by eja",
  "dcmmeta_affine": [
    [-1.9982823133468628, 0.08235550671815872, -0.009242396801710129, 100.47441864013672],
    [0.0811074897646904, 1.897733449935913, -0.6261222958564758, -83.40318298339844],
    [0.01701250672340393, 0.6259593963623047, 1.8994433879852295, -62.748512268066406],
    [0.0, 0.0, 0.0, 1.0]
],
  "dcmmeta_reorient_transform": [
    [0.0, -1.0, 0.0, 103.0],
    [1.0, 0.0, 0.0, 0.0],
    [0.0, 0.0, 1.0, 0.0],
    [0.0, 0.0, 0.0, 1.0]
],
  "dcmmeta_shape": [104, 104, 60, 503],
  "dcmmeta_slice_dim": 2,
  "dcmmeta_version": 0.6,
  "global": {
    "const": {
      "AcquisitionMatrix": [104, 0, 0, 104],
      "AngioFlag": "N",
      "BitsAllocated": 16,
      "BitsStored": 16,
      "BodyPartExamined": "BRAIN",
      "Columns": 832,
      "EchoNumbers": 1,
      "EchoTime": 37.0,
      "EchoTrainLength": 104,
      "FlipAngle": 52.0,
      "HighBit": 15,
      "ImageOrientationPatient": [0.99914114984187, -0.0405537464282, 0.00850625318811, 0.04117775150273, 0.94886674750986, -0.3129796930333],
      "ImagePositionPatient": [-866.30919740966, -773.31523472526, 223.38196817438],
      "ImageType": [
        "ORIGINAL",
        "PRIMARY",
        "M",
        "MB",
        "ND",
        "MOSAIC"
],
      "ImagedNucleus": "1H",
      "ImagingFrequency": 123.259166,
      "InPlanePhaseEncodingDirection": "COL",
      "MRAcquisitionType": "2D",
      "MagneticFieldStrength": 3.0,
      "Manufacturer": "SIEMENS",
      "ManufacturerModelName": "Prisma_fit",
      "Modality": "MR",
      "NumberOfAverages": 1.0,
      "NumberOfPhaseEncodingSteps": 104,
      "PercentPhaseFieldOfView": 100.0,
      "PercentSampling": 100.0,
      "PerformedProcedureStepStartTime": "144605.065000",
      "PhotometricInterpretation": "MONOCHROME2",
      "PixelBandwidth": 2290.0,
      "PixelRepresentation": 0,
      "PixelSpacing": [2.0, 2.0],
      "ProtocolName": "func_task-s01e03b",
      "RepetitionTime": 1490.0,
      "Rows": 832,
      "SAR": 0.03278902671218,
      "SamplesPerPixel": 1,
      "ScanOptions": "FS",
      "ScanningSequence": "EP",
      "SequenceName": "epfid2d1_104",
      "SequenceVariant": [
        "SK",
        "SS"
],
      "SeriesDescription": "func_task-s01e03b",
      "SeriesNumber": 10,
      "SeriesTime": "150458.866000",
      "SliceLocation": -33.947641863073,
      "SliceThickness": 2.0,
      "SmallestImagePixelValue": 0,
      "SoftwareVersions": "syngo MR E11",
      "SpacingBetweenSlices": 1.9999999710813,
      "SpecificCharacterSet": "ISO_IR 100",
      "StudyID": "1",
      "StudyTime": "144604.979000",
      "TransmitCoilName": "Body",
      "VariableFlipAngleFlag": "N",
      "WindowCenterWidthExplanation": "Algo1",
      "dBdt": 0.0},
    "slices": {}
  },
  "time": {
    "samples": {
      "AcquisitionNumber": [1, 2, 3, 4, 5, 6, 7, 8, 9, 10, 11, 12, 13, 14, 15, 16, 17, 18, 19, 20, 21, 22, 23, 24, 25, 26, 27, 28, 29, 30, 31, 32, 33, 34, 35, 36, 37, 38, 39, 40, 41, 42, 43, 44, 45, 46, 47, 48, 49, 50, 51, 52, 53, 54, 55, 56, 57, 58, 59, 60, 61, 62, 63, 64, 65, 66, 67, 68, 69, 70, 71, 72, 73, 74, 75, 76, 77, 78, 79, 80, 81, 82, 83, 84, 85, 86, 87, 88, 89, 90, 91, 92, 93, 94, 95, 96, 97, 98, 99, 100, 101, 102, 103, 104, 105, 106, 107, 108, 109, 110, 111, 112, 113, 114, 115, 116, 117, 118, 119, 120, 121, 122, 123, 124, 125, 126, 127, 128, 129, 130, 131, 132, 133, 134, 135, 136, 137, 138, 139, 140, 141, 142, 143, 144, 145, 146, 147, 148, 149, 150, 151, 152, 153, 154, 155, 156, 157, 158, 159, 160, 161, 162, 163, 164, 165, 166, 167, 168, 169, 170, 171, 172, 173, 174, 175, 176, 177, 178, 179, 180, 181, 182, 183, 184, 185, 186, 187, 188, 189, 190, 191, 192, 193, 194, 195, 196, 197, 198, 199, 200, 201, 202, 203, 204, 205, 206, 207, 208, 209, 210, 211, 212, 213, 214, 215, 216, 217, 218, 219, 220, 221, 222, 223, 224, 225, 226, 227, 228, 229, 230, 231, 232, 233, 234, 235, 236, 237, 238, 239, 240, 241, 242, 243, 244, 245, 246, 247, 248, 249, 250, 251, 252, 253, 254, 255, 256, 257, 258, 259, 260, 261, 262, 263, 264, 265, 266, 267, 268, 269, 270, 271, 272, 273, 274, 275, 276, 277, 278, 279, 280, 281, 282, 283, 284, 285, 286, 287, 288, 289, 290, 291, 292, 293, 294, 295, 296, 297, 298, 299, 300, 301, 302, 303, 304, 305, 306, 307, 308, 309, 310, 311, 312, 313, 314, 315, 316, 317, 318, 319, 320, 321, 322, 323, 324, 325, 326, 327, 328, 329, 330, 331, 332, 333, 334, 335, 336, 337, 338, 339, 340, 341, 342, 343, 344, 345, 346, 347, 348, 349, 350, 351, 352, 353, 354, 355, 356, 357, 358, 359, 360, 361, 362, 363, 364, 365, 366, 367, 368, 369, 370, 371, 372, 373, 374, 375, 376, 377, 378, 379, 380, 381, 382, 383, 384, 385, 386, 387, 388, 389, 390, 391, 392, 393, 394, 395, 396, 397, 398, 399, 400, 401, 402, 403, 404, 405, 406, 407, 408, 409, 410, 411, 412, 413, 414, 415, 416, 417, 418, 419, 420, 421, 422, 423, 424, 425, 426, 427, 428, 429, 430, 431, 432, 433, 434, 435, 436, 437, 438, 439, 440, 441, 442, 443, 444, 445, 446, 447, 448, 449, 450, 451, 452, 453, 454, 455, 456, 457, 458, 459, 460, 461, 462, 463, 464, 465, 466, 467, 468, 469, 470, 471, 472, 473, 474, 475, 476, 477, 478, 479, 480, 481, 482, 483, 484, 485, 486, 487, 488, 489, 490, 491, 492, 493, 494, 495, 496, 497, 498, 499, 500, 501, 502, 503],
      "AcquisitionTime": ["150333.510000", "150335.000000", "150336.490000", "150337.980000", "150339.470000", "150340.960000", "150342.450000", "150343.940000", "150345.430000", "150346.920000", "150348.410000", "150349.900000", "150351.390000", "150352.880000", "150354.370000", "150355.860000", "150357.350000", "150358.840000", "150400.330000", "150401.820000", "150403.310000", "150404.800000", "150406.290000", "150407.780000", "150409.270000", "150410.760000", "150412.250000", "150413.740000", "150415.230000", "150416.720000", "150418.210000", "150419.700000", "150421.190000", "150422.680000", "150424.170000", "150425.660000", "150427.150000", "150428.640000", "150430.130000", "150431.620000", "150433.110000", "150434.600000", "150436.090000", "150437.580000", "150439.070000", "150440.560000", "150442.050000", "150443.540000", "150445.030000", "150446.520000", "150448.010000", "150449.500000", "150450.990000", "150452.480000", "150453.970000", "150455.460000", "150456.950000", "150458.440000", "150459.930000", "150501.420000", "150502.910000", "150504.400000", "150505.890000", "150507.380000", "150508.870000", "150510.360000", "150511.850000", "150513.340000", "150514.830000", "150516.320000", "150517.810000", "150519.300000", "150520.790000", "150522.280000", "150523.770000", "150525.260000", "150526.750000", "150528.240000", "150529.730000", "150531.220000", "150532.710000", "150534.200000", "150535.690000", "150537.180000", "150538.670000", "150540.160000", "150541.650000", "150543.140000", "150544.630000", "150546.120000", "150547.610000", "150549.100000", "150550.590000", "150552.080000", "150553.570000", "150555.060000", "150556.550000", "150558.040000", "150559.530000", "150601.020000", "150602.510000", "150604.000000", "150605.490000", "150606.980000", "150608.470000", "150609.960000", "150611.450000", "150612.940000", "150614.430000", "150615.920000", "150617.410000", "150618.900000", "150620.390000", "150621.880000", "150623.370000", "150624.860000", "150626.350000", "150627.840000", "150629.330000", "150630.820000", "150632.310000", "150633.800000", "150635.290000", "150636.780000", "150638.270000", "150639.760000", "150641.250000", "150642.740000", "150644.230000", "150645.720000", "150647.210000", "150648.700000", "150650.190000", "150651.680000", "150653.170000", "150654.660000", "150656.150000", "150657.640000", "150659.130000", "150700.620000", "150702.110000", "150703.600000", "150705.090000", "150706.580000", "150708.070000", "150709.560000", "150711.050000", "150712.540000", "150714.030000", "150715.520000", "150717.010000", "150718.500000", "150719.990000", "150721.480000", "150722.970000", "150724.460000", "150725.950000", "150727.440000", "150728.930000", "150730.420000", "150731.910000", "150733.400000", "150734.890000", "150736.380000", "150737.870000", "150739.360000", "150740.850000", "150742.340000", "150743.830000", "150745.320000", "150746.810000", "150748.300000", "150749.790000", "150751.280000", "150752.770000", "150754.260000", "150755.750000", "150757.240000", "150758.730000", "150800.220000", "150801.710000", "150803.200000", "150804.690000", "150806.180000", "150807.670000", "150809.160000", "150810.650000", "150812.140000", "150813.630000", "150815.120000", "150816.610000", "150818.100000", "150819.590000", "150821.080000", "150822.570000", "150824.060000", "150825.550000", "150827.040000", "150828.530000", "150830.020000", "150831.510000", "150833.000000", "150834.490000", "150835.980000", "150837.470000", "150838.960000", "150840.450000", "150841.940000", "150843.430000", "150844.920000", "150846.410000", "150847.900000", "150849.390000", "150850.880000", "150852.370000", "150853.860000", "150855.350000", "150856.840000", "150858.330000", "150859.820000", "150901.310000", "150902.800000", "150904.290000", "150905.780000", "150907.270000", "150908.760000", "150910.250000", "150911.740000", "150913.230000", "150914.720000", "150916.210000", "150917.700000", "150919.190000", "150920.680000", "150922.170000", "150923.660000", "150925.150000", "150926.640000", "150928.130000", "150929.620000", "150931.110000", "150932.600000", "150934.090000", "150935.580000", "150937.070000", "150938.560000", "150940.050000", "150941.540000", "150943.030000", "150944.520000", "150946.010000", "150947.500000", "150948.990000", "150950.480000", "150951.970000", "150953.460000", "150954.950000", "150956.440000", "150957.930000", "150959.420000", "151000.910000", "151002.400000", "151003.890000", "151005.380000", "151006.870000", "151008.360000", "151009.850000", "151011.340000", "151012.830000", "151014.320000", "151015.810000", "151017.300000", "151018.790000", "151020.280000", "151021.770000", "151023.260000", "151024.750000", "151026.240000", "151027.730000", "151029.220000", "151030.710000", "151032.200000", "151033.690000", "151035.180000", "151036.670000", "151038.160000", "151039.650000", "151041.140000", "151042.630000", "151044.120000", "151045.610000", "151047.100000", "151048.590000", "151050.080000", "151051.570000", "151053.060000", "151054.550000", "151056.040000", "151057.530000", "151059.020000", "151100.510000", "151102.000000", "151103.490000", "151104.980000", "151106.470000", "151107.960000", "151109.450000", "151110.940000", "151112.430000", "151113.920000", "151115.410000", "151116.900000", "151118.390000", "151119.880000", "151121.370000", "151122.860000", "151124.350000", "151125.840000", "151127.330000", "151128.820000", "151130.310000", "151131.800000", "151133.290000", "151134.780000", "151136.270000", "151137.760000", "151139.250000", "151140.740000", "151142.230000", "151143.720000", "151145.210000", "151146.700000", "151148.190000", "151149.680000", "151151.170000", "151152.660000", "151154.150000", "151155.640000", "151157.130000", "151158.620000", "151200.110000", "151201.600000", "151203.090000", "151204.580000", "151206.070000", "151207.560000", "151209.050000", "151210.540000", "151212.030000", "151213.520000", "151215.010000", "151216.500000", "151217.990000", "151219.480000", "151220.970000", "151222.460000", "151223.950000", "151225.440000", "151226.930000", "151228.420000", "151229.910000", "151231.400000", "151232.890000", "151234.380000", "151235.870000", "151237.360000", "151238.850000", "151240.340000", "151241.830000", "151243.320000", "151244.810000", "151246.300000", "151247.790000", "151249.280000", "151250.770000", "151252.260000", "151253.750000", "151255.240000", "151256.730000", "151258.220000", "151259.710000", "151301.200000", "151302.690000", "151304.180000", "151305.670000", "151307.160000", "151308.650000", "151310.140000", "151311.630000", "151313.120000", "151314.610000", "151316.100000", "151317.590000", "151319.080000", "151320.570000", "151322.060000", "151323.550000", "151325.040000", "151326.530000", "151328.020000", "151329.510000", "151331.000000", "151332.490000", "151333.980000", "151335.470000", "151336.960000", "151338.450000", "151339.940000", "151341.430000", "151342.920000", "151344.410000", "151345.900000", "151347.390000", "151348.880000", "151350.370000", "151351.860000", "151353.350000", "151354.840000", "151356.330000", "151357.820000", "151359.310000", "151400.800000", "151402.290000", "151403.780000", "151405.270000", "151406.760000", "151408.250000", "151409.740000", "151411.230000", "151412.720000", "151414.210000", "151415.700000", "151417.190000", "151418.680000", "151420.170000", "151421.660000", "151423.150000", "151424.640000", "151426.130000", "151427.620000", "151429.110000", "151430.600000", "151432.090000", "151433.580000", "151435.070000", "151436.560000", "151438.050000", "151439.540000", "151441.030000", "151442.520000", "151444.010000", "151445.500000", "151446.990000", "151448.480000", "151449.970000", "151451.460000", "151452.950000", "151454.440000", "151455.930000", "151457.420000", "151458.910000", "151500.400000", "151501.890000", "151503.380000", "151504.870000", "151506.360000", "151507.850000", "151509.340000", "151510.830000", "151512.320000", "151513.810000", "151515.300000", "151516.790000", "151518.280000", "151519.770000", "151521.260000", "151522.750000", "151524.240000", "151525.730000", "151527.220000", "151528.710000", "151530.200000", "151531.690000", "151533.180000", "151534.670000", "151536.160000", "151537.650000", "151539.140000", "151540.630000", "151542.120000", "151543.610000", "151545.100000", "151546.590000", "151548.080000", "151549.570000", "151551.060000", "151552.550000", "151554.040000", "151555.530000", "151557.020000", "151558.510000", "151600.000000", "151601.490000"],
      "ContentTime": ["150458.869000", "150458.872000", "150458.875000", "150458.878000", "150458.881000", "150458.889000", "150458.892000", "150458.895000", "150458.898000", "150458.901000", "150458.904000", "150458.907000", "150458.910000", "150458.913000", "150458.916000", "150458.918000", "150458.921000", "150458.934000", "150458.937000", "150458.940000", "150458.943000", "150458.946000", "150458.949000", "150458.952000", "150458.955000", "150458.958000", "150458.963000", "150458.966000", "150458.969000", "150458.972000", "150458.974000", "150458.977000", "150518.829000", "150518.832000", "150518.835000", "150518.838000", "150518.840000", "150518.843000", "150518.856000", "150518.859000", "150518.862000", "150518.865000", "150518.868000", "150518.870000", "150518.873000", "150518.876000", "150518.879000", "150518.882000", "150518.885000", "150518.887000", "150518.890000", "150518.893000", "150538.829000", "150538.832000", "150538.835000", "150538.838000", "150538.840000", "150538.843000", "150538.846000", "150538.849000", "150538.852000", "150538.855000", "150538.857000", "150538.860000", "150538.863000", "150538.866000", "150538.869000", "150538.872000", "150538.875000", "150538.878000", "150538.880000", "150538.883000", "150538.886000", "150558.829000", "150558.832000", "150558.835000", "150558.838000", "150558.840000", "150558.843000", "150558.846000", "150558.849000", "150558.852000", "150558.855000", "150558.858000", "150558.860000", "150558.863000", "150558.866000", "150558.869000", "150558.872000", "150558.875000", "150558.878000", "150558.880000", "150558.883000", "150638.830000", "150638.833000", "150638.836000", "150638.839000", "150638.842000", "150638.844000", "150638.847000", "150638.850000", "150638.854000", "150638.857000", "150638.860000", "150638.863000", "150638.866000", "150638.869000", "150638.872000", "150638.875000", "150638.878000", "150638.881000", "150638.883000", "150638.886000", "150638.889000", "150638.892000", "150638.895000", "150638.898000", "150638.901000", "150638.903000", "150638.906000", "150638.909000", "150638.912000", "150638.915000", "150718.829000", "150718.832000", "150718.835000", "150718.838000", "150718.841000", "150718.843000", "150718.846000", "150718.849000", "150718.852000", "150718.855000", "150718.858000", "150718.861000", "150718.864000", "150718.866000", "150718.869000", "150718.872000", "150718.875000", "150718.878000", "150718.881000", "150718.883000", "150718.886000", "150718.889000", "150718.892000", "150718.895000", "150718.898000", "150718.901000", "150718.904000", "150758.829000", "150758.832000", "150758.835000", "150758.837000", "150758.840000", "150758.843000", "150758.846000", "150758.849000", "150758.852000", "150758.855000", "150758.858000", "150758.860000", "150758.863000", "150758.866000", "150758.869000", "150758.872000", "150758.875000", "150758.877000", "150758.880000", "150758.883000", "150758.886000", "150758.889000", "150758.892000", "150758.894000", "150758.897000", "150758.900000", "150758.903000", "150838.829000", "150838.832000", "150838.835000", "150838.838000", "150838.840000", "150838.843000", "150838.846000", "150838.849000", "150838.852000", "150838.855000", "150838.858000", "150838.861000", "150838.864000", "150838.866000", "150838.869000", "150838.872000", "150838.875000", "150838.878000", "150838.881000", "150838.884000", "150838.886000", "150838.889000", "150838.892000", "150838.895000", "150838.898000", "150838.901000", "150838.904000", "150918.829000", "150918.832000", "150918.835000", "150918.838000", "150918.841000", "150918.844000", "150918.847000", "150918.857000", "150918.860000", "150918.863000", "150918.866000", "150918.869000", "150918.872000", "150918.875000", "150918.878000", "150918.886000", "150918.889000", "150918.892000", "150918.895000", "150918.898000", "150918.901000", "150918.904000", "150918.906000", "150918.910000", "150918.912000", "150918.915000", "150918.918000", "150958.829000", "150958.832000", "150958.835000", "150958.838000", "150958.841000", "150958.843000", "150958.846000", "150958.849000", "150958.852000", "150958.855000", "150958.858000", "150958.860000", "150958.863000", "150958.866000", "150958.869000", "150958.872000", "150958.875000", "150958.878000", "150958.881000", "150958.883000", "150958.886000", "150958.889000", "150958.892000", "150958.895000", "150958.898000", "150958.901000", "150958.903000", "151038.829000", "151038.832000", "151038.835000", "151038.838000", "151038.841000", "151038.843000", "151038.846000", "151038.849000", "151038.852000", "151038.855000", "151038.858000", "151038.861000", "151038.864000", "151038.866000", "151038.869000", "151038.872000", "151038.875000", "151038.878000", "151038.881000", "151038.884000", "151038.887000", "151038.890000", "151038.892000", "151038.895000", "151038.898000", "151038.901000", "151038.904000", "151118.830000", "151118.833000", "151118.836000", "151118.839000", "151118.843000", "151118.845000", "151118.848000", "151118.851000", "151118.854000", "151118.857000", "151118.860000", "151118.863000", "151118.865000", "151118.868000", "151118.871000", "151118.874000", "151118.877000", "151118.880000", "151118.883000", "151118.885000", "151118.888000", "151118.891000", "151118.894000", "151118.897000", "151118.900000", "151118.903000", "151158.829000", "151158.832000", "151158.835000", "151158.838000", "151158.841000", "151158.844000", "151158.846000", "151158.849000", "151158.852000", "151158.855000", "151158.858000", "151158.861000", "151158.864000", "151158.867000", "151158.869000", "151158.886000", "151158.889000", "151158.892000", "151158.895000", "151158.898000", "151158.901000", "151158.904000", "151158.906000", "151158.909000", "151158.912000", "151158.915000", "151158.918000", "151238.829000", "151238.832000", "151238.835000", "151238.838000", "151238.841000", "151238.843000", "151238.846000", "151238.849000", "151238.852000", "151238.855000", "151238.858000", "151238.861000", "151238.864000", "151238.867000", "151238.870000", "151238.873000", "151238.876000", "151238.878000", "151238.881000", "151238.884000", "151238.887000", "151238.890000", "151238.893000", "151238.896000", "151238.898000", "151238.901000", "151238.904000", "151318.829000", "151318.832000", "151318.835000", "151318.838000", "151318.841000", "151318.844000", "151318.846000", "151318.849000", "151318.852000", "151318.855000", "151318.858000", "151318.861000", "151318.863000", "151318.867000", "151318.869000", "151318.872000", "151318.875000", "151318.878000", "151318.881000", "151318.884000", "151318.886000", "151318.889000", "151318.892000", "151318.895000", "151318.898000", "151318.901000", "151318.903000", "151358.829000", "151358.832000", "151358.835000", "151358.838000", "151358.841000", "151358.843000", "151358.846000", "151358.849000", "151358.852000", "151358.855000", "151358.858000", "151358.861000", "151358.863000", "151358.866000", "151358.869000", "151358.872000", "151358.875000", "151358.878000", "151358.881000", "151358.884000", "151358.886000", "151358.889000", "151358.892000", "151358.895000", "151358.898000", "151358.901000", "151358.904000", "151438.829000", "151438.832000", "151438.835000", "151438.838000", "151438.840000", "151438.843000", "151438.846000", "151438.849000", "151438.852000", "151438.855000", "151438.858000", "151438.861000", "151438.864000", "151438.866000", "151438.869000", "151438.872000", "151438.875000", "151438.878000", "151438.881000", "151438.883000", "151438.886000", "151438.889000", "151438.892000", "151438.895000", "151438.898000", "151438.901000", "151438.904000", "151518.829000", "151518.832000", "151518.835000", "151518.838000", "151518.841000", "151518.844000", "151518.847000", "151518.849000", "151518.852000", "151518.856000", "151518.859000", "151518.862000", "151518.865000", "151518.868000", "151518.871000", "151518.873000", "151518.876000", "151518.879000", "151518.882000", "151518.885000", "151518.888000", "151518.890000", "151518.893000", "151518.896000", "151518.899000", "151518.902000", "151558.829000", "151558.832000", "151558.835000", "151558.838000", "151558.841000", "151558.844000", "151558.846000", "151558.849000", "151558.852000", "151558.855000", "151558.858000", "151558.861000", "151558.864000", "151558.867000", "151558.870000", "151558.872000", "151558.875000", "151558.878000", "151558.881000", "151558.884000", "151558.887000", "151558.890000", "151558.892000", "151558.895000", "151558.898000", "151558.901000", "151558.904000", "151603.598000", "151603.601000", "151603.604000", "151603.607000"],
