{
  "AcquisitionMatrixPE": 104,
  "AcquisitionNumber": 1,
  "AcquisitionTime": "18:41:22.420000",
  "BandwidthPerPixelPhaseEncode": 17.17,
  "BaseResolution": 104,
  "BodyPartExamined": "BRAIN",
  "CoilString": "HC1-7;NC1_2",
  "ConsistencyInfo": "N4_VE11C_LATEST_20160120",
  "ConversionSoftware": "dcm2niix",
  "ConversionSoftwareVersion": "v1.0.20190902",
  "DerivedVendorReportedEchoSpacing": 0.000560011,
  "DeviceSerialNumber": "167006",
  "DwellTime": 2.1e-06,
  "EchoTime": 0.037,
  "EchoTrainLength": 104,
  "EffectiveEchoSpacing": 0.000560011,
  "FlipAngle": 52,
  "ImageComments": "Unaliased_MB4_PE3_LB",
  "ImageOrientationPatientDICOM": [0.999522, -0.0307155, -0.00352559, 0.0273954, 0.932746, -0.359493],
  "ImageType": [
    "ORIGINAL",
    "PRIMARY",
    "M",
    "MB",
    "ND",
    "MOSAIC"
],
  "ImagingFrequency": 123.259,
  "InPlanePhaseEncodingDirectionDICOM": "COL",
  "InstitutionAddress": "Chemin_Queen-Mary_4565_Montreal_District_CA_H3W_1W5",
  "InstitutionName": "IUGM",
  "InstitutionalDepartmentName": "Department",
  "MRAcquisitionType": "2D",
  "MagneticFieldStrength": 3,
  "Manufacturer": "Siemens",
  "ManufacturersModelName": "Prisma_fit",
  "Modality": "MR",
  "MultibandAccelerationFactor": 4,
  "PartialFourier": 1,
  "PatientPosition": "HFS",
  "PercentPhaseFOV": 100,
  "PhaseEncodingDirection": "j",
  "PhaseEncodingSteps": 104,
  "PhaseResolution": 1,
  "PixelBandwidth": 2290,
  "ProcedureStepDescription": "video_friends",
  "ProtocolName": "func_task-friends-s04e11b",
  "PulseSequenceDetails": "%CustomerSeq%_cmrr_mbep2d_bold",
  "ReceiveCoilActiveElements": "HC1-7;NC1,2",
  "ReceiveCoilName": "HeadNeck_64",
  "ReconMatrixPE": 104,
  "RepetitionTime": 1.49,
  "SAR": 0.0356379,
  "ScanOptions": "FS",
  "ScanningSequence": "EP",
  "SequenceName": "epfid2d1_104",
  "SequenceVariant": "SK_SS",
  "SeriesDescription": "func_task-friends-s04e11b",
  "SeriesNumber": 11,
  "ShimSetting": [623, -7294, -8815, 455, 21, -444, 27, 30],
  "SliceThickness": 2,
  "SliceTiming": [0, 0.7825, 0.0975, 0.88, 0.195, 0.98, 0.2925, 1.0775, 0.39, 1.175, 0.49, 1.2725, 0.5875, 1.37, 0.685, 0, 0.7825, 0.0975, 0.88, 0.195, 0.98, 0.2925, 1.0775, 0.39, 1.175, 0.49, 1.2725, 0.5875, 1.37, 0.685, 0, 0.7825, 0.0975, 0.88, 0.195, 0.98, 0.2925, 1.0775, 0.39, 1.175, 0.49, 1.2725, 0.5875, 1.37, 0.685, 0, 0.7825, 0.0975, 0.88, 0.195, 0.98, 0.2925, 1.0775, 0.39, 1.175, 0.49, 1.2725, 0.5875, 1.37, 0.685],
  "SoftwareVersions": "syngo_MR_E11",
  "SpacingBetweenSlices": 2,
  "StationName": "MRC35049",
  "TaskName": "s04e11b",
  "TotalReadoutTime": 0.0576811,
  "TxRefAmp": 236.264,
  "WipMemBlock": "c85b05d3-88cc-48e0-8722-b87f20f0cd8d||Sequence: R016 ve11c/master r/e634e98; Dec 19 2017 11:00:25 by eja",
  "dcmmeta_affine": [
    [-1.9990439414978027, 0.05479087308049202, -0.02866096794605255, 98.12661743164062],
    [0.06143103167414665, 1.865491271018982, -0.7184486985206604, -73.49112701416016],
    [-0.0070511759258806705, 0.7189856171607971, 1.8662824630737305, -56.847232818603516],
    [0.0, 0.0, 0.0, 1.0]
],
  "dcmmeta_reorient_transform": [
    [0.0, -1.0, 0.0, 103.0],
    [1.0, 0.0, 0.0, 0.0],
    [0.0, 0.0, 1.0, 0.0],
    [0.0, 0.0, 0.0, 1.0]
],
  "dcmmeta_shape": [104, 104, 60, 483],
  "dcmmeta_slice_dim": 2,
  "dcmmeta_version": 0.6,
  "global": {
    "const": {
      "AcquisitionMatrix": [104, 0, 0, 104],
      "AngioFlag": "N",
      "BitsAllocated": 16,
      "BitsStored": 16,
      "BodyPartExamined": "BRAIN",
      "Columns": 832,
      "EchoNumbers": 1,
      "EchoTime": 37.0,
      "EchoTrainLength": 104,
      "FlipAngle": 52.0,
      "HighBit": 15,
      "ImageOrientationPatient": [0.99952194937682, -0.0307155163351, -0.0035255879271, 0.02739543668241, 0.93274563375233, -0.3594927993228],
      "ImagePositionPatient": [-851.36593065615, -775.33239761118, 281.48566869057],
      "ImageType": [
        "ORIGINAL",
        "PRIMARY",
        "M",
        "MB",
        "ND",
        "MOSAIC"
],
      "ImagedNucleus": "1H",
      "ImagingFrequency": 123.258908,
      "InPlanePhaseEncodingDirection": "COL",
      "MRAcquisitionType": "2D",
      "MagneticFieldStrength": 3.0,
      "Manufacturer": "SIEMENS",
      "ManufacturerModelName": "Prisma_fit",
      "Modality": "MR",
      "NumberOfAverages": 1.0,
      "NumberOfPhaseEncodingSteps": 104,
      "PercentPhaseFieldOfView": 100.0,
      "PercentSampling": 100.0,
      "PerformedProcedureStepStartTime": "173319.496000",
      "PhotometricInterpretation": "MONOCHROME2",
      "PixelBandwidth": 2290.0,
      "PixelRepresentation": 0,
      "PixelSpacing": [2.0, 2.0],
      "ProtocolName": "func_task-friends-s04e11b",
      "RepetitionTime": 1490.0,
      "Rows": 832,
      "SAR": 0.03563788282687,
      "SamplesPerPixel": 1,
      "ScanOptions": "FS",
      "ScanningSequence": "EP",
      "SequenceName": "epfid2d1_104",
      "SequenceVariant": [
        "SK",
        "SS"
],
      "SeriesDescription": "func_task-friends-s04e11b",
      "SeriesNumber": 11,
      "SeriesTime": "184220.443000",
      "SliceLocation": -28.052894366817,
      "SliceThickness": 2.0,
      "SmallestImagePixelValue": 0,
      "SoftwareVersions": "syngo MR E11",
      "SpacingBetweenSlices": 2.0000000098558,
      "SpecificCharacterSet": "ISO_IR 100",
      "StudyID": "1",
      "StudyTime": "173319.438000",
      "TransmitCoilName": "Body",
      "VariableFlipAngleFlag": "N",
      "WindowCenterWidthExplanation": "Algo1",
      "dBdt": 0.0},
    "slices": {}
  },
  "time": {
    "samples": {
      "AcquisitionNumber": [1, 2, 3, 4, 5, 6, 7, 8, 9, 10, 11, 12, 13, 14, 15, 16, 17, 18, 19, 20, 21, 22, 23, 24, 25, 26, 27, 28, 29, 30, 31, 32, 33, 34, 35, 36, 37, 38, 39, 40, 41, 42, 43, 44, 45, 46, 47, 48, 49, 50, 51, 52, 53, 54, 55, 56, 57, 58, 59, 60, 61, 62, 63, 64, 65, 66, 67, 68, 69, 70, 71, 72, 73, 74, 75, 76, 77, 78, 79, 80, 81, 82, 83, 84, 85, 86, 87, 88, 89, 90, 91, 92, 93, 94, 95, 96, 97, 98, 99, 100, 101, 102, 103, 104, 105, 106, 107, 108, 109, 110, 111, 112, 113, 114, 115, 116, 117, 118, 119, 120, 121, 122, 123, 124, 125, 126, 127, 128, 129, 130, 131, 132, 133, 134, 135, 136, 137, 138, 139, 140, 141, 142, 143, 144, 145, 146, 147, 148, 149, 150, 151, 152, 153, 154, 155, 156, 157, 158, 159, 160, 161, 162, 163, 164, 165, 166, 167, 168, 169, 170, 171, 172, 173, 174, 175, 176, 177, 178, 179, 180, 181, 182, 183, 184, 185, 186, 187, 188, 189, 190, 191, 192, 193, 194, 195, 196, 197, 198, 199, 200, 201, 202, 203, 204, 205, 206, 207, 208, 209, 210, 211, 212, 213, 214, 215, 216, 217, 218, 219, 220, 221, 222, 223, 224, 225, 226, 227, 228, 229, 230, 231, 232, 233, 234, 235, 236, 237, 238, 239, 240, 241, 242, 243, 244, 245, 246, 247, 248, 249, 250, 251, 252, 253, 254, 255, 256, 257, 258, 259, 260, 261, 262, 263, 264, 265, 266, 267, 268, 269, 270, 271, 272, 273, 274, 275, 276, 277, 278, 279, 280, 281, 282, 283, 284, 285, 286, 287, 288, 289, 290, 291, 292, 293, 294, 295, 296, 297, 298, 299, 300, 301, 302, 303, 304, 305, 306, 307, 308, 309, 310, 311, 312, 313, 314, 315, 316, 317, 318, 319, 320, 321, 322, 323, 324, 325, 326, 327, 328, 329, 330, 331, 332, 333, 334, 335, 336, 337, 338, 339, 340, 341, 342, 343, 344, 345, 346, 347, 348, 349, 350, 351, 352, 353, 354, 355, 356, 357, 358, 359, 360, 361, 362, 363, 364, 365, 366, 367, 368, 369, 370, 371, 372, 373, 374, 375, 376, 377, 378, 379, 380, 381, 382, 383, 384, 385, 386, 387, 388, 389, 390, 391, 392, 393, 394, 395, 396, 397, 398, 399, 400, 401, 402, 403, 404, 405, 406, 407, 408, 409, 410, 411, 412, 413, 414, 415, 416, 417, 418, 419, 420, 421, 422, 423, 424, 425, 426, 427, 428, 429, 430, 431, 432, 433, 434, 435, 436, 437, 438, 439, 440, 441, 442, 443, 444, 445, 446, 447, 448, 449, 450, 451, 452, 453, 454, 455, 456, 457, 458, 459, 460, 461, 462, 463, 464, 465, 466, 467, 468, 469, 470, 471, 472, 473, 474, 475, 476, 477, 478, 479, 480, 481, 482, 483],
      "AcquisitionTime": ["184122.420000", "184123.910000", "184125.400000", "184126.890000", "184128.380000", "184129.870000", "184131.360000", "184132.850000", "184134.340000", "184135.830000", "184137.320000", "184138.810000", "184140.300000", "184141.790000", "184143.280000", "184144.770000", "184146.260000", "184147.750000", "184149.240000", "184150.730000", "184152.220000", "184153.710000", "184155.200000", "184156.690000", "184158.180000", "184159.670000", "184201.160000", "184202.650000", "184204.140000", "184205.630000", "184207.120000", "184208.610000", "184210.100000", "184211.590000", "184213.080000", "184214.570000", "184216.060000", "184217.550000", "184219.040000", "184220.530000", "184222.020000", "184223.510000", "184225.000000", "184226.490000", "184227.980000", "184229.470000", "184230.960000", "184232.450000", "184233.940000", "184235.430000", "184236.920000", "184238.410000", "184239.900000", "184241.390000", "184242.880000", "184244.370000", "184245.860000", "184247.350000", "184248.840000", "184250.330000", "184251.820000", "184253.310000", "184254.800000", "184256.290000", "184257.780000", "184259.270000", "184300.760000", "184302.250000", "184303.740000", "184305.230000", "184306.720000", "184308.210000", "184309.700000", "184311.190000", "184312.680000", "184314.170000", "184315.660000", "184317.150000", "184318.640000", "184320.130000", "184321.620000", "184323.110000", "184324.600000", "184326.090000", "184327.580000", "184329.070000", "184330.560000", "184332.050000", "184333.540000", "184335.030000", "184336.520000", "184338.010000", "184339.500000", "184340.990000", "184342.480000", "184343.970000", "184345.460000", "184346.950000", "184348.440000", "184349.930000", "184351.420000", "184352.910000", "184354.400000", "184355.890000", "184357.380000", "184358.870000", "184400.360000", "184401.850000", "184403.340000", "184404.830000", "184406.320000", "184407.810000", "184409.300000", "184410.790000", "184412.280000", "184413.770000", "184415.260000", "184416.750000", "184418.240000", "184419.730000", "184421.220000", "184422.710000", "184424.200000", "184425.690000", "184427.180000", "184428.670000", "184430.160000", "184431.650000", "184433.140000", "184434.630000", "184436.120000", "184437.610000", "184439.100000", "184440.590000", "184442.080000", "184443.570000", "184445.060000", "184446.550000", "184448.040000", "184449.530000", "184451.020000", "184452.510000", "184454.000000", "184455.490000", "184456.980000", "184458.470000", "184459.960000", "184501.450000", "184502.940000", "184504.430000", "184505.920000", "184507.410000", "184508.900000", "184510.390000", "184511.880000", "184513.370000", "184514.860000", "184516.350000", "184517.840000", "184519.330000", "184520.820000", "184522.310000", "184523.800000", "184525.290000", "184526.780000", "184528.270000", "184529.760000", "184531.250000", "184532.740000", "184534.230000", "184535.720000", "184537.210000", "184538.700000", "184540.190000", "184541.680000", "184543.170000", "184544.660000", "184546.150000", "184547.640000", "184549.130000", "184550.620000", "184552.110000", "184553.600000", "184555.090000", "184556.580000", "184558.070000", "184559.560000", "184601.050000", "184602.540000", "184604.030000", "184605.520000", "184607.010000", "184608.500000", "184609.990000", "184611.480000", "184612.970000", "184614.460000", "184615.950000", "184617.440000", "184618.930000", "184620.420000", "184621.910000", "184623.400000", "184624.890000", "184626.380000", "184627.870000", "184629.360000", "184630.850000", "184632.340000", "184633.830000", "184635.320000", "184636.810000", "184638.300000", "184639.790000", "184641.280000", "184642.770000", "184644.260000", "184645.750000", "184647.240000", "184648.730000", "184650.220000", "184651.710000", "184653.200000", "184654.690000", "184656.180000", "184657.670000", "184659.160000", "184700.650000", "184702.140000", "184703.630000", "184705.120000", "184706.610000", "184708.100000", "184709.590000", "184711.080000", "184712.570000", "184714.060000", "184715.550000", "184717.040000", "184718.530000", "184720.020000", "184721.510000", "184723.000000", "184724.490000", "184725.980000", "184727.470000", "184728.960000", "184730.450000", "184731.940000", "184733.430000", "184734.920000", "184736.410000", "184737.900000", "184739.390000", "184740.880000", "184742.370000", "184743.860000", "184745.350000", "184746.840000", "184748.330000", "184749.820000", "184751.310000", "184752.800000", "184754.290000", "184755.780000", "184757.270000", "184758.760000", "184800.250000", "184801.740000", "184803.230000", "184804.720000", "184806.210000", "184807.700000", "184809.190000", "184810.680000", "184812.170000", "184813.660000", "184815.150000", "184816.640000", "184818.130000", "184819.620000", "184821.110000", "184822.600000", "184824.090000", "184825.580000", "184827.070000", "184828.560000", "184830.050000", "184831.540000", "184833.030000", "184834.520000", "184836.010000", "184837.500000", "184838.990000", "184840.480000", "184841.970000", "184843.460000", "184844.950000", "184846.440000", "184847.930000", "184849.420000", "184850.910000", "184852.400000", "184853.890000", "184855.380000", "184856.870000", "184858.360000", "184859.850000", "184901.340000", "184902.830000", "184904.320000", "184905.810000", "184907.300000", "184908.790000", "184910.280000", "184911.770000", "184913.260000", "184914.750000", "184916.240000", "184917.730000", "184919.220000", "184920.710000", "184922.200000", "184923.690000", "184925.180000", "184926.670000", "184928.160000", "184929.650000", "184931.140000", "184932.630000", "184934.120000", "184935.610000", "184937.100000", "184938.590000", "184940.080000", "184941.570000", "184943.060000", "184944.550000", "184946.040000", "184947.530000", "184949.020000", "184950.510000", "184952.000000", "184953.490000", "184954.980000", "184956.470000", "184957.960000", "184959.450000", "185000.940000", "185002.430000", "185003.920000", "185005.410000", "185006.900000", "185008.390000", "185009.880000", "185011.370000", "185012.860000", "185014.350000", "185015.840000", "185017.330000", "185018.820000", "185020.310000", "185021.800000", "185023.290000", "185024.780000", "185026.270000", "185027.760000", "185029.250000", "185030.740000", "185032.230000", "185033.720000", "185035.210000", "185036.700000", "185038.190000", "185039.680000", "185041.170000", "185042.660000", "185044.150000", "185045.640000", "185047.130000", "185048.620000", "185050.110000", "185051.600000", "185053.090000", "185054.580000", "185056.070000", "185057.560000", "185059.050000", "185100.540000", "185102.030000", "185103.520000", "185105.010000", "185106.500000", "185107.990000", "185109.480000", "185110.970000", "185112.460000", "185113.950000", "185115.440000", "185116.930000", "185118.420000", "185119.910000", "185121.400000", "185122.890000", "185124.380000", "185125.870000", "185127.360000", "185128.850000", "185130.340000", "185131.830000", "185133.320000", "185134.810000", "185136.300000", "185137.790000", "185139.280000", "185140.770000", "185142.260000", "185143.750000", "185145.240000", "185146.730000", "185148.220000", "185149.710000", "185151.200000", "185152.690000", "185154.180000", "185155.670000", "185157.160000", "185158.650000", "185200.140000", "185201.630000", "185203.120000", "185204.610000", "185206.100000", "185207.590000", "185209.080000", "185210.570000", "185212.060000", "185213.550000", "185215.040000", "185216.530000", "185218.020000", "185219.510000", "185221.000000", "185222.490000", "185223.980000", "185225.470000", "185226.960000", "185228.450000", "185229.940000", "185231.430000", "185232.920000", "185234.410000", "185235.900000", "185237.390000", "185238.880000", "185240.370000", "185241.860000", "185243.350000", "185244.840000", "185246.330000", "185247.820000", "185249.310000", "185250.800000", "185252.290000", "185253.780000", "185255.270000", "185256.760000", "185258.250000", "185259.740000", "185301.230000", "185302.720000", "185304.210000", "185305.700000", "185307.190000", "185308.680000", "185310.170000", "185311.660000", "185313.150000", "185314.640000", "185316.130000", "185317.620000", "185319.110000", "185320.600000"],
      "ContentTime": ["184220.446000", "184220.449000", "184220.452000", "184220.455000", "184220.458000", "184240.409000", "184240.412000", "184240.415000", "184240.417000", "184240.420000", "184240.423000", "184240.426000", "184240.429000", "184240.432000", "184240.442000", "184240.445000", "184240.448000", "184240.451000", "184240.454000", "184240.458000", "184240.466000", "184240.469000", "184240.472000", "184240.474000", "184240.477000", "184300.409000", "184300.412000", "184300.415000", "184300.418000", "184300.421000", "184300.423000", "184300.426000", "184300.429000", "184300.434000", "184300.437000", "184300.439000", "184300.442000", "184300.445000", "184300.448000", "184300.451000", "184300.454000", "184300.457000", "184300.459000", "184300.462000", "184300.465000", "184300.468000", "184320.409000", "184320.412000", "184320.415000", "184320.417000", "184320.420000", "184320.423000", "184320.426000", "184320.429000", "184320.432000", "184320.435000", "184320.438000", "184320.441000", "184320.443000", "184320.446000", "184320.449000", "184320.452000", "184320.455000", "184320.458000", "184320.461000", "184320.464000", "184340.408000", "184340.411000", "184340.414000", "184340.417000", "184340.419000", "184340.422000", "184340.425000", "184340.428000", "184340.431000", "184340.434000", "184340.437000", "184340.440000", "184340.442000", "184340.445000", "184340.448000", "184340.451000", "184340.460000", "184340.463000", "184340.466000", "184340.469000", "184420.408000", "184420.411000", "184420.414000", "184420.417000", "184420.419000", "184420.422000", "184420.425000", "184420.428000", "184420.431000", "184420.434000", "184420.437000", "184420.440000", "184420.442000", "184420.445000", "184420.448000", "184420.451000", "184420.454000", "184420.457000", "184420.460000", "184420.462000", "184420.465000", "184420.468000", "184420.471000", "184420.474000", "184420.477000", "184420.480000", "184420.483000", "184420.486000", "184420.488000", "184420.492000", "184420.495000", "184420.498000", "184500.409000", "184500.423000", "184500.426000", "184500.429000", "184500.432000", "184500.435000", "184500.438000", "184500.440000", "184500.443000", "184500.446000", "184500.449000", "184500.452000", "184500.455000", "184500.458000", "184500.461000", "184500.464000", "184500.467000", "184500.470000", "184500.472000", "184500.475000", "184500.478000", "184500.481000", "184500.484000", "184500.487000", "184500.490000", "184500.493000", "184500.495000", "184540.409000", "184540.412000", "184540.415000", "184540.418000", "184540.420000", "184540.423000", "184540.426000", "184540.429000", "184540.432000", "184540.435000", "184540.437000", "184540.440000", "184540.443000", "184540.446000", "184540.449000", "184540.452000", "184540.455000", "184540.458000", "184540.461000", "184540.464000", "184540.467000", "184540.469000", "184540.472000", "184540.475000", "184540.478000", "184540.481000", "184540.484000", "184620.408000", "184620.411000", "184620.414000", "184620.417000", "184620.419000", "184620.422000", "184620.425000", "184620.428000", "184620.431000", "184620.434000", "184620.437000", "184620.440000", "184620.443000", "184620.445000", "184620.448000", "184620.451000", "184620.454000", "184620.457000", "184620.460000", "184620.463000", "184620.466000", "184620.469000", "184620.472000", "184620.474000", "184620.477000", "184620.480000", "184620.490000", "184700.408000", "184700.411000", "184700.414000", "184700.417000", "184700.420000", "184700.423000", "184700.425000", "184700.428000", "184700.431000", "184700.434000", "184700.437000", "184700.440000", "184700.443000", "184700.446000", "184700.449000", "184700.451000", "184700.454000", "184700.457000", "184700.460000", "184700.463000", "184700.469000", "184700.471000", "184700.474000", "184700.477000", "184700.480000", "184700.483000", "184700.486000", "184740.409000", "184740.412000", "184740.415000", "184740.417000", "184740.420000", "184740.423000", "184740.426000", "184740.429000", "184740.432000", "184740.435000", "184740.437000", "184740.440000", "184740.443000", "184740.446000", "184740.449000", "184740.452000", "184740.455000", "184740.458000", "184740.461000", "184740.463000", "184740.466000", "184740.469000", "184740.472000", "184740.475000", "184740.478000", "184740.480000", "184740.483000", "184820.408000", "184820.411000", "184820.414000", "184820.417000", "184820.420000", "184820.423000", "184820.425000", "184820.428000", "184820.431000", "184820.434000", "184820.437000", "184820.440000", "184820.443000", "184820.446000", "184820.449000", "184820.452000", "184820.455000", "184820.457000", "184820.460000", "184820.463000", "184820.466000", "184820.469000", "184820.472000", "184820.475000", "184820.477000", "184820.480000", "184900.408000", "184900.411000", "184900.414000", "184900.417000", "184900.420000", "184900.423000", "184900.426000", "184900.429000", "184900.431000", "184900.434000", "184900.437000", "184900.440000", "184900.443000", "184900.446000", "184900.449000", "184900.452000", "184900.454000", "184900.457000", "184900.460000", "184900.463000", "184900.466000", "184900.469000", "184900.472000", "184900.475000", "184900.478000", "184900.481000", "184900.483000", "184940.409000", "184940.412000", "184940.415000", "184940.418000", "184940.421000", "184940.423000", "184940.426000", "184940.429000", "184940.432000", "184940.435000", "184940.438000", "184940.441000", "184940.444000", "184940.446000", "184940.449000", "184940.468000", "184940.472000", "184940.475000", "184940.477000", "184940.480000", "184940.483000", "184940.486000", "184940.489000", "184940.492000", "184940.495000", "184940.498000", "184940.501000", "185020.409000", "185020.412000", "185020.415000", "185020.418000", "185020.421000", "185020.423000", "185020.426000", "185020.429000", "185020.432000", "185020.435000", "185020.438000", "185020.441000", "185020.444000", "185020.446000", "185020.449000", "185020.452000", "185020.455000", "185020.458000", "185020.461000", "185020.464000", "185020.467000", "185020.469000", "185020.472000", "185020.475000", "185020.478000", "185020.481000", "185020.484000", "185100.408000", "185100.411000", "185100.414000", "185100.417000", "185100.420000", "185100.423000", "185100.426000", "185100.428000", "185100.431000", "185100.434000", "185100.437000", "185100.440000", "185100.443000", "185100.446000", "185100.449000", "185100.452000", "185100.454000", "185100.457000", "185100.460000", "185100.463000", "185100.466000", "185100.469000", "185100.472000", "185100.475000", "185100.478000", "185100.481000", "185100.484000", "185140.408000", "185140.418000", "185140.421000", "185140.424000", "185140.426000", "185140.429000", "185140.432000", "185140.435000", "185140.438000", "185140.441000", "185140.444000", "185140.447000", "185140.450000", "185140.453000", "185140.455000", "185140.458000", "185140.461000", "185140.464000", "185140.467000", "185140.470000", "185140.472000", "185140.475000", "185140.478000", "185140.481000", "185140.484000", "185140.487000", "185140.490000", "185200.409000", "185200.412000", "185200.415000", "185200.418000", "185200.421000", "185200.423000", "185200.426000", "185200.429000", "185200.432000", "185200.435000", "185200.438000", "185200.441000", "185200.444000", "185240.409000", "185240.412000", "185240.415000", "185240.418000", "185240.421000", "185240.424000", "185240.427000", "185240.430000", "185240.433000", "185240.436000", "185240.439000", "185240.442000", "185240.444000", "185240.447000", "185240.450000", "185240.453000", "185240.456000", "185240.459000", "185240.462000", "185240.465000", "185240.468000", "185240.471000", "185240.473000", "185240.476000", "185240.479000", "185240.482000", "185240.485000", "185320.408000", "185320.411000", "185320.414000", "185320.417000", "185320.420000", "185320.422000", "185320.425000", "185320.428000", "185320.431000", "185320.434000", "185320.437000", "185320.439000", "185320.443000", "185320.445000", "185320.448000", "185320.451000", "185320.454000", "185320.457000", "185320.460000", "185320.462000", "185320.465000", "185320.468000", "185320.471000", "185320.474000", "185320.477000", "185320.480000", "185320.482000", "185323.026000", "185323.033000"],
