{
  "AcquisitionMatrixPE": 104,
  "AcquisitionNumber": 1,
  "AcquisitionTime": "16:25:55.002500",
  "BandwidthPerPixelPhaseEncode": 17.17,
  "BaseResolution": 104,
  "BodyPartExamined": "BRAIN",
  "CoilCombinationMethod": "Sum of Squares",
  "ConsistencyInfo": "N4_VE11C_LATEST_20160120",
  "ConversionSoftware": "dcm2niix",
  "ConversionSoftwareVersion": "v1.0.20211006",
  "DerivedVendorReportedEchoSpacing": 0.000560011,
  "DeviceSerialNumber": "167006",
  "DwellTime": 2.1e-06,
  "EchoTime": 0.037,
  "EchoTrainLength": 104,
  "EffectiveEchoSpacing": 0.000560011,
  "FlipAngle": 52,
  "HeudiconvVersion": "0.11.3.post9+gc939bf8",
  "ImageComments": "Unaliased MB4/PE3/LB",
  "ImageOrientationPatientDICOM": [0.999078, -0.0366494, -0.0223686, 0.0266853, 0.938147, -0.345208],
  "ImageOrientationText": "Tra>Cor(-20.2)>Sag(-1.9)",
  "ImageType": [
    "ORIGINAL",
    "PRIMARY",
    "M",
    "MB",
    "ND",
    "MOSAIC"
],
  "ImagingFrequency": 123.259,
  "InPlanePhaseEncodingDirectionDICOM": "COL",
  "InstitutionAddress": "Chemin Queen-Mary 4565,Montreal,District,CA,H3W 1W5",
  "InstitutionName": "IUGM",
  "InstitutionalDepartmentName": "Department",
  "MRAcquisitionType": "2D",
  "MagneticFieldStrength": 3,
  "Manufacturer": "Siemens",
  "ManufacturersModelName": "Prisma_fit",
  "MatrixCoilMode": "SENSE",
  "Modality": "MR",
  "MultibandAccelerationFactor": 4,
  "PartialFourier": 1,
  "PatientPosition": "HFS",
  "PercentPhaseFOV": 100,
  "PercentSampling": 100,
  "PhaseEncodingDirection": "j",
  "PhaseEncodingSteps": 104,
  "PhaseResolution": 1,
  "PixelBandwidth": 2290,
  "ProcedureStepDescription": "video^friends",
  "ProtocolName": "func_task-friends-s06e12a",
  "PulseSequenceDetails": "%CustomerSeq%\\cmrr_mbep2d_bold",
  "ReceiveCoilActiveElements": "HC1-7;NC1,2",
  "ReceiveCoilName": "HeadNeck_64",
  "ReconMatrixPE": 104,
  "RepetitionTime": 1.49,
  "SAR": 0.0421973,
  "ScanOptions": "FS",
  "ScanningSequence": "EP",
  "SequenceName": "epfid2d1_104",
  "SequenceVariant": "SK\\SS",
  "SeriesDescription": "func_task-friends-s06e12a",
  "SeriesNumber": 13,
  "ShimSetting": [624, -7257, -8809, 569, -1, -246, -78, -13],
  "SliceThickness": 2,
  "SliceTiming": [0, 0.785, 0.0975, 0.8825, 0.195, 0.98, 0.295, 1.0775, 0.3925, 1.175, 0.49, 1.275, 0.5875, 1.3725, 0.685, 0, 0.785, 0.0975, 0.8825, 0.195, 0.98, 0.295, 1.0775, 0.3925, 1.175, 0.49, 1.275, 0.5875, 1.3725, 0.685, 0, 0.785, 0.0975, 0.8825, 0.195, 0.98, 0.295, 1.0775, 0.3925, 1.175, 0.49, 1.275, 0.5875, 1.3725, 0.685, 0, 0.785, 0.0975, 0.8825, 0.195, 0.98, 0.295, 1.0775, 0.3925, 1.175, 0.49, 1.275, 0.5875, 1.3725, 0.685],
  "SoftwareVersions": "syngo MR E11",
  "SpacingBetweenSlices": 2,
  "StationName": "MRC35049",
  "TaskName": "s06e12a",
  "TotalReadoutTime": 0.0576811,
  "TxRefAmp": 237.618,
  "WipMemBlock": "9f8e9287-72a5-4153-b376-9b539bf9f62e||Sequence: R016 ve11c/master r/e634e98; Dec 19 2017 11:00:25 by eja",
  "dcmmeta_affine": [
    [-1.9981555938720703, 0.053370606154203415, -0.06727329641580582, 100.52889251708984],
    [0.07329875230789185, 1.8762937784194946, -0.6885848641395569, -76.87651824951172],
    [-0.044737137854099274, 0.6904153823852539, 1.8765193223953247, -61.831748962402344],
    [0.0, 0.0, 0.0, 1.0]
],
  "dcmmeta_reorient_transform": [
    [0.0, -1.0, 0.0, 103.0],
    [1.0, 0.0, 0.0, 0.0],
    [0.0, 0.0, 1.0, 0.0],
    [0.0, 0.0, 0.0, 1.0]
],
  "dcmmeta_shape": [104, 104, 60, 435],
  "dcmmeta_slice_dim": 2,
  "dcmmeta_version": 0.6,
  "global": {
    "const": {
      "AcquisitionMatrix": [104, 0, 0, 104],
      "AngioFlag": "N",
      "BitsAllocated": 16,
      "BitsStored": 16,
      "BodyPartExamined": "BRAIN",
      "Columns": 832,
      "EchoNumbers": 1,
      "EchoTime": 37.0,
      "EchoTrainLength": 104,
      "FlipAngle": 52.0,
      "HighBit": 15,
      "ImageOrientationPatient": [0.99907780999189, -0.0366493752419, -0.0223685689348, 0.02668530303662, 0.93814686298678, -0.3452077027963],
      "ImagePositionPatient": [-852.78161315185, -772.67190543973, 276.8765624809],
      "ImageType": [
        "ORIGINAL",
        "PRIMARY",
        "M",
        "MB",
        "ND",
        "MOSAIC"
],
      "ImagedNucleus": "1H",
      "ImagingFrequency": 123.258798,
      "InPlanePhaseEncodingDirection": "COL",
      "MRAcquisitionType": "2D",
      "MagneticFieldStrength": 3.0,
      "Manufacturer": "SIEMENS",
      "ManufacturerModelName": "Prisma_fit",
      "Modality": "MR",
      "NumberOfAverages": 1.0,
      "NumberOfPhaseEncodingSteps": 104,
      "PercentPhaseFieldOfView": 100.0,
      "PercentSampling": 100.0,
      "PerformedProcedureStepStartTime": "153509.569000",
      "PhotometricInterpretation": "MONOCHROME2",
      "PixelBandwidth": 2290.0,
      "PixelRepresentation": 0,
      "PixelSpacing": [2.0, 2.0],
      "ProtocolName": "func_task-friends-s06e12a",
      "RepetitionTime": 1490.0,
      "Rows": 832,
      "SAR": 0.0421973007954,
      "SamplesPerPixel": 1,
      "ScanOptions": "FS",
      "ScanningSequence": "EP",
      "SequenceName": "epfid2d1_104",
      "SequenceVariant": [
        "SK",
        "SS"
],
      "SeriesDescription": "func_task-friends-s06e12a",
      "SeriesNumber": 13,
      "SeriesTime": "162659.612000",
      "SliceLocation": -34.927690566944,
      "SliceThickness": 2.0,
      "SmallestImagePixelValue": 0,
      "SoftwareVersions": "syngo MR E11",
      "SpacingBetweenSlices": 1.9999999402402,
      "SpecificCharacterSet": "ISO_IR 100",
      "StudyID": "1",
      "StudyTime": "153509.505000",
      "TransmitCoilName": "Body",
      "VariableFlipAngleFlag": "N",
      "WindowCenterWidthExplanation": "Algo1",
      "dBdt": 0.0},
    "slices": {}
  },
  "time": {
    "samples": {
      "AcquisitionNumber": [1, 2, 3, 4, 5, 6, 7, 8, 9, 10, 11, 12, 13, 14, 15, 16, 17, 18, 19, 20, 21, 22, 23, 24, 25, 26, 27, 28, 29, 30, 31, 32, 33, 34, 35, 36, 37, 38, 39, 40, 41, 42, 43, 44, 45, 46, 47, 48, 49, 50, 51, 52, 53, 54, 55, 56, 57, 58, 59, 60, 61, 62, 63, 64, 65, 66, 67, 68, 69, 70, 71, 72, 73, 74, 75, 76, 77, 78, 79, 80, 81, 82, 83, 84, 85, 86, 87, 88, 89, 90, 91, 92, 93, 94, 95, 96, 97, 98, 99, 100, 101, 102, 103, 104, 105, 106, 107, 108, 109, 110, 111, 112, 113, 114, 115, 116, 117, 118, 119, 120, 121, 122, 123, 124, 125, 126, 127, 128, 129, 130, 131, 132, 133, 134, 135, 136, 137, 138, 139, 140, 141, 142, 143, 144, 145, 146, 147, 148, 149, 150, 151, 152, 153, 154, 155, 156, 157, 158, 159, 160, 161, 162, 163, 164, 165, 166, 167, 168, 169, 170, 171, 172, 173, 174, 175, 176, 177, 178, 179, 180, 181, 182, 183, 184, 185, 186, 187, 188, 189, 190, 191, 192, 193, 194, 195, 196, 197, 198, 199, 200, 201, 202, 203, 204, 205, 206, 207, 208, 209, 210, 211, 212, 213, 214, 215, 216, 217, 218, 219, 220, 221, 222, 223, 224, 225, 226, 227, 228, 229, 230, 231, 232, 233, 234, 235, 236, 237, 238, 239, 240, 241, 242, 243, 244, 245, 246, 247, 248, 249, 250, 251, 252, 253, 254, 255, 256, 257, 258, 259, 260, 261, 262, 263, 264, 265, 266, 267, 268, 269, 270, 271, 272, 273, 274, 275, 276, 277, 278, 279, 280, 281, 282, 283, 284, 285, 286, 287, 288, 289, 290, 291, 292, 293, 294, 295, 296, 297, 298, 299, 300, 301, 302, 303, 304, 305, 306, 307, 308, 309, 310, 311, 312, 313, 314, 315, 316, 317, 318, 319, 320, 321, 322, 323, 324, 325, 326, 327, 328, 329, 330, 331, 332, 333, 334, 335, 336, 337, 338, 339, 340, 341, 342, 343, 344, 345, 346, 347, 348, 349, 350, 351, 352, 353, 354, 355, 356, 357, 358, 359, 360, 361, 362, 363, 364, 365, 366, 367, 368, 369, 370, 371, 372, 373, 374, 375, 376, 377, 378, 379, 380, 381, 382, 383, 384, 385, 386, 387, 388, 389, 390, 391, 392, 393, 394, 395, 396, 397, 398, 399, 400, 401, 402, 403, 404, 405, 406, 407, 408, 409, 410, 411, 412, 413, 414, 415, 416, 417, 418, 419, 420, 421, 422, 423, 424, 425, 426, 427, 428, 429, 430, 431, 432, 433, 434, 435],
      "AcquisitionTime": ["162555.002500", "162556.492500", "162557.982500", "162559.472500", "162600.962500", "162602.452500", "162603.942500", "162605.432500", "162606.922500", "162608.412500", "162609.902500", "162611.392500", "162612.882500", "162614.372500", "162615.862500", "162617.352500", "162618.842500", "162620.332500", "162621.822500", "162623.312500", "162624.802500", "162626.292500", "162627.782500", "162629.272500", "162630.762500", "162632.252500", "162633.742500", "162635.232500", "162636.722500", "162638.212500", "162639.702500", "162641.192500", "162642.682500", "162644.172500", "162645.662500", "162647.152500", "162648.642500", "162650.132500", "162651.622500", "162653.112500", "162654.602500", "162656.092500", "162657.582500", "162659.072500", "162700.562500", "162702.052500", "162703.542500", "162705.032500", "162706.522500", "162708.012500", "162709.502500", "162710.992500", "162712.482500", "162713.972500", "162715.462500", "162716.952500", "162718.442500", "162719.932500", "162721.422500", "162722.912500", "162724.402500", "162725.892500", "162727.382500", "162728.872500", "162730.362500", "162731.852500", "162733.342500", "162734.832500", "162736.322500", "162737.812500", "162739.302500", "162740.792500", "162742.282500", "162743.772500", "162745.262500", "162746.752500", "162748.242500", "162749.732500", "162751.222500", "162752.712500", "162754.202500", "162755.692500", "162757.182500", "162758.672500", "162800.162500", "162801.652500", "162803.142500", "162804.632500", "162806.122500", "162807.612500", "162809.102500", "162810.592500", "162812.082500", "162813.572500", "162815.062500", "162816.552500", "162818.042500", "162819.532500", "162821.022500", "162822.512500", "162824.002500", "162825.492500", "162826.982500", "162828.472500", "162829.962500", "162831.452500", "162832.942500", "162834.432500", "162835.922500", "162837.412500", "162838.902500", "162840.392500", "162841.882500", "162843.372500", "162844.862500", "162846.352500", "162847.842500", "162849.332500", "162850.822500", "162852.312500", "162853.802500", "162855.292500", "162856.782500", "162858.272500", "162859.762500", "162901.252500", "162902.742500", "162904.232500", "162905.722500", "162907.212500", "162908.702500", "162910.192500", "162911.682500", "162913.172500", "162914.662500", "162916.152500", "162917.642500", "162919.132500", "162920.622500", "162922.112500", "162923.602500", "162925.092500", "162926.582500", "162928.072500", "162929.562500", "162931.052500", "162932.542500", "162934.032500", "162935.522500", "162937.012500", "162938.502500", "162939.992500", "162941.482500", "162942.972500", "162944.462500", "162945.952500", "162947.442500", "162948.932500", "162950.422500", "162951.912500", "162953.402500", "162954.892500", "162956.382500", "162957.872500", "162959.362500", "163000.852500", "163002.342500", "163003.832500", "163005.322500", "163006.812500", "163008.302500", "163009.792500", "163011.282500", "163012.772500", "163014.262500", "163015.752500", "163017.242500", "163018.732500", "163020.222500", "163021.712500", "163023.202500", "163024.692500", "163026.182500", "163027.672500", "163029.162500", "163030.652500", "163032.142500", "163033.632500", "163035.122500", "163036.612500", "163038.102500", "163039.592500", "163041.082500", "163042.572500", "163044.062500", "163045.552500", "163047.042500", "163048.532500", "163050.022500", "163051.512500", "163053.002500", "163054.492500", "163055.982500", "163057.472500", "163058.962500", "163100.452500", "163101.942500", "163103.432500", "163104.922500", "163106.412500", "163107.902500", "163109.392500", "163110.882500", "163112.372500", "163113.862500", "163115.352500", "163116.842500", "163118.332500", "163119.822500", "163121.312500", "163122.802500", "163124.292500", "163125.782500", "163127.272500", "163128.762500", "163130.252500", "163131.742500", "163133.232500", "163134.722500", "163136.212500", "163137.702500", "163139.192500", "163140.682500", "163142.172500", "163143.662500", "163145.152500", "163146.642500", "163148.132500", "163149.622500", "163151.112500", "163152.602500", "163154.092500", "163155.582500", "163157.072500", "163158.562500", "163200.052500", "163201.542500", "163203.032500", "163204.522500", "163206.012500", "163207.502500", "163208.992500", "163210.482500", "163211.972500", "163213.462500", "163214.952500", "163216.442500", "163217.932500", "163219.422500", "163220.912500", "163222.402500", "163223.892500", "163225.382500", "163226.872500", "163228.362500", "163229.852500", "163231.342500", "163232.832500", "163234.322500", "163235.812500", "163237.302500", "163238.792500", "163240.282500", "163241.772500", "163243.262500", "163244.752500", "163246.242500", "163247.732500", "163249.222500", "163250.712500", "163252.202500", "163253.692500", "163255.182500", "163256.672500", "163258.162500", "163259.652500", "163301.142500", "163302.632500", "163304.122500", "163305.612500", "163307.102500", "163308.592500", "163310.082500", "163311.572500", "163313.062500", "163314.552500", "163316.042500", "163317.532500", "163319.022500", "163320.512500", "163322.002500", "163323.492500", "163324.982500", "163326.472500", "163327.962500", "163329.452500", "163330.942500", "163332.432500", "163333.922500", "163335.412500", "163336.902500", "163338.392500", "163339.882500", "163341.372500", "163342.862500", "163344.352500", "163345.842500", "163347.332500", "163348.822500", "163350.312500", "163351.802500", "163353.292500", "163354.782500", "163356.272500", "163357.762500", "163359.252500", "163400.742500", "163402.232500", "163403.722500", "163405.212500", "163406.702500", "163408.192500", "163409.682500", "163411.172500", "163412.662500", "163414.152500", "163415.642500", "163417.132500", "163418.622500", "163420.112500", "163421.602500", "163423.092500", "163424.582500", "163426.072500", "163427.562500", "163429.052500", "163430.542500", "163432.032500", "163433.522500", "163435.012500", "163436.502500", "163437.992500", "163439.482500", "163440.972500", "163442.462500", "163443.952500", "163445.442500", "163446.932500", "163448.422500", "163449.912500", "163451.402500", "163452.892500", "163454.382500", "163455.872500", "163457.362500", "163458.852500", "163500.342500", "163501.832500", "163503.322500", "163504.812500", "163506.302500", "163507.792500", "163509.282500", "163510.772500", "163512.262500", "163513.752500", "163515.242500", "163516.732500", "163518.222500", "163519.712500", "163521.202500", "163522.692500", "163524.182500", "163525.672500", "163527.162500", "163528.652500", "163530.142500", "163531.632500", "163533.122500", "163534.612500", "163536.102500", "163537.592500", "163539.082500", "163540.572500", "163542.062500", "163543.552500", "163545.042500", "163546.532500", "163548.022500", "163549.512500", "163551.002500", "163552.492500", "163553.982500", "163555.472500", "163556.962500", "163558.452500", "163559.942500", "163601.432500", "163602.922500", "163604.412500", "163605.902500", "163607.392500", "163608.882500", "163610.372500", "163611.862500", "163613.352500", "163614.842500", "163616.332500", "163617.822500", "163619.312500", "163620.802500", "163622.292500", "163623.782500", "163625.272500", "163626.762500", "163628.252500", "163629.742500", "163631.232500", "163632.722500", "163634.212500", "163635.702500", "163637.192500", "163638.682500", "163640.172500", "163641.662500"],
      "ContentTime": ["162659.615000", "162659.618000", "162659.621000", "162659.624000", "162659.627000", "162659.629000", "162659.632000", "162659.635000", "162659.638000", "162659.651000", "162719.579000", "162719.582000", "162719.584000", "162719.587000", "162719.590000", "162719.593000", "162719.596000", "162719.599000", "162719.601000", "162719.604000", "162719.619000", "162719.621000", "162719.624000", "162719.627000", "162719.630000", "162719.633000", "162719.636000", "162719.638000", "162719.641000", "162719.644000", "162739.579000", "162739.582000", "162739.585000", "162739.588000", "162739.591000", "162739.593000", "162739.596000", "162739.599000", "162739.602000", "162739.605000", "162739.607000", "162739.610000", "162739.613000", "162739.616000", "162739.619000", "162739.621000", "162739.624000", "162739.627000", "162739.630000", "162739.633000", "162759.579000", "162759.608000", "162759.611000", "162759.613000", "162759.616000", "162759.619000", "162759.622000", "162759.625000", "162759.627000", "162759.630000", "162759.633000", "162759.636000", "162759.639000", "162759.641000", "162759.644000", "162759.647000", "162759.650000", "162759.653000", "162759.656000", "162759.658000", "162759.661000", "162819.579000", "162819.582000", "162819.584000", "162819.587000", "162819.590000", "162819.593000", "162819.596000", "162819.599000", "162819.601000", "162819.604000", "162819.607000", "162819.610000", "162819.613000", "162819.615000", "162819.618000", "162819.623000", "162819.625000", "162819.628000", "162819.631000", "162819.634000", "162859.580000", "162859.583000", "162859.586000", "162859.588000", "162859.591000", "162859.594000", "162859.597000", "162859.600000", "162859.603000", "162859.605000", "162859.608000", "162859.611000", "162859.614000", "162859.617000", "162859.619000", "162859.622000", "162859.625000", "162859.628000", "162859.631000", "162859.633000", "162859.636000", "162859.639000", "162859.642000", "162859.645000", "162859.648000", "162859.651000", "162859.653000", "162859.656000", "162859.659000", "162859.662000", "162859.665000", "162859.668000", "162939.579000", "162939.582000", "162939.585000", "162939.587000", "162939.590000", "162939.593000", "162939.596000", "162939.599000", "162939.602000", "162939.605000", "162939.607000", "162939.610000", "162939.613000", "162939.616000", "162939.619000", "162939.621000", "162939.624000", "162939.627000", "162939.630000", "162939.633000", "162939.635000", "162939.638000", "162939.641000", "162939.644000", "162939.647000", "162939.650000", "162939.652000", "163019.579000", "163019.582000", "163019.585000", "163019.588000", "163019.590000", "163019.593000", "163019.596000", "163019.599000", "163019.602000", "163019.605000", "163019.607000", "163019.610000", "163019.613000", "163019.616000", "163019.619000", "163019.622000", "163019.624000", "163019.627000", "163019.637000", "163019.640000", "163019.642000", "163019.645000", "163019.648000", "163019.651000", "163019.654000", "163019.657000", "163019.659000", "163059.580000", "163059.583000", "163059.586000", "163059.589000", "163059.592000", "163059.594000", "163059.597000", "163059.600000", "163059.603000", "163059.606000", "163059.609000", "163059.611000", "163059.614000", "163059.617000", "163059.620000", "163059.623000", "163059.626000", "163059.628000", "163059.631000", "163059.634000", "163059.637000", "163059.640000", "163059.643000", "163059.645000", "163059.648000", "163059.651000", "163059.654000", "163139.580000", "163139.583000", "163139.586000", "163139.589000", "163139.592000", "163139.594000", "163139.597000", "163139.600000", "163139.603000", "163139.606000", "163139.609000", "163139.611000", "163139.614000", "163139.617000", "163139.620000", "163139.623000", "163139.626000", "163139.628000", "163139.631000", "163139.634000", "163139.637000", "163139.640000", "163139.643000", "163139.645000", "163139.648000", "163139.651000", "163139.654000", "163219.579000", "163219.582000", "163219.585000", "163219.588000", "163219.591000", "163219.593000", "163219.596000", "163219.609000", "163219.612000", "163219.614000", "163219.617000", "163219.620000", "163219.623000", "163219.626000", "163219.629000", "163219.631000", "163219.642000", "163219.645000", "163219.648000", "163219.651000", "163219.654000", "163219.656000", "163219.659000", "163219.662000", "163219.665000", "163219.668000", "163259.579000", "163259.582000", "163259.585000", "163259.588000", "163259.590000", "163259.593000", "163259.596000", "163259.599000", "163259.602000", "163259.604000", "163259.607000", "163259.610000", "163259.613000", "163259.616000", "163259.619000", "163259.622000", "163259.624000", "163259.627000", "163259.630000", "163259.633000", "163259.636000", "163259.639000", "163259.641000", "163259.644000", "163259.647000", "163259.650000", "163259.653000", "163339.580000", "163339.583000", "163339.586000", "163339.589000", "163339.591000", "163339.594000", "163339.597000", "163339.600000", "163339.603000", "163339.606000", "163339.608000", "163339.611000", "163339.614000", "163339.617000", "163339.620000", "163339.623000", "163339.626000", "163339.628000", "163339.631000", "163339.634000", "163339.637000", "163339.640000", "163339.643000", "163339.645000", "163339.648000", "163339.651000", "163339.654000", "163419.579000", "163419.582000", "163419.585000", "163419.588000", "163419.590000", "163419.593000", "163419.596000", "163419.599000", "163419.602000", "163419.605000", "163419.607000", "163419.610000", "163419.613000", "163419.616000", "163419.619000", "163419.622000", "163419.625000", "163419.627000", "163419.630000", "163419.633000", "163419.636000", "163419.639000", "163419.641000", "163419.644000", "163419.647000", "163419.650000", "163419.653000", "163459.579000", "163459.582000", "163459.585000", "163459.588000", "163459.590000", "163459.593000", "163459.596000", "163459.599000", "163459.602000", "163459.605000", "163459.607000", "163459.610000", "163459.613000", "163459.616000", "163459.619000", "163459.622000", "163459.625000", "163459.627000", "163459.630000", "163459.633000", "163459.636000", "163459.639000", "163459.642000", "163459.644000", "163459.647000", "163459.650000", "163459.653000", "163539.580000", "163539.583000", "163539.586000", "163539.589000", "163539.591000", "163539.594000", "163539.597000", "163539.600000", "163539.603000", "163539.606000", "163539.609000", "163539.611000", "163539.614000", "163539.617000", "163539.620000", "163539.623000", "163539.626000", "163539.628000", "163539.631000", "163539.634000", "163539.637000", "163539.640000", "163539.642000", "163539.645000", "163539.648000", "163539.651000", "163539.654000", "163619.579000", "163619.582000", "163619.585000", "163619.588000", "163619.591000", "163619.594000", "163619.597000", "163619.599000", "163619.602000", "163619.605000", "163619.608000", "163619.611000", "163619.614000", "163619.617000", "163619.619000", "163619.622000", "163619.625000", "163619.628000", "163619.631000", "163619.633000", "163619.636000", "163619.639000", "163619.642000", "163619.645000", "163619.648000", "163619.652000", "163643.562000", "163643.565000", "163643.568000", "163643.571000", "163643.574000", "163643.577000", "163643.580000", "163643.583000", "163643.586000", "163643.588000", "163643.591000", "163643.594000", "163643.597000", "163643.611000", "163643.614000", "163643.617000", "163643.620000"],
