{
  "AcquisitionMatrixPE": 104,
  "AcquisitionNumber": 1,
  "AcquisitionTime": "16:10:29.920000",
  "BandwidthPerPixelPhaseEncode": 17.17,
  "BaseResolution": 104,
  "BodyPartExamined": "BRAIN",
  "CoilCombinationMethod": "Sum of Squares",
  "ConsistencyInfo": "N4_VE11C_LATEST_20160120",
  "ConversionSoftware": "dcm2niix",
  "ConversionSoftwareVersion": "v1.0.20211006",
  "DerivedVendorReportedEchoSpacing": 0.000560011,
  "DeviceSerialNumber": "167006",
  "DwellTime": 2.1e-06,
  "EchoTime": 0.037,
  "EchoTrainLength": 104,
  "EffectiveEchoSpacing": 0.000560011,
  "FlipAngle": 52,
  "HeudiconvVersion": "0.11.3.post9+gc939bf8",
  "ImageComments": "Unaliased MB4/PE3/LB",
  "ImageOrientationPatientDICOM": [0.999078, -0.0366494, -0.0223686, 0.0266853, 0.938147, -0.345208],
  "ImageOrientationText": "Tra>Cor(-20.2)>Sag(-1.9)",
  "ImageType": [
    "ORIGINAL",
    "PRIMARY",
    "M",
    "MB",
    "ND",
    "MOSAIC"
],
  "ImagingFrequency": 123.259,
  "InPlanePhaseEncodingDirectionDICOM": "COL",
  "InstitutionAddress": "Chemin Queen-Mary 4565,Montreal,District,CA,H3W 1W5",
  "InstitutionName": "IUGM",
  "InstitutionalDepartmentName": "Department",
  "MRAcquisitionType": "2D",
  "MagneticFieldStrength": 3,
  "Manufacturer": "Siemens",
  "ManufacturersModelName": "Prisma_fit",
  "MatrixCoilMode": "SENSE",
  "Modality": "MR",
  "MultibandAccelerationFactor": 4,
  "PartialFourier": 1,
  "PatientPosition": "HFS",
  "PercentPhaseFOV": 100,
  "PercentSampling": 100,
  "PhaseEncodingDirection": "j",
  "PhaseEncodingSteps": 104,
  "PhaseResolution": 1,
  "PixelBandwidth": 2290,
  "ProcedureStepDescription": "video^friends",
  "ProtocolName": "func_task-friends-s06e11b",
  "PulseSequenceDetails": "%CustomerSeq%\\cmrr_mbep2d_bold",
  "ReceiveCoilActiveElements": "HC1-7;NC1,2",
  "ReceiveCoilName": "HeadNeck_64",
  "ReconMatrixPE": 104,
  "RepetitionTime": 1.49,
  "SAR": 0.0422167,
  "ScanOptions": "FS",
  "ScanningSequence": "EP",
  "SequenceName": "epfid2d1_104",
  "SequenceVariant": "SK\\SS",
  "SeriesDescription": "func_task-friends-s06e11b",
  "SeriesNumber": 11,
  "ShimSetting": [624, -7257, -8809, 569, -1, -246, -78, -13],
  "SliceThickness": 2,
  "SliceTiming": [0, 0.785, 0.0975, 0.8825, 0.195, 0.98, 0.295, 1.0775, 0.3925, 1.175, 0.49, 1.275, 0.5875, 1.3725, 0.685, 0, 0.785, 0.0975, 0.8825, 0.195, 0.98, 0.295, 1.0775, 0.3925, 1.175, 0.49, 1.275, 0.5875, 1.3725, 0.685, 0, 0.785, 0.0975, 0.8825, 0.195, 0.98, 0.295, 1.0775, 0.3925, 1.175, 0.49, 1.275, 0.5875, 1.3725, 0.685, 0, 0.785, 0.0975, 0.8825, 0.195, 0.98, 0.295, 1.0775, 0.3925, 1.175, 0.49, 1.275, 0.5875, 1.3725, 0.685],
  "SoftwareVersions": "syngo MR E11",
  "SpacingBetweenSlices": 2,
  "StationName": "MRC35049",
  "TaskName": "s06e11b",
  "TotalReadoutTime": 0.0576811,
  "TxRefAmp": 237.618,
  "WipMemBlock": "507a26fe-552a-4a72-9933-061fb9d5d5e5||Sequence: R016 ve11c/master r/e634e98; Dec 19 2017 11:00:25 by eja",
  "dcmmeta_affine": [
    [-1.9981555938720703, 0.053370606154203415, -0.06727329641580582, 100.52889251708984],
    [0.07329875230789185, 1.8762937784194946, -0.6885848641395569, -76.87651824951172],
    [-0.044737137854099274, 0.6904153823852539, 1.8765193223953247, -61.831748962402344],
    [0.0, 0.0, 0.0, 1.0]
],
  "dcmmeta_reorient_transform": [
    [0.0, -1.0, 0.0, 103.0],
    [1.0, 0.0, 0.0, 0.0],
    [0.0, 0.0, 1.0, 0.0],
    [0.0, 0.0, 0.0, 1.0]
],
  "dcmmeta_shape": [104, 104, 60, 484],
  "dcmmeta_slice_dim": 2,
  "dcmmeta_version": 0.6,
  "global": {
    "const": {
      "AcquisitionMatrix": [104, 0, 0, 104],
      "AngioFlag": "N",
      "BitsAllocated": 16,
      "BitsStored": 16,
      "BodyPartExamined": "BRAIN",
      "Columns": 832,
      "EchoNumbers": 1,
      "EchoTime": 37.0,
      "EchoTrainLength": 104,
      "FlipAngle": 52.0,
      "HighBit": 15,
      "ImageOrientationPatient": [0.99907780999189, -0.0366493752419, -0.0223685689348, 0.02668530303662, 0.93814686298678, -0.3452077027963],
      "ImagePositionPatient": [-852.78161315185, -772.67190543973, 276.8765624809],
      "ImageType": [
        "ORIGINAL",
        "PRIMARY",
        "M",
        "MB",
        "ND",
        "MOSAIC"
],
      "ImagedNucleus": "1H",
      "ImagingFrequency": 123.258792,
      "InPlanePhaseEncodingDirection": "COL",
      "MRAcquisitionType": "2D",
      "MagneticFieldStrength": 3.0,
      "Manufacturer": "SIEMENS",
      "ManufacturerModelName": "Prisma_fit",
      "Modality": "MR",
      "NumberOfAverages": 1.0,
      "NumberOfPhaseEncodingSteps": 104,
      "PercentPhaseFieldOfView": 100.0,
      "PercentSampling": 100.0,
      "PerformedProcedureStepStartTime": "153509.569000",
      "PhotometricInterpretation": "MONOCHROME2",
      "PixelBandwidth": 2290.0,
      "PixelRepresentation": 0,
      "PixelSpacing": [2.0, 2.0],
      "ProtocolName": "func_task-friends-s06e11b",
      "RepetitionTime": 1490.0,
      "Rows": 832,
      "SAR": 0.04221669242359,
      "SamplesPerPixel": 1,
      "ScanOptions": "FS",
      "ScanningSequence": "EP",
      "SequenceName": "epfid2d1_104",
      "SequenceVariant": [
        "SK",
        "SS"
],
      "SeriesDescription": "func_task-friends-s06e11b",
      "SeriesNumber": 11,
      "SeriesTime": "161155.079000",
      "SliceLocation": -34.927690566944,
      "SliceThickness": 2.0,
      "SmallestImagePixelValue": 0,
      "SoftwareVersions": "syngo MR E11",
      "SpacingBetweenSlices": 1.9999999402402,
      "SpecificCharacterSet": "ISO_IR 100",
      "StudyID": "1",
      "StudyTime": "153509.505000",
      "TransmitCoilName": "Body",
      "VariableFlipAngleFlag": "N",
      "WindowCenterWidthExplanation": "Algo1",
      "dBdt": 0.0},
    "slices": {}
  },
  "time": {
    "samples": {
      "AcquisitionNumber": [1, 2, 3, 4, 5, 6, 7, 8, 9, 10, 11, 12, 13, 14, 15, 16, 17, 18, 19, 20, 21, 22, 23, 24, 25, 26, 27, 28, 29, 30, 31, 32, 33, 34, 35, 36, 37, 38, 39, 40, 41, 42, 43, 44, 45, 46, 47, 48, 49, 50, 51, 52, 53, 54, 55, 56, 57, 58, 59, 60, 61, 62, 63, 64, 65, 66, 67, 68, 69, 70, 71, 72, 73, 74, 75, 76, 77, 78, 79, 80, 81, 82, 83, 84, 85, 86, 87, 88, 89, 90, 91, 92, 93, 94, 95, 96, 97, 98, 99, 100, 101, 102, 103, 104, 105, 106, 107, 108, 109, 110, 111, 112, 113, 114, 115, 116, 117, 118, 119, 120, 121, 122, 123, 124, 125, 126, 127, 128, 129, 130, 131, 132, 133, 134, 135, 136, 137, 138, 139, 140, 141, 142, 143, 144, 145, 146, 147, 148, 149, 150, 151, 152, 153, 154, 155, 156, 157, 158, 159, 160, 161, 162, 163, 164, 165, 166, 167, 168, 169, 170, 171, 172, 173, 174, 175, 176, 177, 178, 179, 180, 181, 182, 183, 184, 185, 186, 187, 188, 189, 190, 191, 192, 193, 194, 195, 196, 197, 198, 199, 200, 201, 202, 203, 204, 205, 206, 207, 208, 209, 210, 211, 212, 213, 214, 215, 216, 217, 218, 219, 220, 221, 222, 223, 224, 225, 226, 227, 228, 229, 230, 231, 232, 233, 234, 235, 236, 237, 238, 239, 240, 241, 242, 243, 244, 245, 246, 247, 248, 249, 250, 251, 252, 253, 254, 255, 256, 257, 258, 259, 260, 261, 262, 263, 264, 265, 266, 267, 268, 269, 270, 271, 272, 273, 274, 275, 276, 277, 278, 279, 280, 281, 282, 283, 284, 285, 286, 287, 288, 289, 290, 291, 292, 293, 294, 295, 296, 297, 298, 299, 300, 301, 302, 303, 304, 305, 306, 307, 308, 309, 310, 311, 312, 313, 314, 315, 316, 317, 318, 319, 320, 321, 322, 323, 324, 325, 326, 327, 328, 329, 330, 331, 332, 333, 334, 335, 336, 337, 338, 339, 340, 341, 342, 343, 344, 345, 346, 347, 348, 349, 350, 351, 352, 353, 354, 355, 356, 357, 358, 359, 360, 361, 362, 363, 364, 365, 366, 367, 368, 369, 370, 371, 372, 373, 374, 375, 376, 377, 378, 379, 380, 381, 382, 383, 384, 385, 386, 387, 388, 389, 390, 391, 392, 393, 394, 395, 396, 397, 398, 399, 400, 401, 402, 403, 404, 405, 406, 407, 408, 409, 410, 411, 412, 413, 414, 415, 416, 417, 418, 419, 420, 421, 422, 423, 424, 425, 426, 427, 428, 429, 430, 431, 432, 433, 434, 435, 436, 437, 438, 439, 440, 441, 442, 443, 444, 445, 446, 447, 448, 449, 450, 451, 452, 453, 454, 455, 456, 457, 458, 459, 460, 461, 462, 463, 464, 465, 466, 467, 468, 469, 470, 471, 472, 473, 474, 475, 476, 477, 478, 479, 480, 481, 482, 483, 484],
      "AcquisitionTime": ["161029.920000", "161031.410000", "161032.900000", "161034.390000", "161035.880000", "161037.370000", "161038.860000", "161040.350000", "161041.840000", "161043.330000", "161044.820000", "161046.310000", "161047.800000", "161049.290000", "161050.780000", "161052.270000", "161053.760000", "161055.250000", "161056.740000", "161058.230000", "161059.720000", "161101.210000", "161102.700000", "161104.190000", "161105.680000", "161107.170000", "161108.660000", "161110.150000", "161111.640000", "161113.130000", "161114.620000", "161116.110000", "161117.600000", "161119.090000", "161120.580000", "161122.070000", "161123.560000", "161125.050000", "161126.540000", "161128.030000", "161129.520000", "161131.010000", "161132.500000", "161133.990000", "161135.480000", "161136.970000", "161138.460000", "161139.950000", "161141.440000", "161142.930000", "161144.420000", "161145.910000", "161147.400000", "161148.890000", "161150.380000", "161151.870000", "161153.360000", "161154.850000", "161156.340000", "161157.830000", "161159.320000", "161200.810000", "161202.300000", "161203.790000", "161205.280000", "161206.770000", "161208.260000", "161209.750000", "161211.240000", "161212.730000", "161214.220000", "161215.710000", "161217.200000", "161218.690000", "161220.180000", "161221.670000", "161223.160000", "161224.650000", "161226.140000", "161227.630000", "161229.120000", "161230.610000", "161232.100000", "161233.590000", "161235.080000", "161236.570000", "161238.060000", "161239.550000", "161241.040000", "161242.530000", "161244.020000", "161245.510000", "161247.000000", "161248.490000", "161249.980000", "161251.470000", "161252.960000", "161254.450000", "161255.940000", "161257.430000", "161258.920000", "161300.410000", "161301.900000", "161303.390000", "161304.880000", "161306.370000", "161307.860000", "161309.350000", "161310.840000", "161312.330000", "161313.820000", "161315.310000", "161316.800000", "161318.290000", "161319.780000", "161321.270000", "161322.760000", "161324.250000", "161325.740000", "161327.230000", "161328.720000", "161330.210000", "161331.700000", "161333.190000", "161334.680000", "161336.170000", "161337.660000", "161339.150000", "161340.640000", "161342.130000", "161343.620000", "161345.110000", "161346.600000", "161348.090000", "161349.580000", "161351.070000", "161352.560000", "161354.050000", "161355.540000", "161357.030000", "161358.520000", "161400.010000", "161401.500000", "161402.990000", "161404.480000", "161405.970000", "161407.460000", "161408.950000", "161410.440000", "161411.930000", "161413.420000", "161414.910000", "161416.400000", "161417.890000", "161419.380000", "161420.870000", "161422.360000", "161423.850000", "161425.340000", "161426.830000", "161428.320000", "161429.810000", "161431.300000", "161432.790000", "161434.280000", "161435.770000", "161437.260000", "161438.750000", "161440.240000", "161441.730000", "161443.220000", "161444.710000", "161446.200000", "161447.690000", "161449.180000", "161450.670000", "161452.160000", "161453.650000", "161455.140000", "161456.630000", "161458.120000", "161459.610000", "161501.100000", "161502.590000", "161504.080000", "161505.570000", "161507.060000", "161508.550000", "161510.040000", "161511.530000", "161513.020000", "161514.510000", "161516.000000", "161517.490000", "161518.980000", "161520.470000", "161521.960000", "161523.450000", "161524.940000", "161526.430000", "161527.920000", "161529.410000", "161530.900000", "161532.390000", "161533.880000", "161535.370000", "161536.860000", "161538.350000", "161539.840000", "161541.330000", "161542.820000", "161544.310000", "161545.800000", "161547.290000", "161548.780000", "161550.270000", "161551.760000", "161553.250000", "161554.740000", "161556.230000", "161557.720000", "161559.210000", "161600.700000", "161602.190000", "161603.680000", "161605.170000", "161606.660000", "161608.150000", "161609.640000", "161611.130000", "161612.620000", "161614.110000", "161615.600000", "161617.090000", "161618.580000", "161620.070000", "161621.560000", "161623.050000", "161624.540000", "161626.030000", "161627.520000", "161629.010000", "161630.500000", "161631.990000", "161633.480000", "161634.970000", "161636.460000", "161637.950000", "161639.440000", "161640.930000", "161642.420000", "161643.910000", "161645.400000", "161646.890000", "161648.380000", "161649.870000", "161651.360000", "161652.850000", "161654.340000", "161655.830000", "161657.320000", "161658.810000", "161700.300000", "161701.790000", "161703.280000", "161704.770000", "161706.260000", "161707.750000", "161709.240000", "161710.730000", "161712.220000", "161713.710000", "161715.200000", "161716.690000", "161718.180000", "161719.670000", "161721.160000", "161722.650000", "161724.140000", "161725.630000", "161727.120000", "161728.610000", "161730.100000", "161731.590000", "161733.080000", "161734.570000", "161736.060000", "161737.550000", "161739.040000", "161740.530000", "161742.020000", "161743.510000", "161745.000000", "161746.490000", "161747.980000", "161749.470000", "161750.960000", "161752.450000", "161753.940000", "161755.430000", "161756.920000", "161758.410000", "161759.900000", "161801.390000", "161802.880000", "161804.370000", "161805.860000", "161807.350000", "161808.840000", "161810.330000", "161811.820000", "161813.310000", "161814.800000", "161816.290000", "161817.780000", "161819.270000", "161820.760000", "161822.250000", "161823.740000", "161825.230000", "161826.720000", "161828.210000", "161829.700000", "161831.190000", "161832.680000", "161834.170000", "161835.660000", "161837.150000", "161838.640000", "161840.130000", "161841.620000", "161843.110000", "161844.600000", "161846.090000", "161847.580000", "161849.070000", "161850.560000", "161852.050000", "161853.540000", "161855.030000", "161856.520000", "161858.010000", "161859.500000", "161900.990000", "161902.480000", "161903.970000", "161905.460000", "161906.950000", "161908.440000", "161909.930000", "161911.420000", "161912.910000", "161914.400000", "161915.890000", "161917.380000", "161918.870000", "161920.360000", "161921.850000", "161923.340000", "161924.830000", "161926.320000", "161927.810000", "161929.300000", "161930.790000", "161932.280000", "161933.770000", "161935.260000", "161936.750000", "161938.240000", "161939.730000", "161941.220000", "161942.710000", "161944.200000", "161945.690000", "161947.180000", "161948.670000", "161950.160000", "161951.650000", "161953.140000", "161954.630000", "161956.120000", "161957.610000", "161959.100000", "162000.590000", "162002.080000", "162003.570000", "162005.060000", "162006.550000", "162008.040000", "162009.530000", "162011.020000", "162012.510000", "162014.000000", "162015.490000", "162016.980000", "162018.470000", "162019.960000", "162021.450000", "162022.940000", "162024.430000", "162025.920000", "162027.410000", "162028.900000", "162030.390000", "162031.880000", "162033.370000", "162034.860000", "162036.350000", "162037.840000", "162039.330000", "162040.820000", "162042.310000", "162043.800000", "162045.290000", "162046.780000", "162048.270000", "162049.760000", "162051.250000", "162052.740000", "162054.230000", "162055.720000", "162057.210000", "162058.700000", "162100.190000", "162101.680000", "162103.170000", "162104.660000", "162106.150000", "162107.640000", "162109.130000", "162110.620000", "162112.110000", "162113.600000", "162115.090000", "162116.580000", "162118.070000", "162119.560000", "162121.050000", "162122.540000", "162124.030000", "162125.520000", "162127.010000", "162128.500000", "162129.990000", "162131.480000", "162132.970000", "162134.460000", "162135.950000", "162137.440000", "162138.930000", "162140.420000", "162141.910000", "162143.400000", "162144.890000", "162146.380000", "162147.870000", "162149.360000", "162150.850000", "162152.340000", "162153.830000", "162155.320000", "162156.810000", "162158.300000", "162159.790000", "162201.280000", "162202.770000", "162204.260000", "162205.750000", "162207.240000", "162208.730000", "162210.220000", "162211.710000", "162213.200000", "162214.690000", "162216.180000", "162217.670000", "162219.160000", "162220.650000", "162222.140000", "162223.630000", "162225.120000", "162226.610000", "162228.100000", "162229.590000"],
      "ContentTime": ["161155.082000", "161155.086000", "161155.089000", "161155.092000", "161155.096000", "161155.099000", "161155.102000", "161155.104000", "161155.107000", "161155.110000", "161155.113000", "161155.116000", "161155.119000", "161155.122000", "161155.124000", "161155.129000", "161155.132000", "161155.135000", "161155.138000", "161155.141000", "161155.144000", "161155.147000", "161155.149000", "161155.152000", "161155.155000", "161155.158000", "161155.161000", "161155.164000", "161155.167000", "161155.170000", "161215.034000", "161215.037000", "161215.040000", "161215.042000", "161215.045000", "161215.048000", "161215.051000", "161215.054000", "161215.057000", "161215.059000", "161215.062000", "161215.065000", "161215.068000", "161215.071000", "161215.074000", "161215.077000", "161215.080000", "161215.083000", "161215.086000", "161215.089000", "161235.033000", "161235.036000", "161235.039000", "161235.041000", "161235.044000", "161235.047000", "161235.050000", "161235.053000", "161235.055000", "161235.058000", "161235.061000", "161235.064000", "161235.070000", "161235.072000", "161235.075000", "161235.078000", "161235.081000", "161235.084000", "161235.087000", "161235.089000", "161235.092000", "161255.034000", "161255.037000", "161255.040000", "161255.042000", "161255.045000", "161255.048000", "161255.051000", "161255.060000", "161255.063000", "161255.065000", "161255.068000", "161255.071000", "161255.074000", "161255.077000", "161255.079000", "161255.082000", "161255.085000", "161255.088000", "161255.091000", "161255.094000", "161335.034000", "161335.038000", "161335.041000", "161335.043000", "161335.046000", "161335.049000", "161335.052000", "161335.055000", "161335.057000", "161335.060000", "161335.063000", "161335.066000", "161335.069000", "161335.072000", "161335.075000", "161335.077000", "161335.080000", "161335.083000", "161335.086000", "161335.089000", "161335.092000", "161335.095000", "161335.097000", "161335.100000", "161335.103000", "161335.106000", "161335.109000", "161335.112000", "161335.114000", "161335.117000", "161335.120000", "161335.123000", "161415.034000", "161415.037000", "161415.040000", "161415.042000", "161415.045000", "161415.048000", "161415.051000", "161415.054000", "161415.057000", "161415.059000", "161415.062000", "161415.065000", "161415.068000", "161415.071000", "161415.074000", "161415.076000", "161415.079000", "161415.082000", "161415.085000", "161415.088000", "161415.090000", "161415.093000", "161415.096000", "161415.099000", "161415.102000", "161415.105000", "161415.108000", "161455.033000", "161455.036000", "161455.039000", "161455.042000", "161455.044000", "161455.047000", "161455.050000", "161455.053000", "161455.056000", "161455.059000", "161455.061000", "161455.064000", "161455.067000", "161455.070000", "161455.083000", "161455.086000", "161455.089000", "161455.091000", "161455.094000", "161455.097000", "161455.100000", "161455.103000", "161455.106000", "161455.109000", "161455.112000", "161455.114000", "161455.117000", "161535.034000", "161535.037000", "161535.040000", "161535.043000", "161535.045000", "161535.048000", "161535.051000", "161535.054000", "161535.057000", "161535.060000", "161535.063000", "161535.065000", "161535.068000", "161535.071000", "161535.074000", "161535.077000", "161535.080000", "161535.082000", "161535.098000", "161535.100000", "161535.103000", "161535.106000", "161535.109000", "161535.112000", "161535.115000", "161535.117000", "161535.120000", "161615.034000", "161615.037000", "161615.041000", "161615.044000", "161615.047000", "161615.049000", "161615.052000", "161615.055000", "161615.058000", "161615.061000", "161615.064000", "161615.066000", "161615.069000", "161615.072000", "161615.075000", "161615.078000", "161615.081000", "161615.083000", "161615.086000", "161615.089000", "161615.092000", "161615.095000", "161615.098000", "161615.101000", "161615.103000", "161615.106000", "161615.109000", "161655.034000", "161655.037000", "161655.040000", "161655.043000", "161655.045000", "161655.048000", "161655.051000", "161655.054000", "161655.057000", "161655.060000", "161655.062000", "161655.065000", "161655.068000", "161655.071000", "161655.074000", "161655.077000", "161655.080000", "161655.082000", "161655.085000", "161655.088000", "161655.091000", "161655.094000", "161655.097000", "161655.100000", "161655.102000", "161655.105000", "161655.108000", "161735.034000", "161735.037000", "161735.040000", "161735.043000", "161735.046000", "161735.048000", "161735.051000", "161735.054000", "161735.057000", "161735.060000", "161735.063000", "161735.065000", "161735.068000", "161735.071000", "161735.074000", "161735.077000", "161735.080000", "161735.083000", "161735.085000", "161735.088000", "161735.091000", "161735.094000", "161735.097000", "161735.100000", "161735.103000", "161735.105000", "161735.108000", "161815.034000", "161815.037000", "161815.040000", "161815.043000", "161815.046000", "161815.048000", "161815.051000", "161815.054000", "161815.057000", "161815.060000", "161815.063000", "161815.065000", "161815.068000", "161815.071000", "161815.074000", "161815.077000", "161815.080000", "161815.083000", "161815.086000", "161815.089000", "161815.091000", "161815.094000", "161815.097000", "161815.100000", "161815.103000", "161815.106000", "161855.034000", "161855.037000", "161855.040000", "161855.043000", "161855.055000", "161855.058000", "161855.061000", "161855.064000", "161855.067000", "161855.069000", "161855.072000", "161855.075000", "161855.078000", "161855.081000", "161855.084000", "161855.087000", "161855.089000", "161855.092000", "161855.095000", "161855.098000", "161855.101000", "161855.103000", "161855.106000", "161855.109000", "161855.112000", "161855.115000", "161855.118000", "161935.033000", "161935.036000", "161935.039000", "161935.042000", "161935.045000", "161935.048000", "161935.051000", "161935.054000", "161935.056000", "161935.059000", "161935.062000", "161935.065000", "161935.068000", "161935.071000", "161935.073000", "161935.076000", "161935.079000", "161935.082000", "161935.085000", "161935.088000", "161935.090000", "161935.093000", "161935.096000", "161935.099000", "161935.102000", "161935.105000", "161935.107000", "162015.034000", "162015.037000", "162015.040000", "162015.043000", "162015.046000", "162015.048000", "162015.051000", "162015.054000", "162015.057000", "162015.060000", "162015.063000", "162015.066000", "162015.068000", "162015.080000", "162015.083000", "162015.086000", "162015.089000", "162015.092000", "162015.095000", "162015.097000", "162015.100000", "162015.103000", "162015.106000", "162015.109000", "162015.112000", "162015.114000", "162015.117000", "162055.034000", "162055.037000", "162055.040000", "162055.043000", "162055.046000", "162055.048000", "162055.051000", "162055.054000", "162055.057000", "162055.060000", "162055.063000", "162055.065000", "162055.068000", "162055.071000", "162055.074000", "162055.077000", "162055.080000", "162055.083000", "162055.085000", "162055.088000", "162055.091000", "162055.094000", "162055.097000", "162055.099000", "162055.102000", "162055.105000", "162055.108000", "162135.034000", "162135.037000", "162135.040000", "162135.043000", "162135.046000", "162135.048000", "162135.051000", "162135.054000", "162135.057000", "162135.060000", "162135.063000", "162135.065000", "162135.068000", "162135.071000", "162135.074000", "162135.077000", "162135.080000", "162135.083000", "162135.086000", "162135.088000", "162135.091000", "162135.094000", "162135.097000", "162135.100000", "162135.103000", "162135.106000", "162135.108000", "162215.034000", "162215.038000", "162215.041000", "162215.044000", "162215.047000", "162215.050000", "162215.053000", "162215.056000", "162215.059000", "162215.062000", "162215.065000", "162215.068000", "162215.070000", "162215.073000", "162215.076000", "162215.079000", "162215.082000", "162215.085000", "162215.088000", "162215.090000", "162215.093000", "162215.096000", "162215.099000", "162215.102000", "162215.105000", "162215.107000", "162231.496000", "162231.499000", "162231.502000", "162231.505000", "162231.508000", "162231.511000", "162231.514000", "162231.516000", "162231.519000", "162231.522000", "162231.525000", "162231.528000"],
