{
  "AcquisitionMatrixPE": 104,
  "AcquisitionNumber": 1,
  "AcquisitionTime": "13:29:34.235000",
  "BandwidthPerPixelPhaseEncode": 17.17,
  "BaseResolution": 104,
  "BodyPartExamined": "BRAIN",
  "CoilString": "HC1-7;NC1_2",
  "ConsistencyInfo": "N4_VE11C_LATEST_20160120",
  "ConversionSoftware": "dcm2niix",
  "ConversionSoftwareVersion": "v1.0.20190902",
  "DerivedVendorReportedEchoSpacing": 0.000560011,
  "DeviceSerialNumber": "167006",
  "DwellTime": 2.1e-06,
  "EchoTime": 0.037,
  "EchoTrainLength": 104,
  "EffectiveEchoSpacing": 0.000560011,
  "FlipAngle": 52,
  "ImageComments": "Unaliased_MB4_PE3_LB",
  "ImageOrientationPatientDICOM": [0.99988, 0.00538469, -0.0145321, -0.00872586, 0.970546, -0.240758],
  "ImageType": [
    "ORIGINAL",
    "PRIMARY",
    "M",
    "MB",
    "ND",
    "MOSAIC"
],
  "ImagingFrequency": 123.259,
  "InPlanePhaseEncodingDirectionDICOM": "COL",
  "InstitutionAddress": "Chemin_Queen-Mary_4565_Montreal_District_CA_H3W_1W5",
  "InstitutionName": "IUGM",
  "InstitutionalDepartmentName": "Department",
  "MRAcquisitionType": "2D",
  "MagneticFieldStrength": 3,
  "Manufacturer": "Siemens",
  "ManufacturersModelName": "Prisma_fit",
  "Modality": "MR",
  "MultibandAccelerationFactor": 4,
  "PartialFourier": 1,
  "PatientPosition": "HFS",
  "PercentPhaseFOV": 100,
  "PhaseEncodingDirection": "j",
  "PhaseEncodingSteps": 104,
  "PhaseResolution": 1,
  "PixelBandwidth": 2290,
  "ProcedureStepDescription": "video_friends",
  "ProtocolName": "func_task-friends-s03e16b",
  "PulseSequenceDetails": "%CustomerSeq%_cmrr_mbep2d_bold",
  "ReceiveCoilActiveElements": "HC1-7;NC1,2",
  "ReceiveCoilName": "HeadNeck_64",
  "ReconMatrixPE": 104,
  "RepetitionTime": 1.49,
  "SAR": 0.0288978,
  "ScanOptions": "FS",
  "ScanningSequence": "EP",
  "SequenceName": "epfid2d1_104",
  "SequenceVariant": "SK_SS",
  "SeriesDescription": "func_task-friends-s03e16b",
  "SeriesNumber": 11,
  "ShimSetting": [620, -7227, -8812, 753, 9, -29, 133, -10],
  "SliceThickness": 2,
  "SliceTiming": [0, 0.7825, 0.0975, 0.8825, 0.195, 0.98, 0.295, 1.0775, 0.3925, 1.175, 0.49, 1.2725, 0.5875, 1.3725, 0.685, 0, 0.7825, 0.0975, 0.8825, 0.195, 0.98, 0.295, 1.0775, 0.3925, 1.175, 0.49, 1.2725, 0.5875, 1.3725, 0.685, 0, 0.7825, 0.0975, 0.8825, 0.195, 0.98, 0.295, 1.0775, 0.3925, 1.175, 0.49, 1.2725, 0.5875, 1.3725, 0.685, 0, 0.7825, 0.0975, 0.8825, 0.195, 0.98, 0.295, 1.0775, 0.3925, 1.175, 0.49, 1.2725, 0.5875, 1.3725, 0.685],
  "SoftwareVersions": "syngo_MR_E11",
  "SpacingBetweenSlices": 2,
  "StationName": "MRC35049",
  "TaskName": "s03e16b",
  "TotalReadoutTime": 0.0576811,
  "TxRefAmp": 207.8,
  "WipMemBlock": "4d6577ef-dd60-41b1-9b92-3e709b6a47d5||Sequence: R016 ve11c/master r/e634e98; Dec 19 2017 11:00:25 by eja",
  "dcmmeta_affine": [
    [-1.9997597932815552, -0.017451729625463486, -0.025615349411964417, 106.4986572265625],
    [-0.010769383050501347, 1.941091775894165, -0.48171237111091614, -84.17218780517578],
    [-0.029064228758215904, 0.481516569852829, 1.9409526586532593, -62.79071044921875],
    [0.0, 0.0, 0.0, 1.0]
],
  "dcmmeta_reorient_transform": [
    [0.0, -1.0, 0.0, 103.0],
    [1.0, 0.0, 0.0, 0.0],
    [0.0, 0.0, 1.0, 0.0],
    [0.0, 0.0, 0.0, 1.0]
],
  "dcmmeta_shape": [104, 104, 60, 468],
  "dcmmeta_slice_dim": 2,
  "dcmmeta_version": 0.6,
  "global": {
    "const": {
      "AcquisitionMatrix": [104, 0, 0, 104],
      "AngioFlag": "N",
      "BitsAllocated": 16,
      "BitsStored": 16,
      "BodyPartExamined": "BRAIN",
      "Columns": 832,
      "EchoNumbers": 1,
      "EchoTime": 37.0,
      "EchoTrainLength": 104,
      "FlipAngle": 52.0,
      "HighBit": 15,
      "ImageOrientationPatient": [0.99987990417014, 0.00538469132173, -0.014532113958, -0.0087258648235, 0.9705458799491, -0.2407582899859],
      "ImagePositionPatient": [-826.26127189097, -826.23772215951, 172.65691088108],
      "ImageType": [
        "ORIGINAL",
        "PRIMARY",
        "M",
        "MB",
        "ND",
        "MOSAIC"
],
      "ImagedNucleus": "1H",
      "ImagingFrequency": 123.259078,
      "InPlanePhaseEncodingDirection": "COL",
      "MRAcquisitionType": "2D",
      "MagneticFieldStrength": 3.0,
      "Manufacturer": "SIEMENS",
      "ManufacturerModelName": "Prisma_fit",
      "Modality": "MR",
      "NumberOfAverages": 1.0,
      "NumberOfPhaseEncodingSteps": 104,
      "PercentPhaseFieldOfView": 100.0,
      "PercentSampling": 100.0,
      "PerformedProcedureStepStartTime": "125705.494000",
      "PhotometricInterpretation": "MONOCHROME2",
      "PixelBandwidth": 2290.0,
      "PixelRepresentation": 0,
      "PixelSpacing": [2.0, 2.0],
      "ProtocolName": "func_task-friends-s03e16b",
      "RepetitionTime": 1490.0,
      "Rows": 832,
      "SAR": 0.02889781576786,
      "SamplesPerPixel": 1,
      "ScanOptions": "FS",
      "ScanningSequence": "EP",
      "SequenceName": "epfid2d1_104",
      "SequenceVariant": [
        "SK",
        "SS"
],
      "SeriesDescription": "func_task-friends-s03e16b",
      "SeriesNumber": 11,
      "SeriesTime": "133056.885000",
      "SliceLocation": -42.027506385899,
      "SliceThickness": 2.0,
      "SmallestImagePixelValue": 0,
      "SoftwareVersions": "syngo MR E11",
      "SpacingBetweenSlices": 2.0000000079468,
      "SpecificCharacterSet": "ISO_IR 100",
      "StudyID": "1",
      "StudyTime": "125705.379000",
      "TransmitCoilName": "Body",
      "VariableFlipAngleFlag": "N",
      "WindowCenterWidthExplanation": "Algo1",
      "dBdt": 0.0},
    "slices": {}
  },
  "time": {
    "samples": {
      "AcquisitionNumber": [1, 2, 3, 4, 5, 6, 7, 8, 9, 10, 11, 12, 13, 14, 15, 16, 17, 18, 19, 20, 21, 22, 23, 24, 25, 26, 27, 28, 29, 30, 31, 32, 33, 34, 35, 36, 37, 38, 39, 40, 41, 42, 43, 44, 45, 46, 47, 48, 49, 50, 51, 52, 53, 54, 55, 56, 57, 58, 59, 60, 61, 62, 63, 64, 65, 66, 67, 68, 69, 70, 71, 72, 73, 74, 75, 76, 77, 78, 79, 80, 81, 82, 83, 84, 85, 86, 87, 88, 89, 90, 91, 92, 93, 94, 95, 96, 97, 98, 99, 100, 101, 102, 103, 104, 105, 106, 107, 108, 109, 110, 111, 112, 113, 114, 115, 116, 117, 118, 119, 120, 121, 122, 123, 124, 125, 126, 127, 128, 129, 130, 131, 132, 133, 134, 135, 136, 137, 138, 139, 140, 141, 142, 143, 144, 145, 146, 147, 148, 149, 150, 151, 152, 153, 154, 155, 156, 157, 158, 159, 160, 161, 162, 163, 164, 165, 166, 167, 168, 169, 170, 171, 172, 173, 174, 175, 176, 177, 178, 179, 180, 181, 182, 183, 184, 185, 186, 187, 188, 189, 190, 191, 192, 193, 194, 195, 196, 197, 198, 199, 200, 201, 202, 203, 204, 205, 206, 207, 208, 209, 210, 211, 212, 213, 214, 215, 216, 217, 218, 219, 220, 221, 222, 223, 224, 225, 226, 227, 228, 229, 230, 231, 232, 233, 234, 235, 236, 237, 238, 239, 240, 241, 242, 243, 244, 245, 246, 247, 248, 249, 250, 251, 252, 253, 254, 255, 256, 257, 258, 259, 260, 261, 262, 263, 264, 265, 266, 267, 268, 269, 270, 271, 272, 273, 274, 275, 276, 277, 278, 279, 280, 281, 282, 283, 284, 285, 286, 287, 288, 289, 290, 291, 292, 293, 294, 295, 296, 297, 298, 299, 300, 301, 302, 303, 304, 305, 306, 307, 308, 309, 310, 311, 312, 313, 314, 315, 316, 317, 318, 319, 320, 321, 322, 323, 324, 325, 326, 327, 328, 329, 330, 331, 332, 333, 334, 335, 336, 337, 338, 339, 340, 341, 342, 343, 344, 345, 346, 347, 348, 349, 350, 351, 352, 353, 354, 355, 356, 357, 358, 359, 360, 361, 362, 363, 364, 365, 366, 367, 368, 369, 370, 371, 372, 373, 374, 375, 376, 377, 378, 379, 380, 381, 382, 383, 384, 385, 386, 387, 388, 389, 390, 391, 392, 393, 394, 395, 396, 397, 398, 399, 400, 401, 402, 403, 404, 405, 406, 407, 408, 409, 410, 411, 412, 413, 414, 415, 416, 417, 418, 419, 420, 421, 422, 423, 424, 425, 426, 427, 428, 429, 430, 431, 432, 433, 434, 435, 436, 437, 438, 439, 440, 441, 442, 443, 444, 445, 446, 447, 448, 449, 450, 451, 452, 453, 454, 455, 456, 457, 458, 459, 460, 461, 462, 463, 464, 465, 466, 467, 468],
      "AcquisitionTime": ["132934.235000", "132935.725000", "132937.215000", "132938.705000", "132940.195000", "132941.685000", "132943.175000", "132944.665000", "132946.155000", "132947.645000", "132949.135000", "132950.625000", "132952.115000", "132953.605000", "132955.095000", "132956.585000", "132958.075000", "132959.565000", "133001.055000", "133002.545000", "133004.035000", "133005.525000", "133007.015000", "133008.505000", "133009.995000", "133011.485000", "133012.975000", "133014.465000", "133015.955000", "133017.445000", "133018.935000", "133020.425000", "133021.915000", "133023.405000", "133024.895000", "133026.385000", "133027.875000", "133029.365000", "133030.855000", "133032.345000", "133033.835000", "133035.325000", "133036.815000", "133038.305000", "133039.795000", "133041.285000", "133042.775000", "133044.265000", "133045.755000", "133047.245000", "133048.735000", "133050.225000", "133051.715000", "133053.205000", "133054.695000", "133056.185000", "133057.675000", "133059.165000", "133100.655000", "133102.145000", "133103.635000", "133105.125000", "133106.615000", "133108.105000", "133109.595000", "133111.085000", "133112.575000", "133114.065000", "133115.555000", "133117.045000", "133118.535000", "133120.025000", "133121.515000", "133123.005000", "133124.495000", "133125.985000", "133127.475000", "133128.965000", "133130.455000", "133131.945000", "133133.435000", "133134.925000", "133136.415000", "133137.905000", "133139.395000", "133140.885000", "133142.375000", "133143.865000", "133145.355000", "133146.845000", "133148.335000", "133149.825000", "133151.315000", "133152.805000", "133154.295000", "133155.785000", "133157.275000", "133158.765000", "133200.255000", "133201.745000", "133203.235000", "133204.725000", "133206.215000", "133207.705000", "133209.195000", "133210.685000", "133212.175000", "133213.665000", "133215.155000", "133216.645000", "133218.135000", "133219.625000", "133221.115000", "133222.605000", "133224.095000", "133225.585000", "133227.075000", "133228.565000", "133230.055000", "133231.545000", "133233.035000", "133234.525000", "133236.015000", "133237.505000", "133238.995000", "133240.485000", "133241.975000", "133243.465000", "133244.955000", "133246.445000", "133247.935000", "133249.425000", "133250.915000", "133252.405000", "133253.895000", "133255.385000", "133256.875000", "133258.365000", "133259.855000", "133301.345000", "133302.835000", "133304.325000", "133305.815000", "133307.305000", "133308.795000", "133310.285000", "133311.775000", "133313.265000", "133314.755000", "133316.245000", "133317.735000", "133319.225000", "133320.715000", "133322.205000", "133323.695000", "133325.185000", "133326.675000", "133328.165000", "133329.655000", "133331.145000", "133332.635000", "133334.125000", "133335.615000", "133337.105000", "133338.595000", "133340.085000", "133341.575000", "133343.065000", "133344.555000", "133346.045000", "133347.535000", "133349.025000", "133350.515000", "133352.005000", "133353.495000", "133354.985000", "133356.475000", "133357.965000", "133359.455000", "133400.945000", "133402.435000", "133403.925000", "133405.415000", "133406.905000", "133408.395000", "133409.885000", "133411.375000", "133412.865000", "133414.355000", "133415.845000", "133417.335000", "133418.825000", "133420.315000", "133421.805000", "133423.295000", "133424.785000", "133426.275000", "133427.765000", "133429.255000", "133430.745000", "133432.235000", "133433.725000", "133435.215000", "133436.705000", "133438.195000", "133439.685000", "133441.175000", "133442.665000", "133444.155000", "133445.645000", "133447.135000", "133448.625000", "133450.115000", "133451.605000", "133453.095000", "133454.585000", "133456.075000", "133457.565000", "133459.055000", "133500.545000", "133502.035000", "133503.525000", "133505.015000", "133506.505000", "133507.995000", "133509.485000", "133510.975000", "133512.465000", "133513.955000", "133515.445000", "133516.935000", "133518.425000", "133519.915000", "133521.405000", "133522.895000", "133524.385000", "133525.875000", "133527.365000", "133528.855000", "133530.345000", "133531.835000", "133533.325000", "133534.815000", "133536.305000", "133537.795000", "133539.285000", "133540.775000", "133542.265000", "133543.755000", "133545.245000", "133546.735000", "133548.225000", "133549.715000", "133551.205000", "133552.695000", "133554.185000", "133555.675000", "133557.165000", "133558.655000", "133600.145000", "133601.635000", "133603.125000", "133604.615000", "133606.105000", "133607.595000", "133609.085000", "133610.575000", "133612.065000", "133613.555000", "133615.045000", "133616.535000", "133618.025000", "133619.515000", "133621.005000", "133622.495000", "133623.985000", "133625.475000", "133626.965000", "133628.455000", "133629.945000", "133631.435000", "133632.925000", "133634.415000", "133635.905000", "133637.395000", "133638.885000", "133640.375000", "133641.865000", "133643.355000", "133644.845000", "133646.335000", "133647.825000", "133649.315000", "133650.805000", "133652.295000", "133653.785000", "133655.275000", "133656.765000", "133658.255000", "133659.745000", "133701.235000", "133702.725000", "133704.215000", "133705.705000", "133707.195000", "133708.685000", "133710.175000", "133711.665000", "133713.155000", "133714.645000", "133716.135000", "133717.625000", "133719.115000", "133720.605000", "133722.095000", "133723.585000", "133725.075000", "133726.565000", "133728.055000", "133729.545000", "133731.035000", "133732.525000", "133734.015000", "133735.505000", "133736.995000", "133738.485000", "133739.975000", "133741.465000", "133742.955000", "133744.445000", "133745.935000", "133747.425000", "133748.915000", "133750.405000", "133751.895000", "133753.385000", "133754.875000", "133756.365000", "133757.855000", "133759.345000", "133800.835000", "133802.325000", "133803.815000", "133805.305000", "133806.795000", "133808.285000", "133809.775000", "133811.265000", "133812.755000", "133814.245000", "133815.735000", "133817.225000", "133818.715000", "133820.205000", "133821.695000", "133823.185000", "133824.675000", "133826.165000", "133827.655000", "133829.145000", "133830.635000", "133832.125000", "133833.615000", "133835.105000", "133836.595000", "133838.085000", "133839.575000", "133841.065000", "133842.555000", "133844.045000", "133845.535000", "133847.025000", "133848.515000", "133850.005000", "133851.495000", "133852.985000", "133854.475000", "133855.965000", "133857.455000", "133858.945000", "133900.435000", "133901.925000", "133903.415000", "133904.905000", "133906.395000", "133907.885000", "133909.375000", "133910.865000", "133912.355000", "133913.845000", "133915.335000", "133916.825000", "133918.315000", "133919.805000", "133921.295000", "133922.785000", "133924.275000", "133925.765000", "133927.255000", "133928.745000", "133930.235000", "133931.725000", "133933.215000", "133934.705000", "133936.195000", "133937.685000", "133939.175000", "133940.665000", "133942.155000", "133943.645000", "133945.135000", "133946.625000", "133948.115000", "133949.605000", "133951.095000", "133952.585000", "133954.075000", "133955.565000", "133957.055000", "133958.545000", "134000.035000", "134001.525000", "134003.015000", "134004.505000", "134005.995000", "134007.485000", "134008.975000", "134010.465000", "134011.955000", "134013.445000", "134014.935000", "134016.425000", "134017.915000", "134019.405000", "134020.895000", "134022.385000", "134023.875000", "134025.365000", "134026.855000", "134028.345000", "134029.835000", "134031.325000", "134032.815000", "134034.305000", "134035.795000", "134037.285000", "134038.775000", "134040.265000", "134041.755000", "134043.245000", "134044.735000", "134046.225000", "134047.715000", "134049.205000", "134050.695000", "134052.185000", "134053.675000", "134055.165000", "134056.655000", "134058.145000", "134059.635000", "134101.125000", "134102.615000", "134104.105000", "134105.595000", "134107.085000", "134108.575000", "134110.065000"],
      "ContentTime": ["133056.888000", "133056.891000", "133056.894000", "133056.897000", "133056.900000", "133056.903000", "133056.906000", "133056.908000", "133056.911000", "133056.914000", "133056.917000", "133056.926000", "133056.929000", "133056.932000", "133056.935000", "133056.938000", "133056.941000", "133056.944000", "133056.947000", "133056.956000", "133056.959000", "133056.961000", "133056.964000", "133056.967000", "133056.970000", "133056.973000", "133056.976000", "133056.979000", "133116.830000", "133116.833000", "133116.836000", "133116.839000", "133116.842000", "133116.844000", "133116.847000", "133116.850000", "133116.853000", "133116.856000", "133116.859000", "133116.862000", "133116.865000", "133116.868000", "133116.876000", "133116.879000", "133116.882000", "133116.885000", "133116.888000", "133116.891000", "133136.830000", "133136.833000", "133136.836000", "133136.844000", "133136.847000", "133136.850000", "133136.853000", "133136.856000", "133136.859000", "133136.867000", "133136.870000", "133136.873000", "133136.875000", "133136.878000", "133136.881000", "133136.884000", "133136.887000", "133136.890000", "133136.893000", "133136.896000", "133156.830000", "133156.833000", "133156.836000", "133156.839000", "133156.842000", "133156.844000", "133156.847000", "133156.850000", "133156.853000", "133156.856000", "133156.859000", "133156.862000", "133156.865000", "133156.867000", "133156.870000", "133156.873000", "133156.876000", "133156.879000", "133156.882000", "133156.885000", "133216.830000", "133216.833000", "133216.836000", "133216.839000", "133216.842000", "133216.845000", "133216.853000", "133216.856000", "133216.859000", "133216.862000", "133216.864000", "133216.867000", "133216.870000", "133216.873000", "133216.876000", "133216.880000", "133216.884000", "133216.887000", "133216.890000", "133216.893000", "133256.830000", "133256.833000", "133256.836000", "133256.839000", "133256.842000", "133256.845000", "133256.847000", "133256.850000", "133256.853000", "133256.856000", "133256.859000", "133256.862000", "133256.865000", "133256.868000", "133256.871000", "133256.873000", "133256.876000", "133256.879000", "133256.882000", "133256.885000", "133256.888000", "133256.891000", "133256.894000", "133256.897000", "133256.900000", "133256.903000", "133256.906000", "133336.830000", "133336.833000", "133336.836000", "133336.839000", "133336.842000", "133336.845000", "133336.848000", "133336.851000", "133336.854000", "133336.857000", "133336.859000", "133336.862000", "133336.865000", "133336.868000", "133336.871000", "133336.874000", "133336.877000", "133336.880000", "133336.883000", "133336.885000", "133336.888000", "133336.891000", "133336.894000", "133336.897000", "133336.900000", "133336.903000", "133336.906000", "133416.830000", "133416.833000", "133416.836000", "133416.839000", "133416.842000", "133416.844000", "133416.847000", "133416.850000", "133416.853000", "133416.856000", "133416.859000", "133416.862000", "133416.865000", "133416.868000", "133416.870000", "133416.873000", "133416.876000", "133416.879000", "133416.882000", "133416.885000", "133416.888000", "133416.891000", "133416.894000", "133416.897000", "133416.900000", "133416.902000", "133416.905000", "133456.830000", "133456.871000", "133456.874000", "133456.877000", "133456.880000", "133456.883000", "133456.886000", "133456.889000", "133456.891000", "133456.894000", "133456.897000", "133456.900000", "133456.903000", "133456.911000", "133456.914000", "133456.917000", "133456.920000", "133456.923000", "133456.926000", "133456.929000", "133456.932000", "133456.935000", "133456.937000", "133456.940000", "133456.943000", "133456.946000", "133456.949000", "133536.831000", "133536.834000", "133536.837000", "133536.840000", "133536.843000", "133536.846000", "133536.849000", "133536.851000", "133536.854000", "133536.857000", "133536.860000", "133536.863000", "133536.866000", "133536.869000", "133536.872000", "133536.875000", "133536.877000", "133536.881000", "133536.906000", "133536.909000", "133536.912000", "133536.915000", "133536.918000", "133536.920000", "133536.923000", "133536.926000", "133536.929000", "133616.830000", "133616.833000", "133616.836000", "133616.839000", "133616.846000", "133616.849000", "133616.852000", "133616.855000", "133616.858000", "133616.861000", "133616.864000", "133616.867000", "133616.870000", "133616.872000", "133616.875000", "133616.878000", "133616.881000", "133616.884000", "133616.887000", "133616.890000", "133616.893000", "133616.896000", "133616.899000", "133616.901000", "133616.905000", "133616.907000", "133616.910000", "133656.830000", "133656.833000", "133656.836000", "133656.839000", "133656.842000", "133656.845000", "133656.848000", "133656.851000", "133656.853000", "133656.856000", "133656.859000", "133656.862000", "133656.865000", "133656.868000", "133656.871000", "133656.874000", "133656.878000", "133656.881000", "133656.884000", "133656.886000", "133656.889000", "133656.892000", "133656.895000", "133656.898000", "133656.901000", "133656.904000", "133736.830000", "133736.833000", "133736.836000", "133736.839000", "133736.842000", "133736.845000", "133736.848000", "133736.851000", "133736.853000", "133736.857000", "133736.859000", "133736.862000", "133736.865000", "133736.868000", "133736.871000", "133736.874000", "133736.877000", "133736.880000", "133736.883000", "133736.885000", "133736.888000", "133736.891000", "133736.894000", "133736.897000", "133736.900000", "133736.903000", "133736.906000", "133816.830000", "133816.833000", "133816.836000", "133816.839000", "133816.842000", "133816.848000", "133816.851000", "133816.854000", "133816.857000", "133816.860000", "133816.863000", "133816.866000", "133816.869000", "133816.872000", "133816.875000", "133816.877000", "133816.881000", "133816.883000", "133816.886000", "133816.889000", "133816.892000", "133816.895000", "133816.898000", "133816.901000", "133816.904000", "133816.907000", "133816.910000", "133856.830000", "133856.833000", "133856.836000", "133856.839000", "133856.842000", "133856.845000", "133856.847000", "133856.851000", "133856.853000", "133856.856000", "133856.859000", "133856.862000", "133856.865000", "133856.868000", "133856.871000", "133856.874000", "133856.877000", "133856.879000", "133856.882000", "133856.885000", "133856.888000", "133856.891000", "133856.894000", "133856.897000", "133856.900000", "133856.903000", "133856.906000", "133936.830000", "133936.833000", "133936.836000", "133936.839000", "133936.842000", "133936.845000", "133936.848000", "133936.851000", "133936.853000", "133936.856000", "133936.859000", "133936.862000", "133936.865000", "133936.868000", "133936.871000", "133936.874000", "133936.877000", "133936.880000", "133936.883000", "133936.886000", "133936.888000", "133936.891000", "133936.894000", "133936.897000", "133936.900000", "133936.903000", "133936.906000", "134016.830000", "134016.833000", "134016.836000", "134016.839000", "134016.842000", "134016.845000", "134016.848000", "134016.851000", "134016.854000", "134016.857000", "134016.860000", "134016.862000", "134016.865000", "134016.868000", "134016.884000", "134016.887000", "134016.890000", "134016.893000", "134016.895000", "134016.898000", "134016.901000", "134016.904000", "134016.907000", "134016.910000", "134016.913000", "134016.916000", "134016.919000", "134056.830000", "134056.833000", "134056.836000", "134056.839000", "134056.842000", "134056.845000", "134056.848000", "134056.851000", "134056.854000", "134056.857000", "134056.860000", "134056.862000", "134056.865000", "134056.868000", "134056.871000", "134056.874000", "134056.877000", "134056.880000", "134056.884000", "134056.888000", "134056.892000", "134056.895000", "134056.899000", "134056.902000", "134056.905000", "134056.908000", "134111.855000", "134111.858000", "134111.861000", "134111.864000", "134111.867000", "134111.870000", "134111.873000", "134111.876000", "134111.879000", "134111.882000", "134111.885000"],
