{
  "AcquisitionMatrixPE": 104,
  "AcquisitionNumber": 1,
  "AcquisitionTime": "13:41:49.342500",
  "BandwidthPerPixelPhaseEncode": 17.17,
  "BaseResolution": 104,
  "BodyPartExamined": "BRAIN",
  "CoilString": "HC1-7;NC1_2",
  "ConsistencyInfo": "N4_VE11C_LATEST_20160120",
  "ConversionSoftware": "dcm2niix",
  "ConversionSoftwareVersion": "v1.0.20190902",
  "DerivedVendorReportedEchoSpacing": 0.000560011,
  "DeviceSerialNumber": "167006",
  "DwellTime": 2.1e-06,
  "EchoTime": 0.037,
  "EchoTrainLength": 104,
  "EffectiveEchoSpacing": 0.000560011,
  "FlipAngle": 52,
  "ImageComments": "Unaliased_MB4_PE3_LB",
  "ImageOrientationPatientDICOM": [0.99988, 0.00538469, -0.0145321, -0.00872586, 0.970546, -0.240758],
  "ImageType": [
    "ORIGINAL",
    "PRIMARY",
    "M",
    "MB",
    "ND",
    "MOSAIC"
],
  "ImagingFrequency": 123.259,
  "InPlanePhaseEncodingDirectionDICOM": "COL",
  "InstitutionAddress": "Chemin_Queen-Mary_4565_Montreal_District_CA_H3W_1W5",
  "InstitutionName": "IUGM",
  "InstitutionalDepartmentName": "Department",
  "MRAcquisitionType": "2D",
  "MagneticFieldStrength": 3,
  "Manufacturer": "Siemens",
  "ManufacturersModelName": "Prisma_fit",
  "Modality": "MR",
  "MultibandAccelerationFactor": 4,
  "PartialFourier": 1,
  "PatientPosition": "HFS",
  "PercentPhaseFOV": 100,
  "PhaseEncodingDirection": "j",
  "PhaseEncodingSteps": 104,
  "PhaseResolution": 1,
  "PixelBandwidth": 2290,
  "ProcedureStepDescription": "video_friends",
  "ProtocolName": "func_task-friends-s03e17a",
  "PulseSequenceDetails": "%CustomerSeq%_cmrr_mbep2d_bold",
  "ReceiveCoilActiveElements": "HC1-7;NC1,2",
  "ReceiveCoilName": "HeadNeck_64",
  "ReconMatrixPE": 104,
  "RepetitionTime": 1.49,
  "SAR": 0.0288941,
  "ScanOptions": "FS",
  "ScanningSequence": "EP",
  "SequenceName": "epfid2d1_104",
  "SequenceVariant": "SK_SS",
  "SeriesDescription": "func_task-friends-s03e17a",
  "SeriesNumber": 13,
  "ShimSetting": [620, -7227, -8812, 753, 9, -29, 133, -10],
  "SliceThickness": 2,
  "SliceTiming": [0, 0.7825, 0.0975, 0.8825, 0.195, 0.98, 0.2925, 1.0775, 0.3925, 1.175, 0.49, 1.2725, 0.5875, 1.3725, 0.685, 0, 0.7825, 0.0975, 0.8825, 0.195, 0.98, 0.2925, 1.0775, 0.3925, 1.175, 0.49, 1.2725, 0.5875, 1.3725, 0.685, 0, 0.7825, 0.0975, 0.8825, 0.195, 0.98, 0.2925, 1.0775, 0.3925, 1.175, 0.49, 1.2725, 0.5875, 1.3725, 0.685, 0, 0.7825, 0.0975, 0.8825, 0.195, 0.98, 0.2925, 1.0775, 0.3925, 1.175, 0.49, 1.2725, 0.5875, 1.3725, 0.685],
  "SoftwareVersions": "syngo_MR_E11",
  "SpacingBetweenSlices": 2,
  "StationName": "MRC35049",
  "TaskName": "s03e17a",
  "TotalReadoutTime": 0.0576811,
  "TxRefAmp": 207.8,
  "WipMemBlock": "97ae553c-3984-4166-9765-90e9a2b64dcd||Sequence: R016 ve11c/master r/e634e98; Dec 19 2017 11:00:25 by eja",
  "dcmmeta_affine": [
    [-1.9997597932815552, -0.017451729625463486, -0.025615349411964417, 106.4986572265625],
    [-0.010769383050501347, 1.941091775894165, -0.48171237111091614, -84.17218780517578],
    [-0.029064228758215904, 0.481516569852829, 1.9409526586532593, -62.79071044921875],
    [0.0, 0.0, 0.0, 1.0]
],
  "dcmmeta_reorient_transform": [
    [0.0, -1.0, 0.0, 103.0],
    [1.0, 0.0, 0.0, 0.0],
    [0.0, 0.0, 1.0, 0.0],
    [0.0, 0.0, 0.0, 1.0]
],
  "dcmmeta_shape": [104, 104, 60, 454],
  "dcmmeta_slice_dim": 2,
  "dcmmeta_version": 0.6,
  "global": {
    "const": {
      "AcquisitionMatrix": [104, 0, 0, 104],
      "AngioFlag": "N",
      "BitsAllocated": 16,
      "BitsStored": 16,
      "BodyPartExamined": "BRAIN",
      "Columns": 832,
      "EchoNumbers": 1,
      "EchoTime": 37.0,
      "EchoTrainLength": 104,
      "FlipAngle": 52.0,
      "HighBit": 15,
      "ImageOrientationPatient": [0.99987990417014, 0.00538469132173, -0.014532113958, -0.0087258648235, 0.9705458799491, -0.2407582899859],
      "ImagePositionPatient": [-826.26127189097, -826.23772215951, 172.65691088108],
      "ImageType": [
        "ORIGINAL",
        "PRIMARY",
        "M",
        "MB",
        "ND",
        "MOSAIC"
],
      "ImagedNucleus": "1H",
      "ImagingFrequency": 123.259084,
      "InPlanePhaseEncodingDirection": "COL",
      "MRAcquisitionType": "2D",
      "MagneticFieldStrength": 3.0,
      "Manufacturer": "SIEMENS",
      "ManufacturerModelName": "Prisma_fit",
      "Modality": "MR",
      "NumberOfAverages": 1.0,
      "NumberOfPhaseEncodingSteps": 104,
      "PercentPhaseFieldOfView": 100.0,
      "PercentSampling": 100.0,
      "PerformedProcedureStepStartTime": "125705.494000",
      "PhotometricInterpretation": "MONOCHROME2",
      "PixelBandwidth": 2290.0,
      "PixelRepresentation": 0,
      "PixelSpacing": [2.0, 2.0],
      "ProtocolName": "func_task-friends-s03e17a",
      "RepetitionTime": 1490.0,
      "Rows": 832,
      "SAR": 0.02889405867913,
      "SamplesPerPixel": 1,
      "ScanOptions": "FS",
      "ScanningSequence": "EP",
      "SequenceName": "epfid2d1_104",
      "SequenceVariant": [
        "SK",
        "SS"
],
      "SeriesDescription": "func_task-friends-s03e17a",
      "SeriesNumber": 13,
      "SeriesTime": "134256.725000",
      "SliceLocation": -42.027506385899,
      "SliceThickness": 2.0,
      "SmallestImagePixelValue": 0,
      "SoftwareVersions": "syngo MR E11",
      "SpacingBetweenSlices": 2.0000000079468,
      "SpecificCharacterSet": "ISO_IR 100",
      "StudyID": "1",
      "StudyTime": "125705.379000",
      "TransmitCoilName": "Body",
      "VariableFlipAngleFlag": "N",
      "WindowCenterWidthExplanation": "Algo1",
      "dBdt": 0.0},
    "slices": {}
  },
  "time": {
    "samples": {
      "AcquisitionNumber": [1, 2, 3, 4, 5, 6, 7, 8, 9, 10, 11, 12, 13, 14, 15, 16, 17, 18, 19, 20, 21, 22, 23, 24, 25, 26, 27, 28, 29, 30, 31, 32, 33, 34, 35, 36, 37, 38, 39, 40, 41, 42, 43, 44, 45, 46, 47, 48, 49, 50, 51, 52, 53, 54, 55, 56, 57, 58, 59, 60, 61, 62, 63, 64, 65, 66, 67, 68, 69, 70, 71, 72, 73, 74, 75, 76, 77, 78, 79, 80, 81, 82, 83, 84, 85, 86, 87, 88, 89, 90, 91, 92, 93, 94, 95, 96, 97, 98, 99, 100, 101, 102, 103, 104, 105, 106, 107, 108, 109, 110, 111, 112, 113, 114, 115, 116, 117, 118, 119, 120, 121, 122, 123, 124, 125, 126, 127, 128, 129, 130, 131, 132, 133, 134, 135, 136, 137, 138, 139, 140, 141, 142, 143, 144, 145, 146, 147, 148, 149, 150, 151, 152, 153, 154, 155, 156, 157, 158, 159, 160, 161, 162, 163, 164, 165, 166, 167, 168, 169, 170, 171, 172, 173, 174, 175, 176, 177, 178, 179, 180, 181, 182, 183, 184, 185, 186, 187, 188, 189, 190, 191, 192, 193, 194, 195, 196, 197, 198, 199, 200, 201, 202, 203, 204, 205, 206, 207, 208, 209, 210, 211, 212, 213, 214, 215, 216, 217, 218, 219, 220, 221, 222, 223, 224, 225, 226, 227, 228, 229, 230, 231, 232, 233, 234, 235, 236, 237, 238, 239, 240, 241, 242, 243, 244, 245, 246, 247, 248, 249, 250, 251, 252, 253, 254, 255, 256, 257, 258, 259, 260, 261, 262, 263, 264, 265, 266, 267, 268, 269, 270, 271, 272, 273, 274, 275, 276, 277, 278, 279, 280, 281, 282, 283, 284, 285, 286, 287, 288, 289, 290, 291, 292, 293, 294, 295, 296, 297, 298, 299, 300, 301, 302, 303, 304, 305, 306, 307, 308, 309, 310, 311, 312, 313, 314, 315, 316, 317, 318, 319, 320, 321, 322, 323, 324, 325, 326, 327, 328, 329, 330, 331, 332, 333, 334, 335, 336, 337, 338, 339, 340, 341, 342, 343, 344, 345, 346, 347, 348, 349, 350, 351, 352, 353, 354, 355, 356, 357, 358, 359, 360, 361, 362, 363, 364, 365, 366, 367, 368, 369, 370, 371, 372, 373, 374, 375, 376, 377, 378, 379, 380, 381, 382, 383, 384, 385, 386, 387, 388, 389, 390, 391, 392, 393, 394, 395, 396, 397, 398, 399, 400, 401, 402, 403, 404, 405, 406, 407, 408, 409, 410, 411, 412, 413, 414, 415, 416, 417, 418, 419, 420, 421, 422, 423, 424, 425, 426, 427, 428, 429, 430, 431, 432, 433, 434, 435, 436, 437, 438, 439, 440, 441, 442, 443, 444, 445, 446, 447, 448, 449, 450, 451, 452, 453, 454],
      "AcquisitionTime": ["134149.342500", "134150.832500", "134152.322500", "134153.812500", "134155.302500", "134156.792500", "134158.282500", "134159.772500", "134201.262500", "134202.752500", "134204.242500", "134205.732500", "134207.222500", "134208.712500", "134210.202500", "134211.692500", "134213.182500", "134214.672500", "134216.162500", "134217.652500", "134219.142500", "134220.632500", "134222.122500", "134223.612500", "134225.102500", "134226.592500", "134228.082500", "134229.572500", "134231.062500", "134232.552500", "134234.042500", "134235.532500", "134237.022500", "134238.512500", "134240.002500", "134241.492500", "134242.982500", "134244.472500", "134245.962500", "134247.452500", "134248.942500", "134250.432500", "134251.922500", "134253.412500", "134254.902500", "134256.392500", "134257.882500", "134259.372500", "134300.862500", "134302.352500", "134303.842500", "134305.332500", "134306.822500", "134308.312500", "134309.802500", "134311.292500", "134312.782500", "134314.272500", "134315.762500", "134317.252500", "134318.742500", "134320.232500", "134321.722500", "134323.212500", "134324.702500", "134326.192500", "134327.682500", "134329.172500", "134330.662500", "134332.152500", "134333.642500", "134335.132500", "134336.622500", "134338.112500", "134339.602500", "134341.092500", "134342.582500", "134344.072500", "134345.562500", "134347.052500", "134348.542500", "134350.032500", "134351.522500", "134353.012500", "134354.502500", "134355.992500", "134357.482500", "134358.972500", "134400.462500", "134401.952500", "134403.442500", "134404.932500", "134406.422500", "134407.912500", "134409.402500", "134410.892500", "134412.382500", "134413.872500", "134415.362500", "134416.852500", "134418.342500", "134419.832500", "134421.322500", "134422.812500", "134424.302500", "134425.792500", "134427.282500", "134428.772500", "134430.262500", "134431.752500", "134433.242500", "134434.732500", "134436.222500", "134437.712500", "134439.202500", "134440.692500", "134442.182500", "134443.672500", "134445.162500", "134446.652500", "134448.142500", "134449.632500", "134451.122500", "134452.612500", "134454.102500", "134455.592500", "134457.082500", "134458.572500", "134500.062500", "134501.552500", "134503.042500", "134504.532500", "134506.022500", "134507.512500", "134509.002500", "134510.492500", "134511.982500", "134513.472500", "134514.962500", "134516.452500", "134517.942500", "134519.432500", "134520.922500", "134522.412500", "134523.902500", "134525.392500", "134526.882500", "134528.372500", "134529.862500", "134531.352500", "134532.842500", "134534.332500", "134535.822500", "134537.312500", "134538.802500", "134540.292500", "134541.782500", "134543.272500", "134544.762500", "134546.252500", "134547.742500", "134549.232500", "134550.722500", "134552.212500", "134553.702500", "134555.192500", "134556.682500", "134558.172500", "134559.662500", "134601.152500", "134602.642500", "134604.132500", "134605.622500", "134607.112500", "134608.602500", "134610.092500", "134611.582500", "134613.072500", "134614.562500", "134616.052500", "134617.542500", "134619.032500", "134620.522500", "134622.012500", "134623.502500", "134624.992500", "134626.482500", "134627.972500", "134629.462500", "134630.952500", "134632.442500", "134633.932500", "134635.422500", "134636.912500", "134638.402500", "134639.892500", "134641.382500", "134642.872500", "134644.362500", "134645.852500", "134647.342500", "134648.832500", "134650.322500", "134651.812500", "134653.302500", "134654.792500", "134656.282500", "134657.772500", "134659.262500", "134700.752500", "134702.242500", "134703.732500", "134705.222500", "134706.712500", "134708.202500", "134709.692500", "134711.182500", "134712.672500", "134714.162500", "134715.652500", "134717.142500", "134718.632500", "134720.122500", "134721.612500", "134723.102500", "134724.592500", "134726.082500", "134727.572500", "134729.062500", "134730.552500", "134732.042500", "134733.532500", "134735.022500", "134736.512500", "134738.002500", "134739.492500", "134740.982500", "134742.472500", "134743.962500", "134745.452500", "134746.942500", "134748.432500", "134749.922500", "134751.412500", "134752.902500", "134754.392500", "134755.882500", "134757.372500", "134758.862500", "134800.352500", "134801.842500", "134803.332500", "134804.822500", "134806.312500", "134807.802500", "134809.292500", "134810.782500", "134812.272500", "134813.762500", "134815.252500", "134816.742500", "134818.232500", "134819.722500", "134821.212500", "134822.702500", "134824.192500", "134825.682500", "134827.172500", "134828.662500", "134830.152500", "134831.642500", "134833.132500", "134834.622500", "134836.112500", "134837.602500", "134839.092500", "134840.582500", "134842.072500", "134843.562500", "134845.052500", "134846.542500", "134848.032500", "134849.522500", "134851.012500", "134852.502500", "134853.992500", "134855.482500", "134856.972500", "134858.462500", "134859.952500", "134901.442500", "134902.932500", "134904.422500", "134905.912500", "134907.402500", "134908.892500", "134910.382500", "134911.872500", "134913.362500", "134914.852500", "134916.342500", "134917.832500", "134919.322500", "134920.812500", "134922.302500", "134923.792500", "134925.282500", "134926.772500", "134928.262500", "134929.752500", "134931.242500", "134932.732500", "134934.222500", "134935.712500", "134937.202500", "134938.692500", "134940.182500", "134941.672500", "134943.162500", "134944.652500", "134946.142500", "134947.632500", "134949.122500", "134950.612500", "134952.102500", "134953.592500", "134955.082500", "134956.572500", "134958.062500", "134959.552500", "135001.042500", "135002.532500", "135004.022500", "135005.512500", "135007.002500", "135008.492500", "135009.982500", "135011.472500", "135012.962500", "135014.452500", "135015.942500", "135017.432500", "135018.922500", "135020.412500", "135021.902500", "135023.392500", "135024.882500", "135026.372500", "135027.862500", "135029.352500", "135030.842500", "135032.332500", "135033.822500", "135035.312500", "135036.802500", "135038.292500", "135039.782500", "135041.272500", "135042.762500", "135044.252500", "135045.742500", "135047.232500", "135048.722500", "135050.212500", "135051.702500", "135053.192500", "135054.682500", "135056.172500", "135057.662500", "135059.152500", "135100.642500", "135102.132500", "135103.622500", "135105.112500", "135106.602500", "135108.092500", "135109.582500", "135111.072500", "135112.562500", "135114.052500", "135115.542500", "135117.032500", "135118.522500", "135120.012500", "135121.502500", "135122.992500", "135124.482500", "135125.972500", "135127.462500", "135128.952500", "135130.442500", "135131.932500", "135133.422500", "135134.912500", "135136.402500", "135137.892500", "135139.382500", "135140.872500", "135142.362500", "135143.852500", "135145.342500", "135146.832500", "135148.322500", "135149.812500", "135151.302500", "135152.792500", "135154.282500", "135155.772500", "135157.262500", "135158.752500", "135200.242500", "135201.732500", "135203.222500", "135204.712500", "135206.202500", "135207.692500", "135209.182500", "135210.672500", "135212.162500", "135213.652500", "135215.142500", "135216.632500", "135218.122500", "135219.612500", "135221.102500", "135222.592500", "135224.082500", "135225.572500", "135227.062500", "135228.552500", "135230.042500", "135231.532500", "135233.022500", "135234.512500", "135236.002500", "135237.492500", "135238.982500", "135240.472500", "135241.962500", "135243.452500", "135244.942500", "135246.432500", "135247.922500", "135249.412500", "135250.902500", "135252.392500", "135253.882500", "135255.372500", "135256.862500", "135258.352500", "135259.842500", "135301.332500", "135302.822500", "135304.312500"],
      "ContentTime": ["134256.728000", "134256.731000", "134256.734000", "134256.737000", "134256.744000", "134256.747000", "134256.750000", "134256.753000", "134256.756000", "134256.759000", "134256.762000", "134316.691000", "134316.694000", "134316.697000", "134316.700000", "134316.702000", "134316.705000", "134316.708000", "134316.711000", "134316.714000", "134316.717000", "134316.720000", "134316.723000", "134316.725000", "134316.728000", "134316.731000", "134316.734000", "134316.737000", "134316.740000", "134316.743000", "134316.746000", "134316.749000", "134336.691000", "134336.694000", "134336.697000", "134336.700000", "134336.702000", "134336.705000", "134336.715000", "134336.718000", "134336.721000", "134336.724000", "134336.727000", "134336.729000", "134336.732000", "134336.735000", "134336.738000", "134336.741000", "134336.744000", "134336.747000", "134336.750000", "134336.752000", "134356.691000", "134356.694000", "134356.697000", "134356.700000", "134356.702000", "134356.705000", "134356.708000", "134356.711000", "134356.714000", "134356.717000", "134356.720000", "134356.723000", "134356.726000", "134356.729000", "134356.732000", "134356.735000", "134356.738000", "134356.741000", "134356.744000", "134356.746000", "134416.691000", "134416.694000", "134416.697000", "134416.700000", "134416.702000", "134416.706000", "134416.708000", "134416.711000", "134416.714000", "134416.717000", "134416.720000", "134416.723000", "134416.726000", "134416.729000", "134416.731000", "134416.734000", "134416.737000", "134416.740000", "134416.743000", "134416.746000", "134456.691000", "134456.694000", "134456.697000", "134456.700000", "134456.703000", "134456.705000", "134456.708000", "134456.711000", "134456.714000", "134456.717000", "134456.720000", "134456.723000", "134456.726000", "134456.729000", "134456.731000", "134456.734000", "134456.737000", "134456.740000", "134456.743000", "134456.746000", "134456.749000", "134456.752000", "134456.754000", "134456.757000", "134456.760000", "134456.763000", "134456.771000", "134456.774000", "134456.777000", "134456.779000", "134456.782000", "134456.785000", "134456.788000", "134536.691000", "134536.694000", "134536.697000", "134536.700000", "134536.711000", "134536.714000", "134536.717000", "134536.719000", "134536.722000", "134536.725000", "134536.728000", "134536.731000", "134536.734000", "134536.737000", "134536.740000", "134536.743000", "134536.746000", "134536.761000", "134536.764000", "134536.767000", "134536.779000", "134536.782000", "134536.785000", "134536.788000", "134536.791000", "134536.794000", "134536.797000", "134616.691000", "134616.694000", "134616.697000", "134616.700000", "134616.703000", "134616.706000", "134616.709000", "134616.711000", "134616.714000", "134616.717000", "134616.720000", "134616.723000", "134616.726000", "134616.729000", "134616.732000", "134616.735000", "134616.738000", "134616.741000", "134616.744000", "134616.747000", "134616.750000", "134616.753000", "134616.756000", "134616.759000", "134616.761000", "134616.764000", "134656.691000", "134656.694000", "134656.697000", "134656.700000", "134656.703000", "134656.706000", "134656.709000", "134656.712000", "134656.715000", "134656.718000", "134656.721000", "134656.723000", "134656.726000", "134656.729000", "134656.732000", "134656.735000", "134656.738000", "134656.741000", "134656.744000", "134656.747000", "134656.749000", "134656.753000", "134656.755000", "134656.758000", "134656.761000", "134656.764000", "134656.767000", "134736.691000", "134736.694000", "134736.697000", "134736.700000", "134736.703000", "134736.706000", "134736.708000", "134736.711000", "134736.714000", "134736.717000", "134736.720000", "134736.723000", "134736.726000", "134736.729000", "134736.732000", "134736.735000", "134736.738000", "134736.741000", "134736.743000", "134736.746000", "134736.749000", "134736.752000", "134736.755000", "134736.758000", "134736.761000", "134736.764000", "134736.767000", "134816.691000", "134816.694000", "134816.697000", "134816.700000", "134816.703000", "134816.706000", "134816.708000", "134816.711000", "134816.714000", "134816.717000", "134816.720000", "134816.723000", "134816.726000", "134816.729000", "134816.732000", "134816.735000", "134816.738000", "134816.741000", "134816.743000", "134816.747000", "134816.749000", "134816.752000", "134816.755000", "134816.758000", "134816.761000", "134816.764000", "134816.767000", "134856.691000", "134856.694000", "134856.697000", "134856.700000", "134856.703000", "134856.706000", "134856.709000", "134856.712000", "134856.715000", "134856.718000", "134856.721000", "134856.724000", "134856.727000", "134856.730000", "134856.739000", "134856.742000", "134856.745000", "134856.748000", "134856.751000", "134856.754000", "134856.756000", "134856.759000", "134856.762000", "134856.765000", "134856.768000", "134856.771000", "134856.774000", "134936.691000", "134936.694000", "134936.697000", "134936.700000", "134936.703000", "134936.706000", "134936.709000", "134936.712000", "134936.715000", "134936.718000", "134936.720000", "134936.723000", "134936.726000", "134936.729000", "134936.732000", "134936.735000", "134936.738000", "134936.741000", "134936.744000", "134936.747000", "134936.749000", "134936.753000", "134936.755000", "134936.758000", "134936.761000", "134936.764000", "134936.767000", "135016.691000", "135016.694000", "135016.697000", "135016.700000", "135016.703000", "135016.705000", "135016.709000", "135016.711000", "135016.714000", "135016.717000", "135016.720000", "135016.723000", "135016.726000", "135016.739000", "135016.747000", "135016.750000", "135016.753000", "135016.756000", "135016.759000", "135016.763000", "135016.766000", "135016.927000", "135016.930000", "135016.933000", "135016.936000", "135016.939000", "135056.691000", "135056.694000", "135056.697000", "135056.700000", "135056.703000", "135056.706000", "135056.709000", "135056.712000", "135056.714000", "135056.717000", "135056.720000", "135056.723000", "135056.726000", "135056.729000", "135056.732000", "135056.735000", "135056.738000", "135056.741000", "135056.744000", "135056.747000", "135056.750000", "135056.753000", "135056.756000", "135056.759000", "135056.762000", "135056.764000", "135056.768000", "135136.692000", "135136.695000", "135136.698000", "135136.701000", "135136.704000", "135136.707000", "135136.710000", "135136.713000", "135136.716000", "135136.719000", "135136.722000", "135136.724000", "135136.727000", "135136.730000", "135136.733000", "135136.736000", "135136.739000", "135136.742000", "135136.745000", "135136.748000", "135136.751000", "135136.754000", "135136.757000", "135136.759000", "135136.762000", "135136.765000", "135136.768000", "135216.691000", "135216.694000", "135216.697000", "135216.700000", "135216.703000", "135216.706000", "135216.708000", "135216.711000", "135216.714000", "135216.717000", "135216.720000", "135216.723000", "135216.726000", "135216.729000", "135216.732000", "135216.735000", "135216.738000", "135216.740000", "135216.743000", "135216.746000", "135216.749000", "135216.752000", "135216.755000", "135216.758000", "135216.760000", "135216.763000", "135216.766000", "135256.691000", "135256.694000", "135256.697000", "135256.700000", "135256.703000", "135256.706000", "135256.709000", "135256.712000", "135256.714000", "135256.717000", "135256.720000", "135256.723000", "135256.726000", "135256.729000", "135256.732000", "135256.735000", "135256.738000", "135256.741000", "135256.744000", "135256.747000", "135256.749000", "135256.752000", "135256.755000", "135256.758000", "135256.761000", "135256.764000", "135256.767000", "135306.656000", "135306.659000", "135306.662000", "135306.665000", "135306.667000", "135306.670000", "135306.673000"],
