{
  "AcquisitionMatrixPE": 104,
  "AcquisitionNumber": 1,
  "AcquisitionTime": "13:53:29.680000",
  "BandwidthPerPixelPhaseEncode": 17.17,
  "BaseResolution": 104,
  "BodyPartExamined": "BRAIN",
  "CoilString": "HC1-7;NC1_2",
  "ConsistencyInfo": "N4_VE11C_LATEST_20160120",
  "ConversionSoftware": "dcm2niix",
  "ConversionSoftwareVersion": "v1.0.20190902",
  "DerivedVendorReportedEchoSpacing": 0.000560011,
  "DeviceSerialNumber": "167006",
  "DwellTime": 2.1e-06,
  "EchoTime": 0.037,
  "EchoTrainLength": 104,
  "EffectiveEchoSpacing": 0.000560011,
  "FlipAngle": 52,
  "ImageComments": "Unaliased_MB4_PE3_LB",
  "ImageOrientationPatientDICOM": [0.99988, 0.00538469, -0.0145321, -0.00872586, 0.970546, -0.240758],
  "ImageType": [
    "ORIGINAL",
    "PRIMARY",
    "M",
    "MB",
    "ND",
    "MOSAIC"
],
  "ImagingFrequency": 123.259,
  "InPlanePhaseEncodingDirectionDICOM": "COL",
  "InstitutionAddress": "Chemin_Queen-Mary_4565_Montreal_District_CA_H3W_1W5",
  "InstitutionName": "IUGM",
  "InstitutionalDepartmentName": "Department",
  "MRAcquisitionType": "2D",
  "MagneticFieldStrength": 3,
  "Manufacturer": "Siemens",
  "ManufacturersModelName": "Prisma_fit",
  "Modality": "MR",
  "MultibandAccelerationFactor": 4,
  "PartialFourier": 1,
  "PatientPosition": "HFS",
  "PercentPhaseFOV": 100,
  "PhaseEncodingDirection": "j",
  "PhaseEncodingSteps": 104,
  "PhaseResolution": 1,
  "PixelBandwidth": 2290,
  "ProcedureStepDescription": "video_friends",
  "ProtocolName": "func_task-friends-s03e17b",
  "PulseSequenceDetails": "%CustomerSeq%_cmrr_mbep2d_bold",
  "ReceiveCoilActiveElements": "HC1-7;NC1,2",
  "ReceiveCoilName": "HeadNeck_64",
  "ReconMatrixPE": 104,
  "RepetitionTime": 1.49,
  "SAR": 0.0288938,
  "ScanOptions": "FS",
  "ScanningSequence": "EP",
  "SequenceName": "epfid2d1_104",
  "SequenceVariant": "SK_SS",
  "SeriesDescription": "func_task-friends-s03e17b",
  "SeriesNumber": 15,
  "ShimSetting": [620, -7227, -8812, 753, 9, -29, 133, -10],
  "SliceThickness": 2,
  "SliceTiming": [0, 0.7825, 0.0975, 0.8825, 0.195, 0.98, 0.2925, 1.0775, 0.3925, 1.175, 0.49, 1.2725, 0.5875, 1.3725, 0.685, 0, 0.7825, 0.0975, 0.8825, 0.195, 0.98, 0.2925, 1.0775, 0.3925, 1.175, 0.49, 1.2725, 0.5875, 1.3725, 0.685, 0, 0.7825, 0.0975, 0.8825, 0.195, 0.98, 0.2925, 1.0775, 0.3925, 1.175, 0.49, 1.2725, 0.5875, 1.3725, 0.685, 0, 0.7825, 0.0975, 0.8825, 0.195, 0.98, 0.2925, 1.0775, 0.3925, 1.175, 0.49, 1.2725, 0.5875, 1.3725, 0.685],
  "SoftwareVersions": "syngo_MR_E11",
  "SpacingBetweenSlices": 2,
  "StationName": "MRC35049",
  "TaskName": "s03e17b",
  "TotalReadoutTime": 0.0576811,
  "TxRefAmp": 207.8,
  "WipMemBlock": "05f709a1-c97d-4502-ae5d-17ad67ef6bbe||Sequence: R016 ve11c/master r/e634e98; Dec 19 2017 11:00:25 by eja",
  "dcmmeta_affine": [
    [-1.9997597932815552, -0.017451729625463486, -0.025615349411964417, 106.4986572265625],
    [-0.010769383050501347, 1.941091775894165, -0.48171237111091614, -84.17218780517578],
    [-0.029064228758215904, 0.481516569852829, 1.9409526586532593, -62.79071044921875],
    [0.0, 0.0, 0.0, 1.0]
],
  "dcmmeta_reorient_transform": [
    [0.0, -1.0, 0.0, 103.0],
    [1.0, 0.0, 0.0, 0.0],
    [0.0, 0.0, 1.0, 0.0],
    [0.0, 0.0, 0.0, 1.0]
],
  "dcmmeta_shape": [104, 104, 60, 453],
  "dcmmeta_slice_dim": 2,
  "dcmmeta_version": 0.6,
  "global": {
    "const": {
      "AcquisitionMatrix": [104, 0, 0, 104],
      "AngioFlag": "N",
      "BitsAllocated": 16,
      "BitsStored": 16,
      "BodyPartExamined": "BRAIN",
      "Columns": 832,
      "EchoNumbers": 1,
      "EchoTime": 37.0,
      "EchoTrainLength": 104,
      "FlipAngle": 52.0,
      "HighBit": 15,
      "ImageOrientationPatient": [0.99987990417014, 0.00538469132173, -0.014532113958, -0.0087258648235, 0.9705458799491, -0.2407582899859],
      "ImagePositionPatient": [-826.26127189097, -826.23772215951, 172.65691088108],
      "ImageType": [
        "ORIGINAL",
        "PRIMARY",
        "M",
        "MB",
        "ND",
        "MOSAIC"
],
      "ImagedNucleus": "1H",
      "ImagingFrequency": 123.259088,
      "InPlanePhaseEncodingDirection": "COL",
      "MRAcquisitionType": "2D",
      "MagneticFieldStrength": 3.0,
      "Manufacturer": "SIEMENS",
      "ManufacturerModelName": "Prisma_fit",
      "Modality": "MR",
      "NumberOfAverages": 1.0,
      "NumberOfPhaseEncodingSteps": 104,
      "PercentPhaseFieldOfView": 100.0,
      "PercentSampling": 100.0,
      "PerformedProcedureStepStartTime": "125705.494000",
      "PhotometricInterpretation": "MONOCHROME2",
      "PixelBandwidth": 2290.0,
      "PixelRepresentation": 0,
      "PixelSpacing": [2.0, 2.0],
      "ProtocolName": "func_task-friends-s03e17b",
      "RepetitionTime": 1490.0,
      "Rows": 832,
      "SAR": 0.02889378101342,
      "SamplesPerPixel": 1,
      "ScanOptions": "FS",
      "ScanningSequence": "EP",
      "SequenceName": "epfid2d1_104",
      "SequenceVariant": [
        "SK",
        "SS"
],
      "SeriesDescription": "func_task-friends-s03e17b",
      "SeriesNumber": 15,
      "SeriesTime": "135449.563000",
      "SliceLocation": -42.027506385899,
      "SliceThickness": 2.0,
      "SmallestImagePixelValue": 0,
      "SoftwareVersions": "syngo MR E11",
      "SpacingBetweenSlices": 2.0000000079468,
      "SpecificCharacterSet": "ISO_IR 100",
      "StudyID": "1",
      "StudyTime": "125705.379000",
      "TransmitCoilName": "Body",
      "VariableFlipAngleFlag": "N",
      "WindowCenterWidthExplanation": "Algo1",
      "dBdt": 0.0},
    "slices": {}
  },
  "time": {
    "samples": {
      "AcquisitionNumber": [1, 2, 3, 4, 5, 6, 7, 8, 9, 10, 11, 12, 13, 14, 15, 16, 17, 18, 19, 20, 21, 22, 23, 24, 25, 26, 27, 28, 29, 30, 31, 32, 33, 34, 35, 36, 37, 38, 39, 40, 41, 42, 43, 44, 45, 46, 47, 48, 49, 50, 51, 52, 53, 54, 55, 56, 57, 58, 59, 60, 61, 62, 63, 64, 65, 66, 67, 68, 69, 70, 71, 72, 73, 74, 75, 76, 77, 78, 79, 80, 81, 82, 83, 84, 85, 86, 87, 88, 89, 90, 91, 92, 93, 94, 95, 96, 97, 98, 99, 100, 101, 102, 103, 104, 105, 106, 107, 108, 109, 110, 111, 112, 113, 114, 115, 116, 117, 118, 119, 120, 121, 122, 123, 124, 125, 126, 127, 128, 129, 130, 131, 132, 133, 134, 135, 136, 137, 138, 139, 140, 141, 142, 143, 144, 145, 146, 147, 148, 149, 150, 151, 152, 153, 154, 155, 156, 157, 158, 159, 160, 161, 162, 163, 164, 165, 166, 167, 168, 169, 170, 171, 172, 173, 174, 175, 176, 177, 178, 179, 180, 181, 182, 183, 184, 185, 186, 187, 188, 189, 190, 191, 192, 193, 194, 195, 196, 197, 198, 199, 200, 201, 202, 203, 204, 205, 206, 207, 208, 209, 210, 211, 212, 213, 214, 215, 216, 217, 218, 219, 220, 221, 222, 223, 224, 225, 226, 227, 228, 229, 230, 231, 232, 233, 234, 235, 236, 237, 238, 239, 240, 241, 242, 243, 244, 245, 246, 247, 248, 249, 250, 251, 252, 253, 254, 255, 256, 257, 258, 259, 260, 261, 262, 263, 264, 265, 266, 267, 268, 269, 270, 271, 272, 273, 274, 275, 276, 277, 278, 279, 280, 281, 282, 283, 284, 285, 286, 287, 288, 289, 290, 291, 292, 293, 294, 295, 296, 297, 298, 299, 300, 301, 302, 303, 304, 305, 306, 307, 308, 309, 310, 311, 312, 313, 314, 315, 316, 317, 318, 319, 320, 321, 322, 323, 324, 325, 326, 327, 328, 329, 330, 331, 332, 333, 334, 335, 336, 337, 338, 339, 340, 341, 342, 343, 344, 345, 346, 347, 348, 349, 350, 351, 352, 353, 354, 355, 356, 357, 358, 359, 360, 361, 362, 363, 364, 365, 366, 367, 368, 369, 370, 371, 372, 373, 374, 375, 376, 377, 378, 379, 380, 381, 382, 383, 384, 385, 386, 387, 388, 389, 390, 391, 392, 393, 394, 395, 396, 397, 398, 399, 400, 401, 402, 403, 404, 405, 406, 407, 408, 409, 410, 411, 412, 413, 414, 415, 416, 417, 418, 419, 420, 421, 422, 423, 424, 425, 426, 427, 428, 429, 430, 431, 432, 433, 434, 435, 436, 437, 438, 439, 440, 441, 442, 443, 444, 445, 446, 447, 448, 449, 450, 451, 452, 453],
      "AcquisitionTime": ["135329.680000", "135331.170000", "135332.660000", "135334.150000", "135335.640000", "135337.130000", "135338.620000", "135340.110000", "135341.600000", "135343.090000", "135344.580000", "135346.070000", "135347.560000", "135349.050000", "135350.540000", "135352.030000", "135353.520000", "135355.010000", "135356.500000", "135357.990000", "135359.480000", "135400.970000", "135402.460000", "135403.950000", "135405.440000", "135406.930000", "135408.420000", "135409.910000", "135411.400000", "135412.890000", "135414.380000", "135415.870000", "135417.360000", "135418.850000", "135420.340000", "135421.830000", "135423.320000", "135424.810000", "135426.300000", "135427.790000", "135429.280000", "135430.770000", "135432.260000", "135433.750000", "135435.240000", "135436.730000", "135438.220000", "135439.710000", "135441.200000", "135442.690000", "135444.180000", "135445.670000", "135447.160000", "135448.650000", "135450.140000", "135451.630000", "135453.120000", "135454.610000", "135456.100000", "135457.590000", "135459.080000", "135500.570000", "135502.060000", "135503.550000", "135505.040000", "135506.530000", "135508.020000", "135509.510000", "135511.000000", "135512.490000", "135513.980000", "135515.470000", "135516.960000", "135518.450000", "135519.940000", "135521.430000", "135522.920000", "135524.410000", "135525.900000", "135527.390000", "135528.880000", "135530.370000", "135531.860000", "135533.350000", "135534.840000", "135536.330000", "135537.820000", "135539.310000", "135540.800000", "135542.290000", "135543.780000", "135545.270000", "135546.760000", "135548.250000", "135549.740000", "135551.230000", "135552.720000", "135554.210000", "135555.700000", "135557.190000", "135558.680000", "135600.170000", "135601.660000", "135603.150000", "135604.640000", "135606.130000", "135607.620000", "135609.110000", "135610.600000", "135612.090000", "135613.580000", "135615.070000", "135616.560000", "135618.050000", "135619.540000", "135621.030000", "135622.520000", "135624.010000", "135625.500000", "135626.990000", "135628.480000", "135629.970000", "135631.460000", "135632.950000", "135634.440000", "135635.930000", "135637.420000", "135638.910000", "135640.400000", "135641.890000", "135643.380000", "135644.870000", "135646.360000", "135647.850000", "135649.340000", "135650.830000", "135652.320000", "135653.810000", "135655.300000", "135656.790000", "135658.280000", "135659.770000", "135701.260000", "135702.750000", "135704.240000", "135705.730000", "135707.220000", "135708.710000", "135710.200000", "135711.690000", "135713.180000", "135714.670000", "135716.160000", "135717.650000", "135719.140000", "135720.630000", "135722.120000", "135723.610000", "135725.100000", "135726.590000", "135728.080000", "135729.570000", "135731.060000", "135732.550000", "135734.040000", "135735.530000", "135737.020000", "135738.510000", "135740.000000", "135741.490000", "135742.980000", "135744.470000", "135745.960000", "135747.450000", "135748.940000", "135750.430000", "135751.920000", "135753.410000", "135754.900000", "135756.390000", "135757.880000", "135759.370000", "135800.860000", "135802.350000", "135803.840000", "135805.330000", "135806.820000", "135808.310000", "135809.800000", "135811.290000", "135812.780000", "135814.270000", "135815.760000", "135817.250000", "135818.740000", "135820.230000", "135821.720000", "135823.210000", "135824.700000", "135826.190000", "135827.680000", "135829.170000", "135830.660000", "135832.150000", "135833.640000", "135835.130000", "135836.620000", "135838.110000", "135839.600000", "135841.090000", "135842.580000", "135844.070000", "135845.560000", "135847.050000", "135848.540000", "135850.030000", "135851.520000", "135853.010000", "135854.500000", "135855.990000", "135857.480000", "135858.970000", "135900.460000", "135901.950000", "135903.440000", "135904.930000", "135906.420000", "135907.910000", "135909.400000", "135910.890000", "135912.380000", "135913.870000", "135915.360000", "135916.850000", "135918.340000", "135919.830000", "135921.320000", "135922.810000", "135924.300000", "135925.790000", "135927.280000", "135928.770000", "135930.260000", "135931.750000", "135933.240000", "135934.730000", "135936.220000", "135937.710000", "135939.200000", "135940.690000", "135942.180000", "135943.670000", "135945.160000", "135946.650000", "135948.140000", "135949.630000", "135951.120000", "135952.610000", "135954.100000", "135955.590000", "135957.080000", "135958.570000", "140000.060000", "140001.550000", "140003.040000", "140004.530000", "140006.020000", "140007.510000", "140009.000000", "140010.490000", "140011.980000", "140013.470000", "140014.960000", "140016.450000", "140017.940000", "140019.430000", "140020.920000", "140022.410000", "140023.900000", "140025.390000", "140026.880000", "140028.370000", "140029.860000", "140031.350000", "140032.840000", "140034.330000", "140035.820000", "140037.310000", "140038.800000", "140040.290000", "140041.780000", "140043.270000", "140044.760000", "140046.250000", "140047.740000", "140049.230000", "140050.720000", "140052.210000", "140053.700000", "140055.190000", "140056.680000", "140058.170000", "140059.660000", "140101.150000", "140102.640000", "140104.130000", "140105.620000", "140107.110000", "140108.600000", "140110.090000", "140111.580000", "140113.070000", "140114.560000", "140116.050000", "140117.540000", "140119.030000", "140120.520000", "140122.010000", "140123.500000", "140124.990000", "140126.480000", "140127.970000", "140129.460000", "140130.950000", "140132.440000", "140133.930000", "140135.420000", "140136.910000", "140138.400000", "140139.890000", "140141.380000", "140142.870000", "140144.360000", "140145.850000", "140147.340000", "140148.830000", "140150.320000", "140151.810000", "140153.300000", "140154.790000", "140156.280000", "140157.770000", "140159.260000", "140200.750000", "140202.240000", "140203.730000", "140205.220000", "140206.710000", "140208.200000", "140209.690000", "140211.180000", "140212.670000", "140214.160000", "140215.650000", "140217.140000", "140218.630000", "140220.120000", "140221.610000", "140223.100000", "140224.590000", "140226.080000", "140227.570000", "140229.060000", "140230.550000", "140232.040000", "140233.530000", "140235.020000", "140236.510000", "140238.000000", "140239.490000", "140240.980000", "140242.470000", "140243.960000", "140245.450000", "140246.940000", "140248.430000", "140249.920000", "140251.410000", "140252.900000", "140254.390000", "140255.880000", "140257.370000", "140258.860000", "140300.350000", "140301.840000", "140303.330000", "140304.820000", "140306.310000", "140307.800000", "140309.290000", "140310.780000", "140312.270000", "140313.760000", "140315.250000", "140316.740000", "140318.230000", "140319.720000", "140321.210000", "140322.700000", "140324.190000", "140325.680000", "140327.170000", "140328.660000", "140330.150000", "140331.640000", "140333.130000", "140334.620000", "140336.110000", "140337.600000", "140339.090000", "140340.580000", "140342.070000", "140343.560000", "140345.050000", "140346.540000", "140348.030000", "140349.520000", "140351.010000", "140352.500000", "140353.990000", "140355.480000", "140356.970000", "140358.460000", "140359.950000", "140401.440000", "140402.930000", "140404.420000", "140405.910000", "140407.400000", "140408.890000", "140410.380000", "140411.870000", "140413.360000", "140414.850000", "140416.340000", "140417.830000", "140419.320000", "140420.810000", "140422.300000", "140423.790000", "140425.280000", "140426.770000", "140428.260000", "140429.750000", "140431.240000", "140432.730000", "140434.220000", "140435.710000", "140437.200000", "140438.690000", "140440.180000", "140441.670000", "140443.160000"],
      "ContentTime": ["135449.566000", "135449.569000", "135449.572000", "135449.575000", "135449.578000", "135449.581000", "135449.590000", "135449.593000", "135449.596000", "135449.598000", "135449.601000", "135449.604000", "135449.607000", "135449.610000", "135449.613000", "135449.616000", "135449.619000", "135449.622000", "135449.625000", "135449.627000", "135449.630000", "135449.633000", "135449.636000", "135509.536000", "135509.539000", "135509.542000", "135509.545000", "135509.548000", "135509.551000", "135509.553000", "135509.556000", "135509.559000", "135509.562000", "135509.565000", "135509.568000", "135509.571000", "135509.579000", "135509.582000", "135509.585000", "135509.604000", "135509.607000", "135509.610000", "135509.613000", "135529.536000", "135529.539000", "135529.542000", "135529.544000", "135529.548000", "135529.550000", "135529.553000", "135529.556000", "135529.559000", "135529.562000", "135529.565000", "135529.568000", "135529.571000", "135529.574000", "135529.576000", "135529.579000", "135529.582000", "135529.590000", "135529.593000", "135529.596000", "135549.535000", "135549.538000", "135549.541000", "135549.544000", "135549.547000", "135549.550000", "135549.552000", "135549.555000", "135549.558000", "135549.561000", "135549.564000", "135549.567000", "135549.570000", "135549.573000", "135549.575000", "135549.578000", "135549.581000", "135549.584000", "135549.587000", "135549.590000", "135609.535000", "135609.538000", "135609.541000", "135609.543000", "135609.547000", "135609.549000", "135609.552000", "135609.555000", "135609.558000", "135609.561000", "135609.564000", "135609.567000", "135609.570000", "135609.572000", "135609.575000", "135609.578000", "135609.581000", "135609.584000", "135609.587000", "135609.590000", "135649.535000", "135649.538000", "135649.541000", "135649.544000", "135649.547000", "135649.550000", "135649.552000", "135649.555000", "135649.558000", "135649.561000", "135649.564000", "135649.567000", "135649.570000", "135649.573000", "135649.576000", "135649.578000", "135649.581000", "135649.584000", "135649.587000", "135649.590000", "135649.593000", "135649.596000", "135649.599000", "135649.601000", "135649.614000", "135649.617000", "135649.620000", "135649.623000", "135649.626000", "135649.628000", "135729.536000", "135729.539000", "135729.542000", "135729.545000", "135729.548000", "135729.551000", "135729.553000", "135729.556000", "135729.559000", "135729.562000", "135729.565000", "135729.568000", "135729.571000", "135729.574000", "135729.577000", "135729.580000", "135729.583000", "135729.586000", "135729.588000", "135729.591000", "135729.594000", "135729.597000", "135729.600000", "135729.603000", "135729.606000", "135729.608000", "135729.611000", "135809.535000", "135809.538000", "135809.541000", "135809.544000", "135809.547000", "135809.550000", "135809.552000", "135809.555000", "135809.558000", "135809.561000", "135809.564000", "135809.567000", "135809.570000", "135809.573000", "135809.576000", "135809.579000", "135809.582000", "135809.584000", "135809.587000", "135809.590000", "135809.593000", "135809.596000", "135809.599000", "135809.602000", "135809.605000", "135809.607000", "135809.610000", "135849.535000", "135849.538000", "135849.541000", "135849.544000", "135849.547000", "135849.550000", "135849.553000", "135849.555000", "135849.558000", "135849.561000", "135849.564000", "135849.567000", "135849.570000", "135849.573000", "135849.576000", "135849.579000", "135849.582000", "135849.585000", "135849.587000", "135849.590000", "135849.593000", "135849.596000", "135849.599000", "135849.602000", "135849.605000", "135849.608000", "135849.611000", "135929.536000", "135929.539000", "135929.542000", "135929.545000", "135929.548000", "135929.551000", "135929.553000", "135929.556000", "135929.559000", "135929.563000", "135929.566000", "135929.569000", "135929.572000", "135929.575000", "135929.578000", "135929.581000", "135929.584000", "135929.586000", "135929.589000", "135929.592000", "135929.595000", "135929.598000", "135929.601000", "135929.604000", "135929.606000", "135929.609000", "140009.548000", "140009.551000", "140009.554000", "140009.557000", "140009.560000", "140009.563000", "140009.566000", "140009.569000", "140009.572000", "140009.575000", "140009.577000", "140009.580000", "140009.583000", "140009.586000", "140009.589000", "140009.592000", "140009.595000", "140009.598000", "140009.601000", "140009.604000", "140009.606000", "140009.609000", "140009.612000", "140009.615000", "140009.618000", "140009.621000", "140009.624000", "140049.535000", "140049.538000", "140049.541000", "140049.544000", "140049.547000", "140049.550000", "140049.553000", "140049.555000", "140049.558000", "140049.561000", "140049.564000", "140049.567000", "140049.570000", "140049.573000", "140049.576000", "140049.579000", "140049.582000", "140049.585000", "140049.588000", "140049.591000", "140049.594000", "140049.597000", "140049.600000", "140049.602000", "140049.605000", "140049.608000", "140049.611000", "140129.535000", "140129.538000", "140129.541000", "140129.544000", "140129.547000", "140129.550000", "140129.553000", "140129.556000", "140129.558000", "140129.561000", "140129.564000", "140129.567000", "140129.570000", "140129.573000", "140129.576000", "140129.579000", "140129.582000", "140129.585000", "140129.588000", "140129.590000", "140129.593000", "140129.596000", "140129.599000", "140129.602000", "140129.605000", "140129.608000", "140129.611000", "140149.536000", "140149.539000", "140149.542000", "140149.545000", "140149.548000", "140149.551000", "140149.554000", "140149.556000", "140149.560000", "140149.562000", "140149.565000", "140149.568000", "140149.571000", "140229.535000", "140229.538000", "140229.541000", "140229.544000", "140229.547000", "140229.550000", "140229.553000", "140229.556000", "140229.558000", "140229.561000", "140229.564000", "140229.567000", "140229.570000", "140229.573000", "140229.576000", "140229.579000", "140229.582000", "140229.585000", "140229.588000", "140229.591000", "140229.593000", "140229.596000", "140229.599000", "140229.602000", "140229.605000", "140229.608000", "140229.611000", "140309.535000", "140309.538000", "140309.541000", "140309.544000", "140309.547000", "140309.550000", "140309.552000", "140309.555000", "140309.558000", "140309.561000", "140309.564000", "140309.567000", "140309.570000", "140309.573000", "140309.576000", "140309.579000", "140309.582000", "140309.585000", "140309.587000", "140309.590000", "140309.593000", "140309.596000", "140309.599000", "140309.602000", "140309.605000", "140309.608000", "140309.611000", "140349.535000", "140349.538000", "140349.541000", "140349.544000", "140349.547000", "140349.550000", "140349.553000", "140349.556000", "140349.559000", "140349.569000", "140349.572000", "140349.575000", "140349.578000", "140349.581000", "140349.584000", "140349.587000", "140349.590000", "140349.593000", "140349.595000", "140349.598000", "140349.601000", "140349.604000", "140349.607000", "140349.610000", "140349.613000", "140349.616000", "140349.618000", "140429.536000", "140429.539000", "140429.542000", "140429.545000", "140429.548000", "140429.551000", "140429.554000", "140429.557000", "140429.559000", "140429.562000", "140429.565000", "140429.568000", "140429.571000", "140429.574000", "140429.586000", "140429.589000", "140429.592000", "140429.595000", "140429.598000", "140429.601000", "140429.604000", "140429.607000", "140429.610000", "140429.613000", "140429.615000", "140429.618000", "140429.621000", "140445.607000", "140445.610000", "140445.613000", "140445.616000", "140445.619000", "140445.622000", "140445.625000", "140445.628000", "140445.630000", "140445.634000", "140445.637000"],
