{
  "AcquisitionMatrixPE": 104,
  "AcquisitionNumber": 1,
  "AcquisitionTime": "14:05:11.385000",
  "BandwidthPerPixelPhaseEncode": 17.17,
  "BaseResolution": 104,
  "BodyPartExamined": "BRAIN",
  "CoilString": "HC1-7;NC1_2",
  "ConsistencyInfo": "N4_VE11C_LATEST_20160120",
  "ConversionSoftware": "dcm2niix",
  "ConversionSoftwareVersion": "v1.0.20190902",
  "DerivedVendorReportedEchoSpacing": 0.000560011,
  "DeviceSerialNumber": "167006",
  "DwellTime": 2.1e-06,
  "EchoTime": 0.037,
  "EchoTrainLength": 104,
  "EffectiveEchoSpacing": 0.000560011,
  "FlipAngle": 52,
  "ImageComments": "Unaliased_MB4_PE3_LB",
  "ImageOrientationPatientDICOM": [0.99988, 0.00538469, -0.0145321, -0.00872586, 0.970546, -0.240758],
  "ImageType": [
    "ORIGINAL",
    "PRIMARY",
    "M",
    "MB",
    "ND",
    "MOSAIC"
],
  "ImagingFrequency": 123.259,
  "InPlanePhaseEncodingDirectionDICOM": "COL",
  "InstitutionAddress": "Chemin_Queen-Mary_4565_Montreal_District_CA_H3W_1W5",
  "InstitutionName": "IUGM",
  "InstitutionalDepartmentName": "Department",
  "MRAcquisitionType": "2D",
  "MagneticFieldStrength": 3,
  "Manufacturer": "Siemens",
  "ManufacturersModelName": "Prisma_fit",
  "Modality": "MR",
  "MultibandAccelerationFactor": 4,
  "PartialFourier": 1,
  "PatientPosition": "HFS",
  "PercentPhaseFOV": 100,
  "PhaseEncodingDirection": "j",
  "PhaseEncodingSteps": 104,
  "PhaseResolution": 1,
  "PixelBandwidth": 2290,
  "ProcedureStepDescription": "video_friends",
  "ProtocolName": "func_task-friends-s03e18a",
  "PulseSequenceDetails": "%CustomerSeq%_cmrr_mbep2d_bold",
  "ReceiveCoilActiveElements": "HC1-7;NC1,2",
  "ReceiveCoilName": "HeadNeck_64",
  "ReconMatrixPE": 104,
  "RepetitionTime": 1.49,
  "SAR": 0.0288981,
  "ScanOptions": "FS",
  "ScanningSequence": "EP",
  "SequenceName": "epfid2d1_104",
  "SequenceVariant": "SK_SS",
  "SeriesDescription": "func_task-friends-s03e18a",
  "SeriesNumber": 17,
  "ShimSetting": [620, -7227, -8812, 753, 9, -29, 133, -10],
  "SliceThickness": 2,
  "SliceTiming": [0, 0.785, 0.1, 0.8825, 0.1975, 0.98, 0.295, 1.08, 0.3925, 1.1775, 0.49, 1.275, 0.59, 1.3725, 0.6875, 0, 0.785, 0.1, 0.8825, 0.1975, 0.98, 0.295, 1.08, 0.3925, 1.1775, 0.49, 1.275, 0.59, 1.3725, 0.6875, 0, 0.785, 0.1, 0.8825, 0.1975, 0.98, 0.295, 1.08, 0.3925, 1.1775, 0.49, 1.275, 0.59, 1.3725, 0.6875, 0, 0.785, 0.1, 0.8825, 0.1975, 0.98, 0.295, 1.08, 0.3925, 1.1775, 0.49, 1.275, 0.59, 1.3725, 0.6875],
  "SoftwareVersions": "syngo_MR_E11",
  "SpacingBetweenSlices": 2,
  "StationName": "MRC35049",
  "TaskName": "s03e18a",
  "TotalReadoutTime": 0.0576811,
  "TxRefAmp": 207.8,
  "WipMemBlock": "c362e959-4d7e-4c2c-89d7-3c93638f6c84||Sequence: R016 ve11c/master r/e634e98; Dec 19 2017 11:00:25 by eja",
  "dcmmeta_affine": [
    [-1.9997597932815552, -0.017451729625463486, -0.025615349411964417, 106.4986572265625],
    [-0.010769383050501347, 1.941091775894165, -0.48171237111091614, -84.17218780517578],
    [-0.029064228758215904, 0.481516569852829, 1.9409526586532593, -62.79071044921875],
    [0.0, 0.0, 0.0, 1.0]
],
  "dcmmeta_reorient_transform": [
    [0.0, -1.0, 0.0, 103.0],
    [1.0, 0.0, 0.0, 0.0],
    [0.0, 0.0, 1.0, 0.0],
    [0.0, 0.0, 0.0, 1.0]
],
  "dcmmeta_shape": [104, 104, 60, 469],
  "dcmmeta_slice_dim": 2,
  "dcmmeta_version": 0.6,
  "global": {
    "const": {
      "AcquisitionMatrix": [104, 0, 0, 104],
      "AngioFlag": "N",
      "BitsAllocated": 16,
      "BitsStored": 16,
      "BodyPartExamined": "BRAIN",
      "Columns": 832,
      "EchoNumbers": 1,
      "EchoTime": 37.0,
      "EchoTrainLength": 104,
      "FlipAngle": 52.0,
      "HighBit": 15,
      "ImageOrientationPatient": [0.99987990417014, 0.00538469132173, -0.014532113958, -0.0087258648235, 0.9705458799491, -0.2407582899859],
      "ImagePositionPatient": [-826.26127189097, -826.23772215951, 172.65691088108],
      "ImageType": [
        "ORIGINAL",
        "PRIMARY",
        "M",
        "MB",
        "ND",
        "MOSAIC"
],
      "ImagedNucleus": "1H",
      "ImagingFrequency": 123.259091,
      "InPlanePhaseEncodingDirection": "COL",
      "MRAcquisitionType": "2D",
      "MagneticFieldStrength": 3.0,
      "Manufacturer": "SIEMENS",
      "ManufacturerModelName": "Prisma_fit",
      "Modality": "MR",
      "NumberOfAverages": 1.0,
      "NumberOfPhaseEncodingSteps": 104,
      "PercentPhaseFieldOfView": 100.0,
      "PercentSampling": 100.0,
      "PerformedProcedureStepStartTime": "125705.494000",
      "PhotometricInterpretation": "MONOCHROME2",
      "PixelBandwidth": 2290.0,
      "PixelRepresentation": 0,
      "PixelSpacing": [2.0, 2.0],
      "ProtocolName": "func_task-friends-s03e18a",
      "RepetitionTime": 1490.0,
      "Rows": 832,
      "SAR": 0.02889807620751,
      "SamplesPerPixel": 1,
      "ScanOptions": "FS",
      "ScanningSequence": "EP",
      "SequenceName": "epfid2d1_104",
      "SequenceVariant": [
        "SK",
        "SS"
],
      "SeriesDescription": "func_task-friends-s03e18a",
      "SeriesNumber": 17,
      "SeriesTime": "140636.853000",
      "SliceLocation": -42.027506385899,
      "SliceThickness": 2.0,
      "SmallestImagePixelValue": 0,
      "SoftwareVersions": "syngo MR E11",
      "SpacingBetweenSlices": 2.0000000079468,
      "SpecificCharacterSet": "ISO_IR 100",
      "StudyID": "1",
      "StudyTime": "125705.379000",
      "TransmitCoilName": "Body",
      "VariableFlipAngleFlag": "N",
      "WindowCenterWidthExplanation": "Algo1",
      "dBdt": 0.0},
    "slices": {}
  },
  "time": {
    "samples": {
      "AcquisitionNumber": [1, 2, 3, 4, 5, 6, 7, 8, 9, 10, 11, 12, 13, 14, 15, 16, 17, 18, 19, 20, 21, 22, 23, 24, 25, 26, 27, 28, 29, 30, 31, 32, 33, 34, 35, 36, 37, 38, 39, 40, 41, 42, 43, 44, 45, 46, 47, 48, 49, 50, 51, 52, 53, 54, 55, 56, 57, 58, 59, 60, 61, 62, 63, 64, 65, 66, 67, 68, 69, 70, 71, 72, 73, 74, 75, 76, 77, 78, 79, 80, 81, 82, 83, 84, 85, 86, 87, 88, 89, 90, 91, 92, 93, 94, 95, 96, 97, 98, 99, 100, 101, 102, 103, 104, 105, 106, 107, 108, 109, 110, 111, 112, 113, 114, 115, 116, 117, 118, 119, 120, 121, 122, 123, 124, 125, 126, 127, 128, 129, 130, 131, 132, 133, 134, 135, 136, 137, 138, 139, 140, 141, 142, 143, 144, 145, 146, 147, 148, 149, 150, 151, 152, 153, 154, 155, 156, 157, 158, 159, 160, 161, 162, 163, 164, 165, 166, 167, 168, 169, 170, 171, 172, 173, 174, 175, 176, 177, 178, 179, 180, 181, 182, 183, 184, 185, 186, 187, 188, 189, 190, 191, 192, 193, 194, 195, 196, 197, 198, 199, 200, 201, 202, 203, 204, 205, 206, 207, 208, 209, 210, 211, 212, 213, 214, 215, 216, 217, 218, 219, 220, 221, 222, 223, 224, 225, 226, 227, 228, 229, 230, 231, 232, 233, 234, 235, 236, 237, 238, 239, 240, 241, 242, 243, 244, 245, 246, 247, 248, 249, 250, 251, 252, 253, 254, 255, 256, 257, 258, 259, 260, 261, 262, 263, 264, 265, 266, 267, 268, 269, 270, 271, 272, 273, 274, 275, 276, 277, 278, 279, 280, 281, 282, 283, 284, 285, 286, 287, 288, 289, 290, 291, 292, 293, 294, 295, 296, 297, 298, 299, 300, 301, 302, 303, 304, 305, 306, 307, 308, 309, 310, 311, 312, 313, 314, 315, 316, 317, 318, 319, 320, 321, 322, 323, 324, 325, 326, 327, 328, 329, 330, 331, 332, 333, 334, 335, 336, 337, 338, 339, 340, 341, 342, 343, 344, 345, 346, 347, 348, 349, 350, 351, 352, 353, 354, 355, 356, 357, 358, 359, 360, 361, 362, 363, 364, 365, 366, 367, 368, 369, 370, 371, 372, 373, 374, 375, 376, 377, 378, 379, 380, 381, 382, 383, 384, 385, 386, 387, 388, 389, 390, 391, 392, 393, 394, 395, 396, 397, 398, 399, 400, 401, 402, 403, 404, 405, 406, 407, 408, 409, 410, 411, 412, 413, 414, 415, 416, 417, 418, 419, 420, 421, 422, 423, 424, 425, 426, 427, 428, 429, 430, 431, 432, 433, 434, 435, 436, 437, 438, 439, 440, 441, 442, 443, 444, 445, 446, 447, 448, 449, 450, 451, 452, 453, 454, 455, 456, 457, 458, 459, 460, 461, 462, 463, 464, 465, 466, 467, 468, 469],
      "AcquisitionTime": ["140511.385000", "140512.875000", "140514.365000", "140515.855000", "140517.345000", "140518.835000", "140520.325000", "140521.815000", "140523.305000", "140524.795000", "140526.285000", "140527.775000", "140529.265000", "140530.755000", "140532.245000", "140533.735000", "140535.225000", "140536.715000", "140538.205000", "140539.695000", "140541.185000", "140542.675000", "140544.165000", "140545.655000", "140547.145000", "140548.635000", "140550.125000", "140551.615000", "140553.105000", "140554.595000", "140556.085000", "140557.575000", "140559.065000", "140600.555000", "140602.045000", "140603.535000", "140605.025000", "140606.515000", "140608.005000", "140609.495000", "140610.985000", "140612.475000", "140613.965000", "140615.455000", "140616.945000", "140618.435000", "140619.925000", "140621.415000", "140622.905000", "140624.395000", "140625.885000", "140627.375000", "140628.865000", "140630.355000", "140631.845000", "140633.335000", "140634.825000", "140636.315000", "140637.805000", "140639.295000", "140640.785000", "140642.275000", "140643.765000", "140645.255000", "140646.745000", "140648.235000", "140649.725000", "140651.215000", "140652.705000", "140654.195000", "140655.685000", "140657.175000", "140658.665000", "140700.155000", "140701.645000", "140703.135000", "140704.625000", "140706.115000", "140707.605000", "140709.095000", "140710.585000", "140712.075000", "140713.565000", "140715.055000", "140716.545000", "140718.035000", "140719.525000", "140721.015000", "140722.505000", "140723.995000", "140725.485000", "140726.975000", "140728.465000", "140729.955000", "140731.445000", "140732.935000", "140734.425000", "140735.915000", "140737.405000", "140738.895000", "140740.385000", "140741.875000", "140743.365000", "140744.855000", "140746.345000", "140747.835000", "140749.325000", "140750.815000", "140752.305000", "140753.795000", "140755.285000", "140756.775000", "140758.265000", "140759.755000", "140801.245000", "140802.735000", "140804.225000", "140805.715000", "140807.205000", "140808.695000", "140810.185000", "140811.675000", "140813.165000", "140814.655000", "140816.145000", "140817.635000", "140819.125000", "140820.615000", "140822.105000", "140823.595000", "140825.085000", "140826.575000", "140828.065000", "140829.555000", "140831.045000", "140832.535000", "140834.025000", "140835.515000", "140837.005000", "140838.495000", "140839.985000", "140841.475000", "140842.965000", "140844.455000", "140845.945000", "140847.435000", "140848.925000", "140850.415000", "140851.905000", "140853.395000", "140854.885000", "140856.375000", "140857.865000", "140859.355000", "140900.845000", "140902.335000", "140903.825000", "140905.315000", "140906.805000", "140908.295000", "140909.785000", "140911.275000", "140912.765000", "140914.255000", "140915.745000", "140917.235000", "140918.725000", "140920.215000", "140921.705000", "140923.195000", "140924.685000", "140926.175000", "140927.665000", "140929.155000", "140930.645000", "140932.135000", "140933.625000", "140935.115000", "140936.605000", "140938.095000", "140939.585000", "140941.075000", "140942.565000", "140944.055000", "140945.545000", "140947.035000", "140948.525000", "140950.015000", "140951.505000", "140952.995000", "140954.485000", "140955.975000", "140957.465000", "140958.955000", "141000.445000", "141001.935000", "141003.425000", "141004.915000", "141006.405000", "141007.895000", "141009.385000", "141010.875000", "141012.365000", "141013.855000", "141015.345000", "141016.835000", "141018.325000", "141019.815000", "141021.305000", "141022.795000", "141024.285000", "141025.775000", "141027.265000", "141028.755000", "141030.245000", "141031.735000", "141033.225000", "141034.715000", "141036.205000", "141037.695000", "141039.185000", "141040.675000", "141042.165000", "141043.655000", "141045.145000", "141046.635000", "141048.125000", "141049.615000", "141051.105000", "141052.595000", "141054.085000", "141055.575000", "141057.065000", "141058.555000", "141100.045000", "141101.535000", "141103.025000", "141104.515000", "141106.005000", "141107.495000", "141108.985000", "141110.475000", "141111.965000", "141113.455000", "141114.945000", "141116.435000", "141117.925000", "141119.415000", "141120.905000", "141122.395000", "141123.885000", "141125.375000", "141126.865000", "141128.355000", "141129.845000", "141131.335000", "141132.825000", "141134.315000", "141135.805000", "141137.295000", "141138.785000", "141140.275000", "141141.765000", "141143.255000", "141144.745000", "141146.235000", "141147.725000", "141149.215000", "141150.705000", "141152.195000", "141153.685000", "141155.175000", "141156.665000", "141158.155000", "141159.645000", "141201.135000", "141202.625000", "141204.115000", "141205.605000", "141207.095000", "141208.585000", "141210.075000", "141211.565000", "141213.055000", "141214.545000", "141216.035000", "141217.525000", "141219.015000", "141220.505000", "141221.995000", "141223.485000", "141224.975000", "141226.465000", "141227.955000", "141229.445000", "141230.935000", "141232.425000", "141233.915000", "141235.405000", "141236.895000", "141238.385000", "141239.875000", "141241.365000", "141242.855000", "141244.345000", "141245.835000", "141247.325000", "141248.815000", "141250.305000", "141251.795000", "141253.285000", "141254.775000", "141256.265000", "141257.755000", "141259.245000", "141300.735000", "141302.225000", "141303.715000", "141305.205000", "141306.695000", "141308.185000", "141309.675000", "141311.165000", "141312.655000", "141314.145000", "141315.635000", "141317.125000", "141318.615000", "141320.105000", "141321.595000", "141323.085000", "141324.575000", "141326.065000", "141327.555000", "141329.045000", "141330.535000", "141332.025000", "141333.515000", "141335.005000", "141336.495000", "141337.985000", "141339.475000", "141340.965000", "141342.455000", "141343.945000", "141345.435000", "141346.925000", "141348.415000", "141349.905000", "141351.395000", "141352.885000", "141354.375000", "141355.865000", "141357.355000", "141358.845000", "141400.335000", "141401.825000", "141403.315000", "141404.805000", "141406.295000", "141407.785000", "141409.275000", "141410.765000", "141412.255000", "141413.745000", "141415.235000", "141416.725000", "141418.215000", "141419.705000", "141421.195000", "141422.685000", "141424.175000", "141425.665000", "141427.155000", "141428.645000", "141430.135000", "141431.625000", "141433.115000", "141434.605000", "141436.095000", "141437.585000", "141439.075000", "141440.565000", "141442.055000", "141443.545000", "141445.035000", "141446.525000", "141448.015000", "141449.505000", "141450.995000", "141452.485000", "141453.975000", "141455.465000", "141456.955000", "141458.445000", "141459.935000", "141501.425000", "141502.915000", "141504.405000", "141505.895000", "141507.385000", "141508.875000", "141510.365000", "141511.855000", "141513.345000", "141514.835000", "141516.325000", "141517.815000", "141519.305000", "141520.795000", "141522.285000", "141523.775000", "141525.265000", "141526.755000", "141528.245000", "141529.735000", "141531.225000", "141532.715000", "141534.205000", "141535.695000", "141537.185000", "141538.675000", "141540.165000", "141541.655000", "141543.145000", "141544.635000", "141546.125000", "141547.615000", "141549.105000", "141550.595000", "141552.085000", "141553.575000", "141555.065000", "141556.555000", "141558.045000", "141559.535000", "141601.025000", "141602.515000", "141604.005000", "141605.495000", "141606.985000", "141608.475000", "141609.965000", "141611.455000", "141612.945000", "141614.435000", "141615.925000", "141617.415000", "141618.905000", "141620.395000", "141621.885000", "141623.375000", "141624.865000", "141626.355000", "141627.845000", "141629.335000", "141630.825000", "141632.315000", "141633.805000", "141635.295000", "141636.785000", "141638.275000", "141639.765000", "141641.255000", "141642.745000", "141644.235000", "141645.725000", "141647.215000", "141648.705000"],
      "ContentTime": ["140636.855000", "140636.858000", "140636.861000", "140636.864000", "140636.867000", "140636.870000", "140636.873000", "140636.876000", "140636.878000", "140636.884000", "140636.887000", "140636.890000", "140636.893000", "140636.896000", "140636.899000", "140636.902000", "140636.905000", "140636.907000", "140636.910000", "140636.913000", "140636.916000", "140636.919000", "140636.922000", "140636.925000", "140636.928000", "140636.930000", "140636.938000", "140636.941000", "140636.943000", "140656.830000", "140656.833000", "140656.836000", "140656.839000", "140656.842000", "140656.845000", "140656.847000", "140656.850000", "140656.860000", "140656.863000", "140656.865000", "140656.868000", "140656.871000", "140656.874000", "140656.877000", "140656.880000", "140656.883000", "140656.886000", "140656.888000", "140656.891000", "140716.830000", "140716.840000", "140716.843000", "140716.846000", "140716.849000", "140716.852000", "140716.855000", "140716.858000", "140716.861000", "140716.864000", "140716.867000", "140716.869000", "140716.872000", "140716.875000", "140716.878000", "140716.881000", "140716.884000", "140716.887000", "140716.890000", "140716.892000", "140736.830000", "140736.833000", "140736.836000", "140736.839000", "140736.841000", "140736.844000", "140736.847000", "140736.850000", "140736.853000", "140736.856000", "140736.859000", "140736.862000", "140736.865000", "140736.868000", "140736.870000", "140736.873000", "140736.876000", "140736.887000", "140736.890000", "140736.893000", "140756.831000", "140756.834000", "140756.837000", "140756.840000", "140756.843000", "140756.846000", "140756.848000", "140756.851000", "140756.854000", "140756.857000", "140756.860000", "140756.863000", "140756.866000", "140756.869000", "140756.871000", "140756.874000", "140756.877000", "140756.880000", "140756.883000", "140756.886000", "140836.830000", "140836.833000", "140836.836000", "140836.839000", "140836.842000", "140836.845000", "140836.847000", "140836.850000", "140836.853000", "140836.856000", "140836.859000", "140836.862000", "140836.865000", "140836.868000", "140836.871000", "140836.873000", "140836.876000", "140836.879000", "140836.882000", "140836.885000", "140836.888000", "140836.891000", "140836.893000", "140836.896000", "140836.899000", "140836.902000", "140836.905000", "140836.908000", "140916.830000", "140916.833000", "140916.836000", "140916.839000", "140916.842000", "140916.844000", "140916.847000", "140916.850000", "140916.853000", "140916.856000", "140916.859000", "140916.862000", "140916.864000", "140916.867000", "140916.870000", "140916.873000", "140916.876000", "140916.879000", "140916.882000", "140916.885000", "140916.887000", "140916.890000", "140916.893000", "140916.896000", "140916.899000", "140916.902000", "140916.905000", "140956.831000", "140956.834000", "140956.838000", "140956.841000", "140956.844000", "140956.847000", "140956.850000", "140956.853000", "140956.856000", "140956.859000", "140956.862000", "140956.872000", "140956.874000", "140956.877000", "140956.880000", "140956.883000", "140956.886000", "140956.889000", "140956.892000", "140956.895000", "140956.897000", "140956.900000", "140956.903000", "140956.906000", "140956.909000", "140956.912000", "141036.830000", "141036.833000", "141036.836000", "141036.839000", "141036.842000", "141036.844000", "141036.847000", "141036.850000", "141036.853000", "141036.856000", "141036.859000", "141036.862000", "141036.865000", "141036.868000", "141036.871000", "141036.874000", "141036.877000", "141036.879000", "141036.882000", "141036.885000", "141036.888000", "141036.891000", "141036.894000", "141036.897000", "141036.900000", "141036.903000", "141036.905000", "141116.830000", "141116.833000", "141116.836000", "141116.843000", "141116.846000", "141116.849000", "141116.852000", "141116.855000", "141116.858000", "141116.861000", "141116.864000", "141116.867000", "141116.869000", "141116.872000", "141116.875000", "141116.878000", "141116.881000", "141116.884000", "141116.887000", "141116.890000", "141116.892000", "141116.895000", "141116.898000", "141116.901000", "141116.904000", "141116.907000", "141116.910000", "141156.830000", "141156.833000", "141156.836000", "141156.839000", "141156.842000", "141156.845000", "141156.847000", "141156.850000", "141156.853000", "141156.856000", "141156.859000", "141156.862000", "141156.865000", "141156.868000", "141156.871000", "141156.874000", "141156.876000", "141156.879000", "141156.882000", "141156.885000", "141156.888000", "141156.891000", "141156.894000", "141156.897000", "141156.900000", "141156.902000", "141156.905000", "141236.831000", "141236.834000", "141236.837000", "141236.840000", "141236.843000", "141236.846000", "141236.848000", "141236.851000", "141236.854000", "141236.857000", "141236.860000", "141236.863000", "141236.866000", "141236.869000", "141236.871000", "141236.874000", "141236.877000", "141236.880000", "141236.883000", "141236.886000", "141236.889000", "141236.891000", "141236.894000", "141236.897000", "141236.900000", "141236.903000", "141236.906000", "141316.830000", "141316.833000", "141316.836000", "141316.839000", "141316.842000", "141316.844000", "141316.847000", "141316.850000", "141316.853000", "141316.856000", "141316.859000", "141316.862000", "141316.865000", "141316.868000", "141316.871000", "141316.873000", "141316.877000", "141316.879000", "141316.882000", "141316.885000", "141316.888000", "141316.891000", "141316.894000", "141316.897000", "141316.900000", "141316.903000", "141316.905000", "141356.830000", "141356.833000", "141356.836000", "141356.839000", "141356.842000", "141356.844000", "141356.847000", "141356.850000", "141356.853000", "141356.856000", "141356.859000", "141356.862000", "141356.865000", "141356.867000", "141356.870000", "141356.873000", "141356.876000", "141356.879000", "141356.882000", "141356.885000", "141356.888000", "141356.890000", "141356.893000", "141356.901000", "141356.904000", "141356.907000", "141356.910000", "141436.830000", "141436.833000", "141436.836000", "141436.839000", "141436.842000", "141436.845000", "141436.847000", "141436.850000", "141436.853000", "141436.856000", "141436.859000", "141436.862000", "141436.865000", "141436.868000", "141436.871000", "141436.874000", "141436.876000", "141436.880000", "141436.882000", "141436.885000", "141436.888000", "141436.891000", "141436.894000", "141436.897000", "141436.900000", "141436.903000", "141516.830000", "141516.916000", "141516.919000", "141516.921000", "141516.924000", "141516.927000", "141516.930000", "141516.933000", "141516.936000", "141516.939000", "141516.942000", "141516.945000", "141516.948000", "141516.950000", "141516.953000", "141516.956000", "141516.959000", "141516.962000", "141516.965000", "141516.968000", "141516.971000", "141516.974000", "141516.976000", "141516.979000", "141516.982000", "141516.985000", "141516.988000", "141556.830000", "141556.833000", "141556.836000", "141556.839000", "141556.842000", "141556.845000", "141556.848000", "141556.851000", "141556.854000", "141556.857000", "141556.860000", "141556.863000", "141556.866000", "141556.869000", "141556.871000", "141556.874000", "141556.877000", "141556.880000", "141556.883000", "141556.886000", "141556.889000", "141556.892000", "141556.894000", "141556.897000", "141556.900000", "141556.903000", "141556.906000", "141636.830000", "141636.833000", "141636.851000", "141636.854000", "141636.857000", "141636.860000", "141636.863000", "141636.865000", "141636.868000", "141636.871000", "141636.874000", "141636.877000", "141636.880000", "141636.883000", "141636.886000", "141636.889000", "141636.891000", "141636.894000", "141636.897000", "141636.900000", "141636.903000", "141636.906000", "141636.909000", "141636.912000", "141636.915000", "141636.918000", "141636.921000", "141651.108000", "141651.111000", "141651.114000", "141651.131000", "141651.134000", "141651.137000", "141651.140000", "141651.143000", "141651.146000", "141651.149000"],
