{
  "AcquisitionMatrixPE": 104,
  "AcquisitionNumber": 1,
  "AcquisitionTime": "10:31:15.207500",
  "BandwidthPerPixelPhaseEncode": 17.17,
  "BaseResolution": 104,
  "BodyPartExamined": "BRAIN",
  "CoilCombinationMethod": "Sum of Squares",
  "ConsistencyInfo": "N4_VE11C_LATEST_20160120",
  "ConversionSoftware": "dcm2niix",
  "ConversionSoftwareVersion": "v1.0.20230411",
  "DerivedVendorReportedEchoSpacing": 0.000560011,
  "DeviceSerialNumber": "167006",
  "DwellTime": 2.1e-06,
  "EchoTime": 0.037,
  "EchoTrainLength": 104,
  "EffectiveEchoSpacing": 0.000560011,
  "FlipAngle": 52,
  "HeudiconvVersion": "0.5.3.post861+ge7d3c7f",
  "ImageComments": "Unaliased MB4/PE3/LB",
  "ImageOrientationPatientDICOM": [0.997438, 0.0693309, 0.017639, -0.0596081, 0.941761, -0.330959],
  "ImageOrientationText": "Tra>Cor(-19.2)>Sag(2.3)",
  "ImageType": [
    "ORIGINAL",
    "PRIMARY",
    "M",
    "MB",
    "ND",
    "MOSAIC"
],
  "ImagingFrequency": 123.249622,
  "InPlanePhaseEncodingDirectionDICOM": "COL",
  "InstitutionAddress": "Chemin Queen-Mary 4565,Montreal,District,CA,H3W 1W5",
  "InstitutionName": "IUGM",
  "InstitutionalDepartmentName": "Department",
  "MRAcquisitionType": "2D",
  "MagneticFieldStrength": 3,
  "Manufacturer": "Siemens",
  "ManufacturersModelName": "Prisma_fit",
  "MatrixCoilMode": "SENSE",
  "Modality": "MR",
  "MultibandAccelerationFactor": 4,
  "NonlinearGradientCorrection": false,
  "PartialFourier": 1,
  "PatientPosition": "HFS",
  "PercentPhaseFOV": 100,
  "PercentSampling": 100,
  "PhaseEncodingDirection": "j",
  "PhaseEncodingSteps": 104,
  "PhaseResolution": 1,
  "PixelBandwidth": 2290,
  "ProcedureStepDescription": "video^friends",
  "ProtocolName": "func_task-friends-s07e07a",
  "PulseSequenceDetails": "%CustomerSeq%\\cmrr_mbep2d_bold",
  "ReceiveCoilActiveElements": "HC1-7;NC1,2",
  "ReceiveCoilName": "HeadNeck_64",
  "ReconMatrixPE": 104,
  "RepetitionTime": 1.49,
  "SAR": 0.0472596,
  "ScanOptions": "FS",
  "ScanningSequence": "EP",
  "SequenceName": "epfid2d1_104",
  "SequenceVariant": "SK\\SS",
  "SeriesDescription": "func_task-friends-s07e07a",
  "SeriesNumber": 10,
  "ShimSetting": [611, -7209, -8841, 595, 132, 8, -87, 67],
  "SliceThickness": 2,
  "SliceTiming": [0, 0.785, 0.1, 0.8825, 0.1975, 0.98, 0.295, 1.08, 0.3925, 1.1775, 0.49, 1.275, 0.59, 1.3725, 0.6875, 0, 0.785, 0.1, 0.8825, 0.1975, 0.98, 0.295, 1.08, 0.3925, 1.1775, 0.49, 1.275, 0.59, 1.3725, 0.6875, 0, 0.785, 0.1, 0.8825, 0.1975, 0.98, 0.295, 1.08, 0.3925, 1.1775, 0.49, 1.275, 0.59, 1.3725, 0.6875, 0, 0.785, 0.1, 0.8825, 0.1975, 0.98, 0.295, 1.08, 0.3925, 1.1775, 0.49, 1.275, 0.59, 1.3725, 0.6875],
  "SoftwareVersions": "syngo MR E11",
  "SpacingBetweenSlices": 2,
  "StationName": "MRC35049",
  "TaskName": "s07e07a",
  "TotalReadoutTime": 0.0576811,
  "TxRefAmp": 250.949,
  "WipMemBlock": "afda79a6-0ce6-449a-a783-147995d917ce||Sequence: R017 ve11c/master r/75a17815+; Jun 28 2022 16:32:11 by eja",
  "dcmmeta_affine": [
    [-1.9948755502700806, -0.11921615898609161, 0.07911477982997894, 107.84712219238281],
    [-0.13866183161735535, 1.8835214376449585, -0.6581186056137085, -63.324710845947266],
    [0.03527800738811493, 0.6619174480438232, 1.8869606256484985, -67.38220977783203],
    [0.0, 0.0, 0.0, 1.0]
],
  "dcmmeta_reorient_transform": [
    [0.0, -1.0, 0.0, 103.0],
    [1.0, 0.0, 0.0, 0.0],
    [0.0, 0.0, 1.0, 0.0],
    [0.0, 0.0, 0.0, 1.0]
],
  "dcmmeta_shape": [104, 104, 60, 473],
  "dcmmeta_slice_dim": 2,
  "dcmmeta_version": 0.6,
  "global": {
    "const": {
      "AcquisitionMatrix": [104, 0, 0, 104],
      "AngioFlag": "N",
      "BitsAllocated": 16,
      "BitsStored": 16,
      "BodyPartExamined": "BRAIN",
      "Columns": 832,
      "EchoNumbers": 1,
      "EchoTime": 37.0,
      "EchoTrainLength": 104,
      "FlipAngle": 52.0,
      "HighBit": 15,
      "ImageOrientationPatient": [0.99743776239641, 0.06933091447584, 0.01763900347515, -0.0596080780403, 0.94176069237496, -0.3309587214892],
      "ImagePositionPatient": [-778.3078677931, -866.75268055343, 228.89204452649],
      "ImageType": [
        "ORIGINAL",
        "PRIMARY",
        "M",
        "MB",
        "ND",
        "MOSAIC"
],
      "ImagedNucleus": "1H",
      "ImagingFrequency": 123.249622,
      "InPlanePhaseEncodingDirection": "COL",
      "MRAcquisitionType": "2D",
      "MagneticFieldStrength": 3.0,
      "Manufacturer": "SIEMENS",
      "ManufacturerModelName": "Prisma_fit",
      "Modality": "MR",
      "NumberOfAverages": 1.0,
      "NumberOfPhaseEncodingSteps": 104,
      "PercentPhaseFieldOfView": 100.0,
      "PercentSampling": 100.0,
      "PerformedProcedureStepStartTime": "102650.822000",
      "PhotometricInterpretation": "MONOCHROME2",
      "PixelBandwidth": 2290.0,
      "PixelRepresentation": 0,
      "PixelSpacing": [2.0, 2.0],
      "ProtocolName": "func_task-friends-s07e07a",
      "RepetitionTime": 1490.0,
      "Rows": 832,
      "SAR": 0.04725955569637,
      "SamplesPerPixel": 1,
      "ScanOptions": "FS",
      "ScanningSequence": "EP",
      "SequenceName": "epfid2d1_104",
      "SequenceVariant": [
        "SK",
        "SS"
],
      "SeriesDescription": "func_task-friends-s07e07a",
      "SeriesNumber": 10,
      "SeriesTime": "103219.871000",
      "SliceLocation": -38.47005268085,
      "SliceThickness": 2.0,
      "SmallestImagePixelValue": 0,
      "SoftwareVersions": "syngo MR E11",
      "SpacingBetweenSlices": 1.9999999345611,
      "SpecificCharacterSet": "ISO_IR 100",
      "StudyID": "1",
      "StudyTime": "102650.744000",
      "TransmitCoilName": "Body",
      "VariableFlipAngleFlag": "N",
      "WindowCenterWidthExplanation": "Algo1",
      "dBdt": 0.0},
    "slices": {}
  },
  "time": {
    "samples": {
      "AcquisitionNumber": [1, 2, 3, 4, 5, 6, 7, 8, 9, 10, 11, 12, 13, 14, 15, 16, 17, 18, 19, 20, 21, 22, 23, 24, 25, 26, 27, 28, 29, 30, 31, 32, 33, 34, 35, 36, 37, 38, 39, 40, 41, 42, 43, 44, 45, 46, 47, 48, 49, 50, 51, 52, 53, 54, 55, 56, 57, 58, 59, 60, 61, 62, 63, 64, 65, 66, 67, 68, 69, 70, 71, 72, 73, 74, 75, 76, 77, 78, 79, 80, 81, 82, 83, 84, 85, 86, 87, 88, 89, 90, 91, 92, 93, 94, 95, 96, 97, 98, 99, 100, 101, 102, 103, 104, 105, 106, 107, 108, 109, 110, 111, 112, 113, 114, 115, 116, 117, 118, 119, 120, 121, 122, 123, 124, 125, 126, 127, 128, 129, 130, 131, 132, 133, 134, 135, 136, 137, 138, 139, 140, 141, 142, 143, 144, 145, 146, 147, 148, 149, 150, 151, 152, 153, 154, 155, 156, 157, 158, 159, 160, 161, 162, 163, 164, 165, 166, 167, 168, 169, 170, 171, 172, 173, 174, 175, 176, 177, 178, 179, 180, 181, 182, 183, 184, 185, 186, 187, 188, 189, 190, 191, 192, 193, 194, 195, 196, 197, 198, 199, 200, 201, 202, 203, 204, 205, 206, 207, 208, 209, 210, 211, 212, 213, 214, 215, 216, 217, 218, 219, 220, 221, 222, 223, 224, 225, 226, 227, 228, 229, 230, 231, 232, 233, 234, 235, 236, 237, 238, 239, 240, 241, 242, 243, 244, 245, 246, 247, 248, 249, 250, 251, 252, 253, 254, 255, 256, 257, 258, 259, 260, 261, 262, 263, 264, 265, 266, 267, 268, 269, 270, 271, 272, 273, 274, 275, 276, 277, 278, 279, 280, 281, 282, 283, 284, 285, 286, 287, 288, 289, 290, 291, 292, 293, 294, 295, 296, 297, 298, 299, 300, 301, 302, 303, 304, 305, 306, 307, 308, 309, 310, 311, 312, 313, 314, 315, 316, 317, 318, 319, 320, 321, 322, 323, 324, 325, 326, 327, 328, 329, 330, 331, 332, 333, 334, 335, 336, 337, 338, 339, 340, 341, 342, 343, 344, 345, 346, 347, 348, 349, 350, 351, 352, 353, 354, 355, 356, 357, 358, 359, 360, 361, 362, 363, 364, 365, 366, 367, 368, 369, 370, 371, 372, 373, 374, 375, 376, 377, 378, 379, 380, 381, 382, 383, 384, 385, 386, 387, 388, 389, 390, 391, 392, 393, 394, 395, 396, 397, 398, 399, 400, 401, 402, 403, 404, 405, 406, 407, 408, 409, 410, 411, 412, 413, 414, 415, 416, 417, 418, 419, 420, 421, 422, 423, 424, 425, 426, 427, 428, 429, 430, 431, 432, 433, 434, 435, 436, 437, 438, 439, 440, 441, 442, 443, 444, 445, 446, 447, 448, 449, 450, 451, 452, 453, 454, 455, 456, 457, 458, 459, 460, 461, 462, 463, 464, 465, 466, 467, 468, 469, 470, 471, 472, 473],
      "AcquisitionTime": ["103115.207500", "103116.697500", "103118.187500", "103119.677500", "103121.167500", "103122.657500", "103124.147500", "103125.637500", "103127.127500", "103128.617500", "103130.107500", "103131.597500", "103133.087500", "103134.577500", "103136.067500", "103137.557500", "103139.047500", "103140.537500", "103142.027500", "103143.517500", "103145.007500", "103146.497500", "103147.987500", "103149.477500", "103150.967500", "103152.457500", "103153.947500", "103155.437500", "103156.927500", "103158.417500", "103159.907500", "103201.397500", "103202.887500", "103204.377500", "103205.867500", "103207.357500", "103208.847500", "103210.337500", "103211.827500", "103213.317500", "103214.807500", "103216.297500", "103217.787500", "103219.277500", "103220.767500", "103222.257500", "103223.747500", "103225.237500", "103226.727500", "103228.217500", "103229.707500", "103231.197500", "103232.687500", "103234.177500", "103235.667500", "103237.157500", "103238.647500", "103240.137500", "103241.627500", "103243.117500", "103244.607500", "103246.097500", "103247.587500", "103249.077500", "103250.567500", "103252.057500", "103253.547500", "103255.037500", "103256.527500", "103258.017500", "103259.507500", "103300.997500", "103302.487500", "103303.977500", "103305.467500", "103306.957500", "103308.447500", "103309.937500", "103311.427500", "103312.917500", "103314.407500", "103315.897500", "103317.387500", "103318.877500", "103320.367500", "103321.857500", "103323.347500", "103324.837500", "103326.327500", "103327.817500", "103329.307500", "103330.797500", "103332.287500", "103333.777500", "103335.267500", "103336.757500", "103338.247500", "103339.737500", "103341.227500", "103342.717500", "103344.207500", "103345.697500", "103347.187500", "103348.677500", "103350.167500", "103351.657500", "103353.147500", "103354.637500", "103356.127500", "103357.617500", "103359.107500", "103400.597500", "103402.087500", "103403.577500", "103405.067500", "103406.557500", "103408.047500", "103409.537500", "103411.027500", "103412.517500", "103414.007500", "103415.497500", "103416.987500", "103418.477500", "103419.967500", "103421.457500", "103422.947500", "103424.437500", "103425.927500", "103427.417500", "103428.907500", "103430.397500", "103431.887500", "103433.377500", "103434.867500", "103436.357500", "103437.847500", "103439.337500", "103440.827500", "103442.317500", "103443.807500", "103445.297500", "103446.787500", "103448.277500", "103449.767500", "103451.257500", "103452.747500", "103454.237500", "103455.727500", "103457.217500", "103458.707500", "103500.197500", "103501.687500", "103503.177500", "103504.667500", "103506.157500", "103507.647500", "103509.137500", "103510.627500", "103512.117500", "103513.607500", "103515.097500", "103516.587500", "103518.077500", "103519.567500", "103521.057500", "103522.547500", "103524.037500", "103525.527500", "103527.017500", "103528.507500", "103529.997500", "103531.487500", "103532.977500", "103534.467500", "103535.957500", "103537.447500", "103538.937500", "103540.427500", "103541.917500", "103543.407500", "103544.897500", "103546.387500", "103547.877500", "103549.367500", "103550.857500", "103552.347500", "103553.837500", "103555.327500", "103556.817500", "103558.307500", "103559.797500", "103601.287500", "103602.777500", "103604.267500", "103605.757500", "103607.247500", "103608.737500", "103610.227500", "103611.717500", "103613.207500", "103614.697500", "103616.187500", "103617.677500", "103619.167500", "103620.657500", "103622.147500", "103623.637500", "103625.127500", "103626.617500", "103628.107500", "103629.597500", "103631.087500", "103632.577500", "103634.067500", "103635.557500", "103637.047500", "103638.537500", "103640.027500", "103641.517500", "103643.007500", "103644.497500", "103645.987500", "103647.477500", "103648.967500", "103650.457500", "103651.947500", "103653.437500", "103654.927500", "103656.417500", "103657.907500", "103659.397500", "103700.887500", "103702.377500", "103703.867500", "103705.357500", "103706.847500", "103708.337500", "103709.827500", "103711.317500", "103712.807500", "103714.297500", "103715.787500", "103717.277500", "103718.767500", "103720.257500", "103721.747500", "103723.237500", "103724.727500", "103726.217500", "103727.707500", "103729.197500", "103730.687500", "103732.177500", "103733.667500", "103735.157500", "103736.647500", "103738.137500", "103739.627500", "103741.117500", "103742.607500", "103744.097500", "103745.587500", "103747.077500", "103748.567500", "103750.057500", "103751.547500", "103753.037500", "103754.527500", "103756.017500", "103757.507500", "103758.997500", "103800.487500", "103801.977500", "103803.467500", "103804.957500", "103806.447500", "103807.937500", "103809.427500", "103810.917500", "103812.407500", "103813.897500", "103815.387500", "103816.877500", "103818.367500", "103819.857500", "103821.347500", "103822.837500", "103824.327500", "103825.817500", "103827.307500", "103828.797500", "103830.287500", "103831.777500", "103833.267500", "103834.757500", "103836.247500", "103837.737500", "103839.227500", "103840.717500", "103842.207500", "103843.697500", "103845.187500", "103846.677500", "103848.167500", "103849.657500", "103851.147500", "103852.637500", "103854.127500", "103855.617500", "103857.107500", "103858.597500", "103900.087500", "103901.577500", "103903.067500", "103904.557500", "103906.047500", "103907.537500", "103909.027500", "103910.517500", "103912.007500", "103913.497500", "103914.987500", "103916.477500", "103917.967500", "103919.457500", "103920.947500", "103922.437500", "103923.927500", "103925.417500", "103926.907500", "103928.397500", "103929.887500", "103931.377500", "103932.867500", "103934.357500", "103935.847500", "103937.337500", "103938.827500", "103940.317500", "103941.807500", "103943.297500", "103944.787500", "103946.277500", "103947.767500", "103949.257500", "103950.747500", "103952.237500", "103953.727500", "103955.217500", "103956.707500", "103958.197500", "103959.687500", "104001.177500", "104002.667500", "104004.157500", "104005.647500", "104007.137500", "104008.627500", "104010.117500", "104011.607500", "104013.097500", "104014.587500", "104016.077500", "104017.567500", "104019.057500", "104020.547500", "104022.037500", "104023.527500", "104025.017500", "104026.507500", "104027.997500", "104029.487500", "104030.977500", "104032.467500", "104033.957500", "104035.447500", "104036.937500", "104038.427500", "104039.917500", "104041.407500", "104042.897500", "104044.387500", "104045.877500", "104047.367500", "104048.857500", "104050.347500", "104051.837500", "104053.327500", "104054.817500", "104056.307500", "104057.797500", "104059.287500", "104100.777500", "104102.267500", "104103.757500", "104105.247500", "104106.737500", "104108.227500", "104109.717500", "104111.207500", "104112.697500", "104114.187500", "104115.677500", "104117.167500", "104118.657500", "104120.147500", "104121.637500", "104123.127500", "104124.617500", "104126.107500", "104127.597500", "104129.087500", "104130.577500", "104132.067500", "104133.557500", "104135.047500", "104136.537500", "104138.027500", "104139.517500", "104141.007500", "104142.497500", "104143.987500", "104145.477500", "104146.967500", "104148.457500", "104149.947500", "104151.437500", "104152.927500", "104154.417500", "104155.907500", "104157.397500", "104158.887500", "104200.377500", "104201.867500", "104203.357500", "104204.847500", "104206.337500", "104207.827500", "104209.317500", "104210.807500", "104212.297500", "104213.787500", "104215.277500", "104216.767500", "104218.257500", "104219.747500", "104221.237500", "104222.727500", "104224.217500", "104225.707500", "104227.197500", "104228.687500", "104230.177500", "104231.667500", "104233.157500", "104234.647500", "104236.137500", "104237.627500", "104239.117500", "104240.607500", "104242.097500", "104243.587500", "104245.077500", "104246.567500", "104248.057500", "104249.547500", "104251.037500", "104252.527500", "104254.017500", "104255.507500", "104256.997500", "104258.487500"],
      "ContentTime": ["103219.874000", "103219.877000", "103219.880000", "103219.883000", "103219.886000", "103219.889000", "103219.892000", "103219.895000", "103219.898000", "103219.901000", "103239.847000", "103239.850000", "103239.853000", "103239.856000", "103239.859000", "103239.862000", "103239.865000", "103239.868000", "103239.871000", "103239.873000", "103239.876000", "103239.879000", "103239.882000", "103239.885000", "103239.888000", "103239.897000", "103239.900000", "103239.902000", "103239.905000", "103239.911000", "103239.914000", "103259.847000", "103259.854000", "103259.856000", "103259.859000", "103259.862000", "103259.871000", "103259.874000", "103259.877000", "103259.880000", "103259.883000", "103259.886000", "103259.889000", "103259.892000", "103259.895000", "103259.898000", "103259.901000", "103259.904000", "103259.907000", "103259.910000", "103259.913000", "103319.847000", "103319.850000", "103319.853000", "103319.856000", "103319.859000", "103319.862000", "103319.864000", "103319.867000", "103319.870000", "103319.873000", "103319.876000", "103319.879000", "103319.882000", "103319.885000", "103319.888000", "103319.891000", "103319.894000", "103319.897000", "103319.899000", "103319.902000", "103339.847000", "103339.850000", "103339.853000", "103339.856000", "103339.859000", "103339.862000", "103339.864000", "103339.867000", "103339.870000", "103339.873000", "103339.876000", "103339.879000", "103339.882000", "103339.885000", "103339.888000", "103339.891000", "103339.909000", "103339.912000", "103339.915000", "103339.918000", "103419.847000", "103419.850000", "103419.853000", "103419.856000", "103419.859000", "103419.862000", "103419.865000", "103419.868000", "103419.870000", "103419.873000", "103419.876000", "103419.879000", "103419.882000", "103419.885000", "103419.888000", "103419.891000", "103419.894000", "103419.897000", "103419.900000", "103419.910000", "103419.913000", "103419.916000", "103419.919000", "103419.922000", "103419.925000", "103419.927000", "103419.930000", "103419.933000", "103419.936000", "103459.847000", "103459.850000", "103459.853000", "103459.856000", "103459.859000", "103459.862000", "103459.865000", "103459.868000", "103459.870000", "103459.874000", "103459.876000", "103459.879000", "103459.882000", "103459.885000", "103459.888000", "103459.891000", "103459.894000", "103459.897000", "103459.900000", "103459.903000", "103459.906000", "103459.909000", "103459.912000", "103459.914000", "103459.917000", "103459.920000", "103459.923000", "103539.847000", "103539.850000", "103539.853000", "103539.856000", "103539.859000", "103539.862000", "103539.865000", "103539.868000", "103539.871000", "103539.874000", "103539.877000", "103539.880000", "103539.882000", "103539.885000", "103539.888000", "103539.891000", "103539.894000", "103539.897000", "103539.900000", "103539.903000", "103539.906000", "103539.909000", "103539.912000", "103539.915000", "103539.918000", "103539.921000", "103539.924000", "103619.847000", "103619.850000", "103619.853000", "103619.856000", "103619.859000", "103619.862000", "103619.871000", "103619.874000", "103619.877000", "103619.879000", "103619.883000", "103619.886000", "103619.889000", "103619.902000", "103619.905000", "103619.908000", "103619.911000", "103619.914000", "103619.917000", "103619.920000", "103619.923000", "103619.926000", "103619.929000", "103619.932000", "103619.935000", "103619.938000", "103619.941000", "103659.847000", "103659.850000", "103659.853000", "103659.856000", "103659.859000", "103659.862000", "103659.865000", "103659.873000", "103659.876000", "103659.879000", "103659.882000", "103659.886000", "103659.889000", "103659.892000", "103659.894000", "103659.898000", "103659.901000", "103659.904000", "103659.906000", "103659.910000", "103659.912000", "103659.915000", "103659.918000", "103659.921000", "103659.924000", "103659.927000", "103739.847000", "103739.850000", "103739.853000", "103739.856000", "103739.859000", "103739.862000", "103739.865000", "103739.868000", "103739.871000", "103739.874000", "103739.876000", "103739.879000", "103739.882000", "103739.885000", "103739.888000", "103739.891000", "103739.894000", "103739.908000", "103739.911000", "103739.914000", "103739.917000", "103739.919000", "103739.922000", "103739.925000", "103739.928000", "103739.931000", "103739.934000", "103819.847000", "103819.850000", "103819.853000", "103819.856000", "103819.859000", "103819.862000", "103819.865000", "103819.868000", "103819.871000", "103819.874000", "103819.877000", "103819.880000", "103819.883000", "103819.886000", "103819.889000", "103819.892000", "103819.895000", "103819.898000", "103819.901000", "103819.903000", "103819.906000", "103819.909000", "103819.912000", "103819.915000", "103819.918000", "103819.921000", "103819.924000", "103859.847000", "103859.850000", "103859.853000", "103859.856000", "103859.859000", "103859.862000", "103859.865000", "103859.868000", "103859.871000", "103859.874000", "103859.877000", "103859.880000", "103859.883000", "103859.886000", "103859.889000", "103859.891000", "103859.894000", "103859.897000", "103859.900000", "103859.903000", "103859.906000", "103859.909000", "103859.912000", "103859.915000", "103859.918000", "103859.921000", "103859.924000", "103939.847000", "103939.850000", "103939.853000", "103939.856000", "103939.859000", "103939.862000", "103939.865000", "103939.868000", "103939.871000", "103939.874000", "103939.877000", "103939.880000", "103939.882000", "103939.885000", "103939.888000", "103939.891000", "103939.894000", "103939.897000", "103939.900000", "103939.903000", "103939.906000", "103939.909000", "103939.912000", "103939.915000", "103939.918000", "103939.920000", "103939.923000", "104019.847000", "104019.850000", "104019.853000", "104019.856000", "104019.859000", "104019.862000", "104019.865000", "104019.868000", "104019.871000", "104019.874000", "104019.877000", "104019.880000", "104019.883000", "104019.886000", "104019.889000", "104019.891000", "104019.894000", "104019.897000", "104019.900000", "104019.903000", "104019.906000", "104019.909000", "104019.912000", "104019.915000", "104019.918000", "104019.921000", "104019.924000", "104059.847000", "104059.850000", "104059.853000", "104059.856000", "104059.859000", "104059.862000", "104059.865000", "104059.868000", "104059.870000", "104059.873000", "104059.876000", "104059.879000", "104059.882000", "104059.896000", "104059.899000", "104059.902000", "104059.905000", "104059.908000", "104059.911000", "104059.914000", "104059.916000", "104059.919000", "104059.922000", "104059.925000", "104059.928000", "104059.931000", "104059.934000", "104139.847000", "104139.850000", "104139.853000", "104139.856000", "104139.859000", "104139.862000", "104139.865000", "104139.868000", "104139.871000", "104139.874000", "104139.877000", "104139.880000", "104139.883000", "104139.886000", "104139.889000", "104139.891000", "104139.894000", "104139.897000", "104139.900000", "104139.903000", "104139.906000", "104139.909000", "104139.912000", "104139.915000", "104139.918000", "104139.921000", "104219.847000", "104219.850000", "104219.853000", "104219.856000", "104219.859000", "104219.862000", "104219.865000", "104219.868000", "104219.871000", "104219.874000", "104219.877000", "104219.879000", "104219.882000", "104219.885000", "104219.888000", "104219.891000", "104219.894000", "104219.897000", "104219.900000", "104219.903000", "104219.906000", "104219.909000", "104219.912000", "104219.915000", "104219.917000", "104219.920000", "104219.923000", "104259.847000", "104259.850000", "104259.853000", "104259.856000", "104259.859000", "104259.862000", "104259.865000", "104259.868000", "104259.871000", "104259.874000", "104259.877000", "104259.880000", "104259.883000", "104259.886000", "104259.889000", "104259.892000", "104259.895000", "104259.897000", "104259.900000", "104259.903000", "104259.906000", "104259.909000", "104259.912000", "104259.915000", "104259.918000", "104259.921000", "104259.924000", "104305.028000", "104305.031000", "104305.034000", "104305.037000"],
