{
  "AcquisitionMatrixPE": 104,
  "AcquisitionNumber": 1,
  "AcquisitionTime": "10:19:28.042500",
  "BandwidthPerPixelPhaseEncode": 17.17,
  "BaseResolution": 104,
  "BodyPartExamined": "BRAIN",
  "CoilString": "HC1-7;NC1_2",
  "ConsistencyInfo": "N4_VE11C_LATEST_20160120",
  "ConversionSoftware": "dcm2niix",
  "ConversionSoftwareVersion": "v1.0.20190902",
  "DerivedVendorReportedEchoSpacing": 0.000560011,
  "DeviceSerialNumber": "167006",
  "DwellTime": 2.1e-06,
  "EchoTime": 0.037,
  "EchoTrainLength": 104,
  "EffectiveEchoSpacing": 0.000560011,
  "FlipAngle": 52,
  "ImageComments": "Unaliased_MB4_PE3_LB",
  "ImageOrientationPatientDICOM": [0.996421, 0.0623454, 0.0570898, -0.0417624, 0.950214, -0.308786],
  "ImageType": [
    "ORIGINAL",
    "PRIMARY",
    "M",
    "MB",
    "ND",
    "MOSAIC"
],
  "ImagingFrequency": 123.259,
  "InPlanePhaseEncodingDirectionDICOM": "COL",
  "InstitutionAddress": "Chemin_Queen-Mary_4565_Montreal_District_CA_H3W_1W5",
  "InstitutionName": "IUGM",
  "InstitutionalDepartmentName": "Department",
  "MRAcquisitionType": "2D",
  "MagneticFieldStrength": 3,
  "Manufacturer": "Siemens",
  "ManufacturersModelName": "Prisma_fit",
  "Modality": "MR",
  "MultibandAccelerationFactor": 4,
  "PartialFourier": 1,
  "PatientPosition": "HFS",
  "PercentPhaseFOV": 100,
  "PhaseEncodingDirection": "j",
  "PhaseEncodingSteps": 104,
  "PhaseResolution": 1,
  "PixelBandwidth": 2290,
  "ProcedureStepDescription": "video_friends",
  "ProtocolName": "func_task-friends-s03e20a",
  "PulseSequenceDetails": "%CustomerSeq%_cmrr_mbep2d_bold",
  "ReceiveCoilActiveElements": "HC1-7;NC1,2",
  "ReceiveCoilName": "HeadNeck_64",
  "ReconMatrixPE": 104,
  "RepetitionTime": 1.49,
  "SAR": 0.0382359,
  "ScanOptions": "FS",
  "ScanningSequence": "EP",
  "SequenceName": "epfid2d1_104",
  "SequenceVariant": "SK_SS",
  "SeriesDescription": "func_task-friends-s03e20a",
  "SeriesNumber": 17,
  "ShimSetting": [646, -7208, -8821, 662, 101, -48, 44, 10],
  "SliceThickness": 2,
  "SliceTiming": [0, 0.785, 0.0975, 0.8825, 0.1975, 0.98, 0.295, 1.0775, 0.3925, 1.175, 0.49, 1.275, 0.5875, 1.3725, 0.685, 0, 0.785, 0.0975, 0.8825, 0.1975, 0.98, 0.295, 1.0775, 0.3925, 1.175, 0.49, 1.275, 0.5875, 1.3725, 0.685, 0, 0.785, 0.0975, 0.8825, 0.1975, 0.98, 0.295, 1.0775, 0.3925, 1.175, 0.49, 1.275, 0.5875, 1.3725, 0.685, 0, 0.785, 0.0975, 0.8825, 0.1975, 0.98, 0.295, 1.0775, 0.3925, 1.175, 0.49, 1.275, 0.5875, 1.3725, 0.685],
  "SoftwareVersions": "syngo_MR_E11",
  "SpacingBetweenSlices": 2,
  "StationName": "MRC35049",
  "TaskName": "s03e20a",
  "TotalReadoutTime": 0.0576811,
  "TxRefAmp": 244.925,
  "WipMemBlock": "fa26aead-3961-4bf5-9af5-a65f2733c433||Sequence: R016 ve11c/master r/e634e98; Dec 19 2017 11:00:25 by eja",
  "dcmmeta_affine": [
    [-1.9928410053253174, -0.08352486044168472, 0.1469978392124176, 103.78679656982422],
    [-0.12469076365232468, 1.9004285335540771, -0.6105929017066956, -66.0221939086914],
    [0.1141795963048935, 0.6175719499588013, 1.8988332748413086, -59.929080963134766],
    [0.0, 0.0, 0.0, 1.0]
],
  "dcmmeta_reorient_transform": [
    [0.0, -1.0, 0.0, 103.0],
    [1.0, 0.0, 0.0, 0.0],
    [0.0, 0.0, 1.0, 0.0],
    [0.0, 0.0, 0.0, 1.0]
],
  "dcmmeta_shape": [104, 104, 60, 464],
  "dcmmeta_slice_dim": 2,
  "dcmmeta_version": 0.6,
  "global": {
    "const": {
      "AcquisitionMatrix": [104, 0, 0, 104],
      "AngioFlag": "N",
      "BitsAllocated": 16,
      "BitsStored": 16,
      "BodyPartExamined": "BRAIN",
      "Columns": 832,
      "EchoNumbers": 1,
      "EchoTime": 37.0,
      "EchoTrainLength": 104,
      "FlipAngle": 52.0,
      "HighBit": 15,
      "ImageOrientationPatient": [0.9964204977573, 0.06234538135713, 0.05708979832273, -0.0417624296994, 0.95021425108414, -0.3087859719971],
      "ImagePositionPatient": [-790.17480795423, -866.86535706528, 186.91564536062],
      "ImageType": [
        "ORIGINAL",
        "PRIMARY",
        "M",
        "MB",
        "ND",
        "MOSAIC"
],
      "ImagedNucleus": "1H",
      "ImagingFrequency": 123.25904,
      "InPlanePhaseEncodingDirection": "COL",
      "MRAcquisitionType": "2D",
      "MagneticFieldStrength": 3.0,
      "Manufacturer": "SIEMENS",
      "ManufacturerModelName": "Prisma_fit",
      "Modality": "MR",
      "NumberOfAverages": 1.0,
      "NumberOfPhaseEncodingSteps": 104,
      "PercentPhaseFieldOfView": 100.0,
      "PercentSampling": 100.0,
      "PerformedProcedureStepStartTime": "091622.832000",
      "PhotometricInterpretation": "MONOCHROME2",
      "PixelBandwidth": 2290.0,
      "PixelRepresentation": 0,
      "PixelSpacing": [2.0, 2.0],
      "ProtocolName": "func_task-friends-s03e20a",
      "RepetitionTime": 1490.0,
      "Rows": 832,
      "SAR": 0.03823590854498,
      "SamplesPerPixel": 1,
      "ScanOptions": "FS",
      "ScanningSequence": "EP",
      "SequenceName": "epfid2d1_104",
      "SequenceVariant": [
        "SK",
        "SS"
],
      "SeriesDescription": "func_task-friends-s03e20a",
      "SeriesNumber": 17,
      "SeriesTime": "102039.612000",
      "SliceLocation": -29.11310713282,
      "SliceThickness": 2.0,
      "SmallestImagePixelValue": 0,
      "SoftwareVersions": "syngo MR E11",
      "SpacingBetweenSlices": 1.9999999616006,
      "SpecificCharacterSet": "ISO_IR 100",
      "StudyID": "1",
      "StudyTime": "091622.644000",
      "TransmitCoilName": "Body",
      "VariableFlipAngleFlag": "N",
      "WindowCenterWidthExplanation": "Algo1",
      "dBdt": 0.0},
    "slices": {}
  },
  "time": {
    "samples": {
      "AcquisitionNumber": [1, 2, 3, 4, 5, 6, 7, 8, 9, 10, 11, 12, 13, 14, 15, 16, 17, 18, 19, 20, 21, 22, 23, 24, 25, 26, 27, 28, 29, 30, 31, 32, 33, 34, 35, 36, 37, 38, 39, 40, 41, 42, 43, 44, 45, 46, 47, 48, 49, 50, 51, 52, 53, 54, 55, 56, 57, 58, 59, 60, 61, 62, 63, 64, 65, 66, 67, 68, 69, 70, 71, 72, 73, 74, 75, 76, 77, 78, 79, 80, 81, 82, 83, 84, 85, 86, 87, 88, 89, 90, 91, 92, 93, 94, 95, 96, 97, 98, 99, 100, 101, 102, 103, 104, 105, 106, 107, 108, 109, 110, 111, 112, 113, 114, 115, 116, 117, 118, 119, 120, 121, 122, 123, 124, 125, 126, 127, 128, 129, 130, 131, 132, 133, 134, 135, 136, 137, 138, 139, 140, 141, 142, 143, 144, 145, 146, 147, 148, 149, 150, 151, 152, 153, 154, 155, 156, 157, 158, 159, 160, 161, 162, 163, 164, 165, 166, 167, 168, 169, 170, 171, 172, 173, 174, 175, 176, 177, 178, 179, 180, 181, 182, 183, 184, 185, 186, 187, 188, 189, 190, 191, 192, 193, 194, 195, 196, 197, 198, 199, 200, 201, 202, 203, 204, 205, 206, 207, 208, 209, 210, 211, 212, 213, 214, 215, 216, 217, 218, 219, 220, 221, 222, 223, 224, 225, 226, 227, 228, 229, 230, 231, 232, 233, 234, 235, 236, 237, 238, 239, 240, 241, 242, 243, 244, 245, 246, 247, 248, 249, 250, 251, 252, 253, 254, 255, 256, 257, 258, 259, 260, 261, 262, 263, 264, 265, 266, 267, 268, 269, 270, 271, 272, 273, 274, 275, 276, 277, 278, 279, 280, 281, 282, 283, 284, 285, 286, 287, 288, 289, 290, 291, 292, 293, 294, 295, 296, 297, 298, 299, 300, 301, 302, 303, 304, 305, 306, 307, 308, 309, 310, 311, 312, 313, 314, 315, 316, 317, 318, 319, 320, 321, 322, 323, 324, 325, 326, 327, 328, 329, 330, 331, 332, 333, 334, 335, 336, 337, 338, 339, 340, 341, 342, 343, 344, 345, 346, 347, 348, 349, 350, 351, 352, 353, 354, 355, 356, 357, 358, 359, 360, 361, 362, 363, 364, 365, 366, 367, 368, 369, 370, 371, 372, 373, 374, 375, 376, 377, 378, 379, 380, 381, 382, 383, 384, 385, 386, 387, 388, 389, 390, 391, 392, 393, 394, 395, 396, 397, 398, 399, 400, 401, 402, 403, 404, 405, 406, 407, 408, 409, 410, 411, 412, 413, 414, 415, 416, 417, 418, 419, 420, 421, 422, 423, 424, 425, 426, 427, 428, 429, 430, 431, 432, 433, 434, 435, 436, 437, 438, 439, 440, 441, 442, 443, 444, 445, 446, 447, 448, 449, 450, 451, 452, 453, 454, 455, 456, 457, 458, 459, 460, 461, 462, 463, 464],
      "AcquisitionTime": ["101928.042500", "101929.532500", "101931.022500", "101932.512500", "101934.002500", "101935.492500", "101936.982500", "101938.472500", "101939.962500", "101941.452500", "101942.942500", "101944.432500", "101945.922500", "101947.412500", "101948.902500", "101950.392500", "101951.882500", "101953.372500", "101954.862500", "101956.352500", "101957.842500", "101959.332500", "102000.822500", "102002.312500", "102003.802500", "102005.292500", "102006.782500", "102008.272500", "102009.762500", "102011.252500", "102012.742500", "102014.232500", "102015.722500", "102017.212500", "102018.702500", "102020.192500", "102021.682500", "102023.172500", "102024.662500", "102026.152500", "102027.642500", "102029.132500", "102030.622500", "102032.112500", "102033.602500", "102035.092500", "102036.582500", "102038.072500", "102039.562500", "102041.052500", "102042.542500", "102044.032500", "102045.522500", "102047.012500", "102048.502500", "102049.992500", "102051.482500", "102052.972500", "102054.462500", "102055.952500", "102057.442500", "102058.932500", "102100.422500", "102101.912500", "102103.402500", "102104.892500", "102106.382500", "102107.872500", "102109.362500", "102110.852500", "102112.342500", "102113.832500", "102115.322500", "102116.812500", "102118.302500", "102119.792500", "102121.282500", "102122.772500", "102124.262500", "102125.752500", "102127.242500", "102128.732500", "102130.222500", "102131.712500", "102133.202500", "102134.692500", "102136.182500", "102137.672500", "102139.162500", "102140.652500", "102142.142500", "102143.632500", "102145.122500", "102146.612500", "102148.102500", "102149.592500", "102151.082500", "102152.572500", "102154.062500", "102155.552500", "102157.042500", "102158.532500", "102200.022500", "102201.512500", "102203.002500", "102204.492500", "102205.982500", "102207.472500", "102208.962500", "102210.452500", "102211.942500", "102213.432500", "102214.922500", "102216.412500", "102217.902500", "102219.392500", "102220.882500", "102222.372500", "102223.862500", "102225.352500", "102226.842500", "102228.332500", "102229.822500", "102231.312500", "102232.802500", "102234.292500", "102235.782500", "102237.272500", "102238.762500", "102240.252500", "102241.742500", "102243.232500", "102244.722500", "102246.212500", "102247.702500", "102249.192500", "102250.682500", "102252.172500", "102253.662500", "102255.152500", "102256.642500", "102258.132500", "102259.622500", "102301.112500", "102302.602500", "102304.092500", "102305.582500", "102307.072500", "102308.562500", "102310.052500", "102311.542500", "102313.032500", "102314.522500", "102316.012500", "102317.502500", "102318.992500", "102320.482500", "102321.972500", "102323.462500", "102324.952500", "102326.442500", "102327.932500", "102329.422500", "102330.912500", "102332.402500", "102333.892500", "102335.382500", "102336.872500", "102338.362500", "102339.852500", "102341.342500", "102342.832500", "102344.322500", "102345.812500", "102347.302500", "102348.792500", "102350.282500", "102351.772500", "102353.262500", "102354.752500", "102356.242500", "102357.732500", "102359.222500", "102400.712500", "102402.202500", "102403.692500", "102405.182500", "102406.672500", "102408.162500", "102409.652500", "102411.142500", "102412.632500", "102414.122500", "102415.612500", "102417.102500", "102418.592500", "102420.082500", "102421.572500", "102423.062500", "102424.552500", "102426.042500", "102427.532500", "102429.022500", "102430.512500", "102432.002500", "102433.492500", "102434.982500", "102436.472500", "102437.962500", "102439.452500", "102440.942500", "102442.432500", "102443.922500", "102445.412500", "102446.902500", "102448.392500", "102449.882500", "102451.372500", "102452.862500", "102454.352500", "102455.842500", "102457.332500", "102458.822500", "102500.312500", "102501.802500", "102503.292500", "102504.782500", "102506.272500", "102507.762500", "102509.252500", "102510.742500", "102512.232500", "102513.722500", "102515.212500", "102516.702500", "102518.192500", "102519.682500", "102521.172500", "102522.662500", "102524.152500", "102525.642500", "102527.132500", "102528.622500", "102530.112500", "102531.602500", "102533.092500", "102534.582500", "102536.072500", "102537.562500", "102539.052500", "102540.542500", "102542.032500", "102543.522500", "102545.012500", "102546.502500", "102547.992500", "102549.482500", "102550.972500", "102552.462500", "102553.952500", "102555.442500", "102556.932500", "102558.422500", "102559.912500", "102601.402500", "102602.892500", "102604.382500", "102605.872500", "102607.362500", "102608.852500", "102610.342500", "102611.832500", "102613.322500", "102614.812500", "102616.302500", "102617.792500", "102619.282500", "102620.772500", "102622.262500", "102623.752500", "102625.242500", "102626.732500", "102628.222500", "102629.712500", "102631.202500", "102632.692500", "102634.182500", "102635.672500", "102637.162500", "102638.652500", "102640.142500", "102641.632500", "102643.122500", "102644.612500", "102646.102500", "102647.592500", "102649.082500", "102650.572500", "102652.062500", "102653.552500", "102655.042500", "102656.532500", "102658.022500", "102659.512500", "102701.002500", "102702.492500", "102703.982500", "102705.472500", "102706.962500", "102708.452500", "102709.942500", "102711.432500", "102712.922500", "102714.412500", "102715.902500", "102717.392500", "102718.882500", "102720.372500", "102721.862500", "102723.352500", "102724.842500", "102726.332500", "102727.822500", "102729.312500", "102730.802500", "102732.292500", "102733.782500", "102735.272500", "102736.762500", "102738.252500", "102739.742500", "102741.232500", "102742.722500", "102744.212500", "102745.702500", "102747.192500", "102748.682500", "102750.172500", "102751.662500", "102753.152500", "102754.642500", "102756.132500", "102757.622500", "102759.112500", "102800.602500", "102802.092500", "102803.582500", "102805.072500", "102806.562500", "102808.052500", "102809.542500", "102811.032500", "102812.522500", "102814.012500", "102815.502500", "102816.992500", "102818.482500", "102819.972500", "102821.462500", "102822.952500", "102824.442500", "102825.932500", "102827.422500", "102828.912500", "102830.402500", "102831.892500", "102833.382500", "102834.872500", "102836.362500", "102837.852500", "102839.342500", "102840.832500", "102842.322500", "102843.812500", "102845.302500", "102846.792500", "102848.282500", "102849.772500", "102851.262500", "102852.752500", "102854.242500", "102855.732500", "102857.222500", "102858.712500", "102900.202500", "102901.692500", "102903.182500", "102904.672500", "102906.162500", "102907.652500", "102909.142500", "102910.632500", "102912.122500", "102913.612500", "102915.102500", "102916.592500", "102918.082500", "102919.572500", "102921.062500", "102922.552500", "102924.042500", "102925.532500", "102927.022500", "102928.512500", "102930.002500", "102931.492500", "102932.982500", "102934.472500", "102935.962500", "102937.452500", "102938.942500", "102940.432500", "102941.922500", "102943.412500", "102944.902500", "102946.392500", "102947.882500", "102949.372500", "102950.862500", "102952.352500", "102953.842500", "102955.332500", "102956.822500", "102958.312500", "102959.802500", "103001.292500", "103002.782500", "103004.272500", "103005.762500", "103007.252500", "103008.742500", "103010.232500", "103011.722500", "103013.212500", "103014.702500", "103016.192500", "103017.682500", "103019.172500", "103020.662500", "103022.152500", "103023.642500", "103025.132500", "103026.622500", "103028.112500", "103029.602500", "103031.092500", "103032.582500", "103034.072500", "103035.562500", "103037.052500", "103038.542500", "103040.032500", "103041.522500", "103043.012500", "103044.502500", "103045.992500", "103047.482500", "103048.972500", "103050.462500", "103051.952500", "103053.442500", "103054.932500", "103056.422500", "103057.912500"],
      "ContentTime": ["102039.615000", "102039.618000", "102039.621000", "102039.624000", "102039.627000", "102039.630000", "102039.633000", "102039.636000", "102039.638000", "102039.641000", "102039.647000", "102039.649000", "102039.652000", "102039.655000", "102039.658000", "102039.661000", "102039.664000", "102039.667000", "102059.573000", "102059.576000", "102059.579000", "102059.582000", "102059.584000", "102059.587000", "102059.590000", "102059.593000", "102059.596000", "102059.599000", "102059.602000", "102059.605000", "102059.607000", "102059.610000", "102059.613000", "102059.616000", "102059.619000", "102059.622000", "102059.625000", "102059.627000", "102119.573000", "102119.576000", "102119.579000", "102119.586000", "102119.589000", "102119.592000", "102119.595000", "102119.598000", "102119.601000", "102119.604000", "102119.607000", "102119.610000", "102119.621000", "102119.624000", "102119.650000", "102119.653000", "102119.656000", "102119.659000", "102119.663000", "102119.666000", "102139.573000", "102139.576000", "102139.579000", "102139.582000", "102139.584000", "102139.587000", "102139.590000", "102139.593000", "102139.596000", "102139.599000", "102139.602000", "102139.605000", "102139.608000", "102139.611000", "102139.614000", "102139.617000", "102139.619000", "102139.622000", "102139.625000", "102139.628000", "102159.573000", "102159.576000", "102159.579000", "102159.582000", "102159.585000", "102159.588000", "102159.591000", "102159.594000", "102159.597000", "102159.600000", "102159.603000", "102159.605000", "102159.608000", "102159.611000", "102159.614000", "102159.617000", "102159.620000", "102159.623000", "102159.626000", "102159.629000", "102239.573000", "102239.576000", "102239.579000", "102239.582000", "102239.585000", "102239.587000", "102239.590000", "102239.593000", "102239.596000", "102239.599000", "102239.602000", "102239.605000", "102239.608000", "102239.611000", "102239.614000", "102239.617000", "102239.620000", "102239.623000", "102239.625000", "102239.628000", "102239.631000", "102239.634000", "102239.637000", "102239.640000", "102239.643000", "102239.646000", "102239.649000", "102239.652000", "102239.655000", "102239.657000", "102319.573000", "102319.576000", "102319.579000", "102319.582000", "102319.585000", "102319.588000", "102319.590000", "102319.593000", "102319.596000", "102319.599000", "102319.602000", "102319.605000", "102319.608000", "102319.611000", "102319.614000", "102319.617000", "102319.619000", "102319.622000", "102319.625000", "102319.628000", "102319.631000", "102319.634000", "102319.637000", "102319.640000", "102319.643000", "102319.646000", "102319.649000", "102359.573000", "102359.576000", "102359.579000", "102359.582000", "102359.585000", "102359.588000", "102359.596000", "102359.599000", "102359.602000", "102359.604000", "102359.607000", "102359.610000", "102359.613000", "102359.616000", "102359.619000", "102359.622000", "102359.625000", "102359.628000", "102359.632000", "102359.635000", "102359.638000", "102359.641000", "102359.644000", "102359.647000", "102359.649000", "102359.652000", "102439.573000", "102439.576000", "102439.579000", "102439.582000", "102439.585000", "102439.588000", "102439.591000", "102439.593000", "102439.596000", "102439.599000", "102439.602000", "102439.605000", "102439.608000", "102439.611000", "102439.614000", "102439.616000", "102439.619000", "102439.622000", "102439.625000", "102439.628000", "102439.631000", "102439.634000", "102439.637000", "102439.640000", "102439.643000", "102439.645000", "102439.648000", "102519.572000", "102519.575000", "102519.578000", "102519.581000", "102519.585000", "102519.588000", "102519.591000", "102519.594000", "102519.597000", "102519.600000", "102519.603000", "102519.606000", "102519.609000", "102519.612000", "102519.614000", "102519.618000", "102519.620000", "102519.623000", "102519.626000", "102519.629000", "102519.632000", "102519.635000", "102519.638000", "102519.641000", "102519.644000", "102519.647000", "102519.650000", "102559.573000", "102559.576000", "102559.579000", "102559.582000", "102559.585000", "102559.588000", "102559.591000", "102559.594000", "102559.597000", "102559.600000", "102559.613000", "102559.616000", "102559.619000", "102559.622000", "102559.625000", "102559.628000", "102559.631000", "102559.634000", "102559.637000", "102559.649000", "102559.652000", "102559.655000", "102559.658000", "102559.661000", "102559.664000", "102559.667000", "102559.670000", "102639.573000", "102639.576000", "102639.579000", "102639.582000", "102639.585000", "102639.588000", "102639.591000", "102639.594000", "102639.597000", "102639.600000", "102639.603000", "102639.606000", "102639.609000", "102639.612000", "102639.615000", "102639.618000", "102639.621000", "102639.624000", "102639.628000", "102639.631000", "102639.634000", "102639.637000", "102639.639000", "102639.642000", "102639.645000", "102639.648000", "102639.651000", "102719.573000", "102719.576000", "102719.579000", "102719.582000", "102719.585000", "102719.588000", "102719.591000", "102719.594000", "102719.597000", "102719.600000", "102719.603000", "102719.606000", "102719.609000", "102719.612000", "102719.615000", "102719.618000", "102719.621000", "102719.623000", "102719.626000", "102719.630000", "102719.633000", "102719.635000", "102719.638000", "102719.641000", "102719.644000", "102719.647000", "102719.650000", "102759.573000", "102759.576000", "102759.584000", "102759.587000", "102759.590000", "102759.593000", "102759.596000", "102759.599000", "102759.602000", "102759.605000", "102759.608000", "102759.611000", "102759.614000", "102759.617000", "102759.620000", "102759.623000", "102759.626000", "102759.629000", "102759.632000", "102759.635000", "102759.638000", "102759.641000", "102759.644000", "102759.647000", "102759.649000", "102759.652000", "102759.655000", "102839.573000", "102839.576000", "102839.579000", "102839.582000", "102839.585000", "102839.588000", "102839.591000", "102839.594000", "102839.597000", "102839.600000", "102839.603000", "102839.606000", "102839.609000", "102839.613000", "102839.616000", "102839.619000", "102839.622000", "102839.625000", "102839.628000", "102839.631000", "102839.634000", "102839.637000", "102839.640000", "102839.643000", "102839.645000", "102839.648000", "102859.573000", "102859.576000", "102859.579000", "102859.582000", "102859.585000", "102859.588000", "102859.591000", "102859.594000", "102859.597000", "102859.600000", "102859.603000", "102859.606000", "102859.609000", "102859.612000", "102939.573000", "102939.576000", "102939.579000", "102939.582000", "102939.585000", "102939.592000", "102939.595000", "102939.598000", "102939.601000", "102939.604000", "102939.607000", "102939.610000", "102939.613000", "102939.616000", "102939.619000", "102939.622000", "102939.625000", "102939.628000", "102939.631000", "102939.634000", "102939.637000", "102939.640000", "102939.642000", "102939.645000", "102939.648000", "102939.651000", "102939.654000", "103019.573000", "103019.576000", "103019.579000", "103019.582000", "103019.585000", "103019.588000", "103019.591000", "103019.594000", "103019.597000", "103019.600000", "103019.603000", "103019.606000", "103019.609000", "103019.612000", "103019.615000", "103019.618000", "103019.621000", "103019.624000", "103019.627000", "103019.630000", "103019.633000", "103019.636000", "103019.639000", "103019.642000", "103019.645000", "103019.648000", "103059.573000", "103059.576000", "103059.579000", "103059.582000", "103059.585000", "103059.588000", "103059.591000", "103059.594000", "103059.597000", "103059.600000", "103059.603000", "103059.606000", "103059.609000", "103059.612000", "103059.615000", "103059.618000", "103059.621000", "103059.624000", "103059.627000", "103059.630000", "103059.633000", "103059.636000", "103059.638000", "103059.641000", "103059.644000", "103059.647000", "103059.650000", "103059.858000"],
