{
  "AcquisitionMatrixPE": 104,
  "AcquisitionNumber": 1,
  "AcquisitionTime": "09:54:51.720000",
  "BandwidthPerPixelPhaseEncode": 17.17,
  "BaseResolution": 104,
  "BodyPartExamined": "BRAIN",
  "CoilString": "HC1-7;NC1_2",
  "ConsistencyInfo": "N4_VE11C_LATEST_20160120",
  "ConversionSoftware": "dcm2niix",
  "ConversionSoftwareVersion": "v1.0.20190902",
  "DerivedVendorReportedEchoSpacing": 0.000560011,
  "DeviceSerialNumber": "167006",
  "DwellTime": 2.1e-06,
  "EchoTime": 0.037,
  "EchoTrainLength": 104,
  "EffectiveEchoSpacing": 0.000560011,
  "FlipAngle": 52,
  "ImageComments": "Unaliased_MB4_PE3_LB",
  "ImageOrientationPatientDICOM": [0.996421, 0.0623454, 0.0570898, -0.0417624, 0.950214, -0.308786],
  "ImageType": [
    "ORIGINAL",
    "PRIMARY",
    "M",
    "MB",
    "ND",
    "MOSAIC"
],
  "ImagingFrequency": 123.259,
  "InPlanePhaseEncodingDirectionDICOM": "COL",
  "InstitutionAddress": "Chemin_Queen-Mary_4565_Montreal_District_CA_H3W_1W5",
  "InstitutionName": "IUGM",
  "InstitutionalDepartmentName": "Department",
  "MRAcquisitionType": "2D",
  "MagneticFieldStrength": 3,
  "Manufacturer": "Siemens",
  "ManufacturersModelName": "Prisma_fit",
  "Modality": "MR",
  "MultibandAccelerationFactor": 4,
  "PartialFourier": 1,
  "PatientPosition": "HFS",
  "PercentPhaseFOV": 100,
  "PhaseEncodingDirection": "j",
  "PhaseEncodingSteps": 104,
  "PhaseResolution": 1,
  "PixelBandwidth": 2290,
  "ProcedureStepDescription": "video_friends",
  "ProtocolName": "func_task-friends-s03e19a",
  "PulseSequenceDetails": "%CustomerSeq%_cmrr_mbep2d_bold",
  "ReceiveCoilActiveElements": "HC1-7;NC1,2",
  "ReceiveCoilName": "HeadNeck_64",
  "ReconMatrixPE": 104,
  "RepetitionTime": 1.49,
  "SAR": 0.0382373,
  "ScanOptions": "FS",
  "ScanningSequence": "EP",
  "SequenceName": "epfid2d1_104",
  "SequenceVariant": "SK_SS",
  "SeriesDescription": "func_task-friends-s03e19a",
  "SeriesNumber": 13,
  "ShimSetting": [646, -7208, -8821, 662, 101, -48, 44, 10],
  "SliceThickness": 2,
  "SliceTiming": [0, 0.785, 0.0975, 0.8825, 0.1975, 0.98, 0.295, 1.0775, 0.3925, 1.175, 0.49, 1.275, 0.5875, 1.3725, 0.685, 0, 0.785, 0.0975, 0.8825, 0.1975, 0.98, 0.295, 1.0775, 0.3925, 1.175, 0.49, 1.275, 0.5875, 1.3725, 0.685, 0, 0.785, 0.0975, 0.8825, 0.1975, 0.98, 0.295, 1.0775, 0.3925, 1.175, 0.49, 1.275, 0.5875, 1.3725, 0.685, 0, 0.785, 0.0975, 0.8825, 0.1975, 0.98, 0.295, 1.0775, 0.3925, 1.175, 0.49, 1.275, 0.5875, 1.3725, 0.685],
  "SoftwareVersions": "syngo_MR_E11",
  "SpacingBetweenSlices": 2,
  "StationName": "MRC35049",
  "TaskName": "s03e19a",
  "TotalReadoutTime": 0.0576811,
  "TxRefAmp": 244.925,
  "WipMemBlock": "480d0d1e-906c-4a48-963f-b8fadaba2ad3||Sequence: R016 ve11c/master r/e634e98; Dec 19 2017 11:00:25 by eja",
  "dcmmeta_affine": [
    [-1.9928410053253174, -0.08352486044168472, 0.1469978392124176, 103.78679656982422],
    [-0.12469076365232468, 1.9004285335540771, -0.6105929017066956, -66.0221939086914],
    [0.1141795963048935, 0.6175719499588013, 1.8988332748413086, -59.929080963134766],
    [0.0, 0.0, 0.0, 1.0]
],
  "dcmmeta_reorient_transform": [
    [0.0, -1.0, 0.0, 103.0],
    [1.0, 0.0, 0.0, 0.0],
    [0.0, 0.0, 1.0, 0.0],
    [0.0, 0.0, 0.0, 1.0]
],
  "dcmmeta_shape": [104, 104, 60, 468],
  "dcmmeta_slice_dim": 2,
  "dcmmeta_version": 0.6,
  "global": {
    "const": {
      "AcquisitionMatrix": [104, 0, 0, 104],
      "AngioFlag": "N",
      "BitsAllocated": 16,
      "BitsStored": 16,
      "BodyPartExamined": "BRAIN",
      "Columns": 832,
      "EchoNumbers": 1,
      "EchoTime": 37.0,
      "EchoTrainLength": 104,
      "FlipAngle": 52.0,
      "HighBit": 15,
      "ImageOrientationPatient": [0.9964204977573, 0.06234538135713, 0.05708979832273, -0.0417624296994, 0.95021425108414, -0.3087859719971],
      "ImagePositionPatient": [-790.17480795423, -866.86535706528, 186.91564536062],
      "ImageType": [
        "ORIGINAL",
        "PRIMARY",
        "M",
        "MB",
        "ND",
        "MOSAIC"
],
      "ImagedNucleus": "1H",
      "ImagingFrequency": 123.259032,
      "InPlanePhaseEncodingDirection": "COL",
      "MRAcquisitionType": "2D",
      "MagneticFieldStrength": 3.0,
      "Manufacturer": "SIEMENS",
      "ManufacturerModelName": "Prisma_fit",
      "Modality": "MR",
      "NumberOfAverages": 1.0,
      "NumberOfPhaseEncodingSteps": 104,
      "PercentPhaseFieldOfView": 100.0,
      "PercentSampling": 100.0,
      "PerformedProcedureStepStartTime": "091622.832000",
      "PhotometricInterpretation": "MONOCHROME2",
      "PixelBandwidth": 2290.0,
      "PixelRepresentation": 0,
      "PixelSpacing": [2.0, 2.0],
      "ProtocolName": "func_task-friends-s03e19a",
      "RepetitionTime": 1490.0,
      "Rows": 832,
      "SAR": 0.03823729966989,
      "SamplesPerPixel": 1,
      "ScanOptions": "FS",
      "ScanningSequence": "EP",
      "SequenceName": "epfid2d1_104",
      "SequenceVariant": [
        "SK",
        "SS"
],
      "SeriesDescription": "func_task-friends-s03e19a",
      "SeriesNumber": 13,
      "SeriesTime": "095619.462000",
      "SliceLocation": -29.11310713282,
      "SliceThickness": 2.0,
      "SmallestImagePixelValue": 0,
      "SoftwareVersions": "syngo MR E11",
      "SpacingBetweenSlices": 1.9999999616006,
      "SpecificCharacterSet": "ISO_IR 100",
      "StudyID": "1",
      "StudyTime": "091622.644000",
      "TransmitCoilName": "Body",
      "VariableFlipAngleFlag": "N",
      "WindowCenterWidthExplanation": "Algo1",
      "dBdt": 0.0},
    "slices": {}
  },
  "time": {
    "samples": {
      "AcquisitionNumber": [1, 2, 3, 4, 5, 6, 7, 8, 9, 10, 11, 12, 13, 14, 15, 16, 17, 18, 19, 20, 21, 22, 23, 24, 25, 26, 27, 28, 29, 30, 31, 32, 33, 34, 35, 36, 37, 38, 39, 40, 41, 42, 43, 44, 45, 46, 47, 48, 49, 50, 51, 52, 53, 54, 55, 56, 57, 58, 59, 60, 61, 62, 63, 64, 65, 66, 67, 68, 69, 70, 71, 72, 73, 74, 75, 76, 77, 78, 79, 80, 81, 82, 83, 84, 85, 86, 87, 88, 89, 90, 91, 92, 93, 94, 95, 96, 97, 98, 99, 100, 101, 102, 103, 104, 105, 106, 107, 108, 109, 110, 111, 112, 113, 114, 115, 116, 117, 118, 119, 120, 121, 122, 123, 124, 125, 126, 127, 128, 129, 130, 131, 132, 133, 134, 135, 136, 137, 138, 139, 140, 141, 142, 143, 144, 145, 146, 147, 148, 149, 150, 151, 152, 153, 154, 155, 156, 157, 158, 159, 160, 161, 162, 163, 164, 165, 166, 167, 168, 169, 170, 171, 172, 173, 174, 175, 176, 177, 178, 179, 180, 181, 182, 183, 184, 185, 186, 187, 188, 189, 190, 191, 192, 193, 194, 195, 196, 197, 198, 199, 200, 201, 202, 203, 204, 205, 206, 207, 208, 209, 210, 211, 212, 213, 214, 215, 216, 217, 218, 219, 220, 221, 222, 223, 224, 225, 226, 227, 228, 229, 230, 231, 232, 233, 234, 235, 236, 237, 238, 239, 240, 241, 242, 243, 244, 245, 246, 247, 248, 249, 250, 251, 252, 253, 254, 255, 256, 257, 258, 259, 260, 261, 262, 263, 264, 265, 266, 267, 268, 269, 270, 271, 272, 273, 274, 275, 276, 277, 278, 279, 280, 281, 282, 283, 284, 285, 286, 287, 288, 289, 290, 291, 292, 293, 294, 295, 296, 297, 298, 299, 300, 301, 302, 303, 304, 305, 306, 307, 308, 309, 310, 311, 312, 313, 314, 315, 316, 317, 318, 319, 320, 321, 322, 323, 324, 325, 326, 327, 328, 329, 330, 331, 332, 333, 334, 335, 336, 337, 338, 339, 340, 341, 342, 343, 344, 345, 346, 347, 348, 349, 350, 351, 352, 353, 354, 355, 356, 357, 358, 359, 360, 361, 362, 363, 364, 365, 366, 367, 368, 369, 370, 371, 372, 373, 374, 375, 376, 377, 378, 379, 380, 381, 382, 383, 384, 385, 386, 387, 388, 389, 390, 391, 392, 393, 394, 395, 396, 397, 398, 399, 400, 401, 402, 403, 404, 405, 406, 407, 408, 409, 410, 411, 412, 413, 414, 415, 416, 417, 418, 419, 420, 421, 422, 423, 424, 425, 426, 427, 428, 429, 430, 431, 432, 433, 434, 435, 436, 437, 438, 439, 440, 441, 442, 443, 444, 445, 446, 447, 448, 449, 450, 451, 452, 453, 454, 455, 456, 457, 458, 459, 460, 461, 462, 463, 464, 465, 466, 467, 468],
      "AcquisitionTime": ["095451.720000", "095453.210000", "095454.700000", "095456.190000", "095457.680000", "095459.170000", "095500.660000", "095502.150000", "095503.640000", "095505.130000", "095506.620000", "095508.110000", "095509.600000", "095511.090000", "095512.580000", "095514.070000", "095515.560000", "095517.050000", "095518.540000", "095520.030000", "095521.520000", "095523.010000", "095524.500000", "095525.990000", "095527.480000", "095528.970000", "095530.460000", "095531.950000", "095533.440000", "095534.930000", "095536.420000", "095537.910000", "095539.400000", "095540.890000", "095542.380000", "095543.870000", "095545.360000", "095546.850000", "095548.340000", "095549.830000", "095551.320000", "095552.810000", "095554.300000", "095555.790000", "095557.280000", "095558.770000", "095600.260000", "095601.750000", "095603.240000", "095604.730000", "095606.220000", "095607.710000", "095609.200000", "095610.690000", "095612.180000", "095613.670000", "095615.160000", "095616.650000", "095618.140000", "095619.630000", "095621.120000", "095622.610000", "095624.100000", "095625.590000", "095627.080000", "095628.570000", "095630.060000", "095631.550000", "095633.040000", "095634.530000", "095636.020000", "095637.510000", "095639.000000", "095640.490000", "095641.980000", "095643.470000", "095644.960000", "095646.450000", "095647.940000", "095649.430000", "095650.920000", "095652.410000", "095653.900000", "095655.390000", "095656.880000", "095658.370000", "095659.860000", "095701.350000", "095702.840000", "095704.330000", "095705.820000", "095707.310000", "095708.800000", "095710.290000", "095711.780000", "095713.270000", "095714.760000", "095716.250000", "095717.740000", "095719.230000", "095720.720000", "095722.210000", "095723.700000", "095725.190000", "095726.680000", "095728.170000", "095729.660000", "095731.150000", "095732.640000", "095734.130000", "095735.620000", "095737.110000", "095738.600000", "095740.090000", "095741.580000", "095743.070000", "095744.560000", "095746.050000", "095747.540000", "095749.030000", "095750.520000", "095752.010000", "095753.500000", "095754.990000", "095756.480000", "095757.970000", "095759.460000", "095800.950000", "095802.440000", "095803.930000", "095805.420000", "095806.910000", "095808.400000", "095809.890000", "095811.380000", "095812.870000", "095814.360000", "095815.850000", "095817.340000", "095818.830000", "095820.320000", "095821.810000", "095823.300000", "095824.790000", "095826.280000", "095827.770000", "095829.260000", "095830.750000", "095832.240000", "095833.730000", "095835.220000", "095836.710000", "095838.200000", "095839.690000", "095841.180000", "095842.670000", "095844.160000", "095845.650000", "095847.140000", "095848.630000", "095850.120000", "095851.610000", "095853.100000", "095854.590000", "095856.080000", "095857.570000", "095859.060000", "095900.550000", "095902.040000", "095903.530000", "095905.020000", "095906.510000", "095908.000000", "095909.490000", "095910.980000", "095912.470000", "095913.960000", "095915.450000", "095916.940000", "095918.430000", "095919.920000", "095921.410000", "095922.900000", "095924.390000", "095925.880000", "095927.370000", "095928.860000", "095930.350000", "095931.840000", "095933.330000", "095934.820000", "095936.310000", "095937.800000", "095939.290000", "095940.780000", "095942.270000", "095943.760000", "095945.250000", "095946.740000", "095948.230000", "095949.720000", "095951.210000", "095952.700000", "095954.190000", "095955.680000", "095957.170000", "095958.660000", "100000.150000", "100001.640000", "100003.130000", "100004.620000", "100006.110000", "100007.600000", "100009.090000", "100010.580000", "100012.070000", "100013.560000", "100015.050000", "100016.540000", "100018.030000", "100019.520000", "100021.010000", "100022.500000", "100023.990000", "100025.480000", "100026.970000", "100028.460000", "100029.950000", "100031.440000", "100032.930000", "100034.420000", "100035.910000", "100037.400000", "100038.890000", "100040.380000", "100041.870000", "100043.360000", "100044.850000", "100046.340000", "100047.830000", "100049.320000", "100050.810000", "100052.300000", "100053.790000", "100055.280000", "100056.770000", "100058.260000", "100059.750000", "100101.240000", "100102.730000", "100104.220000", "100105.710000", "100107.200000", "100108.690000", "100110.180000", "100111.670000", "100113.160000", "100114.650000", "100116.140000", "100117.630000", "100119.120000", "100120.610000", "100122.100000", "100123.590000", "100125.080000", "100126.570000", "100128.060000", "100129.550000", "100131.040000", "100132.530000", "100134.020000", "100135.510000", "100137.000000", "100138.490000", "100139.980000", "100141.470000", "100142.960000", "100144.450000", "100145.940000", "100147.430000", "100148.920000", "100150.410000", "100151.900000", "100153.390000", "100154.880000", "100156.370000", "100157.860000", "100159.350000", "100200.840000", "100202.330000", "100203.820000", "100205.310000", "100206.800000", "100208.290000", "100209.780000", "100211.270000", "100212.760000", "100214.250000", "100215.740000", "100217.230000", "100218.720000", "100220.210000", "100221.700000", "100223.190000", "100224.680000", "100226.170000", "100227.660000", "100229.150000", "100230.640000", "100232.130000", "100233.620000", "100235.110000", "100236.600000", "100238.090000", "100239.580000", "100241.070000", "100242.560000", "100244.050000", "100245.540000", "100247.030000", "100248.520000", "100250.010000", "100251.500000", "100252.990000", "100254.480000", "100255.970000", "100257.460000", "100258.950000", "100300.440000", "100301.930000", "100303.420000", "100304.910000", "100306.400000", "100307.890000", "100309.380000", "100310.870000", "100312.360000", "100313.850000", "100315.340000", "100316.830000", "100318.320000", "100319.810000", "100321.300000", "100322.790000", "100324.280000", "100325.770000", "100327.260000", "100328.750000", "100330.240000", "100331.730000", "100333.220000", "100334.710000", "100336.200000", "100337.690000", "100339.180000", "100340.670000", "100342.160000", "100343.650000", "100345.140000", "100346.630000", "100348.120000", "100349.610000", "100351.100000", "100352.590000", "100354.080000", "100355.570000", "100357.060000", "100358.550000", "100400.040000", "100401.530000", "100403.020000", "100404.510000", "100406.000000", "100407.490000", "100408.980000", "100410.470000", "100411.960000", "100413.450000", "100414.940000", "100416.430000", "100417.920000", "100419.410000", "100420.900000", "100422.390000", "100423.880000", "100425.370000", "100426.860000", "100428.350000", "100429.840000", "100431.330000", "100432.820000", "100434.310000", "100435.800000", "100437.290000", "100438.780000", "100440.270000", "100441.760000", "100443.250000", "100444.740000", "100446.230000", "100447.720000", "100449.210000", "100450.700000", "100452.190000", "100453.680000", "100455.170000", "100456.660000", "100458.150000", "100459.640000", "100501.130000", "100502.620000", "100504.110000", "100505.600000", "100507.090000", "100508.580000", "100510.070000", "100511.560000", "100513.050000", "100514.540000", "100516.030000", "100517.520000", "100519.010000", "100520.500000", "100521.990000", "100523.480000", "100524.970000", "100526.460000", "100527.950000", "100529.440000", "100530.930000", "100532.420000", "100533.910000", "100535.400000", "100536.890000", "100538.380000", "100539.870000", "100541.360000", "100542.850000", "100544.340000", "100545.830000", "100547.320000", "100548.810000", "100550.300000", "100551.790000", "100553.280000", "100554.770000", "100556.260000", "100557.750000", "100559.240000", "100600.730000", "100602.220000", "100603.710000", "100605.200000", "100606.690000", "100608.180000", "100609.670000", "100611.160000", "100612.650000", "100614.140000", "100615.630000", "100617.120000", "100618.610000", "100620.100000", "100621.590000", "100623.080000", "100624.570000", "100626.060000", "100627.550000"],
      "ContentTime": ["095619.464000", "095619.468000", "095619.470000", "095619.473000", "095619.476000", "095619.479000", "095619.482000", "095619.485000", "095619.488000", "095619.491000", "095619.494000", "095619.504000", "095619.506000", "095619.509000", "095619.512000", "095619.515000", "095619.518000", "095619.521000", "095619.533000", "095619.536000", "095619.539000", "095619.541000", "095619.545000", "095619.547000", "095619.550000", "095619.553000", "095619.556000", "095619.559000", "095619.562000", "095619.565000", "095619.576000", "095619.585000", "095619.588000", "095619.591000", "095619.594000", "095619.596000", "095639.434000", "095639.437000", "095639.440000", "095639.443000", "095639.446000", "095639.449000", "095639.451000", "095639.454000", "095639.457000", "095639.460000", "095639.463000", "095639.466000", "095639.469000", "095639.478000", "095639.481000", "095639.484000", "095639.487000", "095639.490000", "095639.493000", "095639.496000", "095659.434000", "095659.437000", "095659.440000", "095659.443000", "095659.445000", "095659.448000", "095659.451000", "095659.454000", "095659.457000", "095659.460000", "095659.463000", "095659.466000", "095659.469000", "095659.471000", "095659.474000", "095659.477000", "095659.480000", "095659.483000", "095659.486000", "095659.489000", "095719.433000", "095719.436000", "095719.439000", "095719.442000", "095719.445000", "095719.467000", "095719.469000", "095719.472000", "095719.475000", "095719.478000", "095719.481000", "095719.484000", "095719.487000", "095719.490000", "095719.492000", "095719.495000", "095719.498000", "095719.501000", "095719.504000", "095719.507000", "095759.434000", "095759.437000", "095759.440000", "095759.443000", "095759.446000", "095759.448000", "095759.451000", "095759.454000", "095759.457000", "095759.460000", "095759.474000", "095759.477000", "095759.480000", "095759.483000", "095759.486000", "095759.489000", "095759.492000", "095759.494000", "095759.497000", "095759.500000", "095759.503000", "095759.506000", "095759.509000", "095759.512000", "095759.515000", "095759.517000", "095759.520000", "095759.523000", "095759.526000", "095839.434000", "095839.437000", "095839.440000", "095839.443000", "095839.446000", "095839.449000", "095839.451000", "095839.454000", "095839.457000", "095839.460000", "095839.463000", "095839.466000", "095839.469000", "095839.472000", "095839.475000", "095839.478000", "095839.480000", "095839.483000", "095839.486000", "095839.489000", "095839.492000", "095839.495000", "095839.498000", "095839.501000", "095839.504000", "095839.507000", "095839.509000", "095859.434000", "095859.437000", "095859.440000", "095859.443000", "095859.446000", "095859.449000", "095859.451000", "095859.454000", "095859.457000", "095859.460000", "095859.463000", "095859.466000", "095859.469000", "095859.472000", "095939.433000", "095939.436000", "095939.439000", "095939.442000", "095939.445000", "095939.448000", "095939.451000", "095939.454000", "095939.457000", "095939.459000", "095939.462000", "095939.465000", "095939.468000", "095939.471000", "095939.474000", "095939.477000", "095939.480000", "095939.483000", "095939.486000", "095939.493000", "095939.496000", "095939.500000", "095939.503000", "095939.506000", "095939.509000", "095939.512000", "100019.434000", "100019.437000", "100019.440000", "100019.443000", "100019.446000", "100019.449000", "100019.452000", "100019.454000", "100019.457000", "100019.460000", "100019.463000", "100019.466000", "100019.469000", "100019.472000", "100019.475000", "100019.478000", "100019.480000", "100019.483000", "100019.486000", "100019.489000", "100019.492000", "100019.495000", "100019.498000", "100019.501000", "100019.504000", "100019.507000", "100019.510000", "100059.434000", "100059.437000", "100059.440000", "100059.443000", "100059.446000", "100059.449000", "100059.452000", "100059.454000", "100059.457000", "100059.460000", "100059.463000", "100059.466000", "100059.469000", "100059.472000", "100059.475000", "100059.478000", "100059.481000", "100059.483000", "100059.486000", "100059.489000", "100059.492000", "100059.495000", "100059.498000", "100059.501000", "100059.504000", "100059.507000", "100059.510000", "100139.434000", "100139.437000", "100139.440000", "100139.443000", "100139.446000", "100139.449000", "100139.451000", "100139.454000", "100139.457000", "100139.460000", "100139.463000", "100139.466000", "100139.469000", "100139.472000", "100139.475000", "100139.478000", "100139.480000", "100139.483000", "100139.486000", "100139.489000", "100139.492000", "100139.495000", "100139.498000", "100139.501000", "100139.504000", "100139.506000", "100139.509000", "100219.434000", "100219.437000", "100219.440000", "100219.443000", "100219.446000", "100219.449000", "100219.452000", "100219.454000", "100219.457000", "100219.460000", "100219.463000", "100219.466000", "100219.469000", "100219.472000", "100219.475000", "100219.478000", "100219.481000", "100219.483000", "100219.486000", "100219.489000", "100219.492000", "100219.505000", "100219.508000", "100219.511000", "100219.514000", "100219.517000", "100219.520000", "100259.434000", "100259.437000", "100259.440000", "100259.443000", "100259.446000", "100259.449000", "100259.452000", "100259.454000", "100259.457000", "100259.460000", "100259.463000", "100259.466000", "100259.469000", "100259.472000", "100259.475000", "100259.478000", "100259.481000", "100259.483000", "100259.486000", "100259.489000", "100259.492000", "100259.495000", "100259.498000", "100259.501000", "100259.504000", "100259.507000", "100259.510000", "100339.434000", "100339.437000", "100339.440000", "100339.443000", "100339.446000", "100339.449000", "100339.451000", "100339.454000", "100339.457000", "100339.460000", "100339.463000", "100339.466000", "100339.469000", "100339.472000", "100339.475000", "100339.478000", "100339.480000", "100339.483000", "100339.486000", "100339.489000", "100339.492000", "100339.495000", "100339.498000", "100339.501000", "100339.504000", "100339.507000", "100339.510000", "100419.433000", "100419.436000", "100419.439000", "100419.442000", "100419.445000", "100419.448000", "100419.451000", "100419.454000", "100419.457000", "100419.459000", "100419.462000", "100419.465000", "100419.468000", "100419.471000", "100419.474000", "100419.477000", "100419.480000", "100419.483000", "100419.485000", "100419.488000", "100419.491000", "100419.494000", "100419.498000", "100419.501000", "100419.504000", "100419.507000", "100459.434000", "100459.437000", "100459.440000", "100459.443000", "100459.446000", "100459.449000", "100459.452000", "100459.454000", "100459.457000", "100459.460000", "100459.463000", "100459.466000", "100459.469000", "100459.472000", "100459.475000", "100459.478000", "100459.481000", "100459.484000", "100459.487000", "100459.490000", "100459.492000", "100459.495000", "100459.498000", "100459.501000", "100459.504000", "100459.507000", "100459.510000", "100539.434000", "100539.437000", "100539.440000", "100539.443000", "100539.446000", "100539.449000", "100539.452000", "100539.454000", "100539.457000", "100539.460000", "100539.463000", "100539.466000", "100539.469000", "100539.472000", "100539.475000", "100539.478000", "100539.481000", "100539.483000", "100539.486000", "100539.489000", "100539.492000", "100539.495000", "100539.498000", "100539.501000", "100539.504000", "100539.507000", "100539.510000", "100619.434000", "100619.437000", "100619.440000", "100619.443000", "100619.446000", "100619.449000", "100619.451000", "100619.454000", "100619.457000", "100619.460000", "100619.463000", "100619.466000", "100619.469000", "100619.472000", "100619.475000", "100619.478000", "100619.480000", "100619.483000", "100619.486000", "100619.489000", "100619.492000", "100619.495000", "100619.498000", "100619.501000", "100619.504000", "100619.507000", "100619.509000", "100629.303000", "100629.306000", "100629.309000", "100629.312000", "100629.315000", "100629.318000", "100629.321000"],
