{
  "AcquisitionMatrixPE": 104,
  "AcquisitionNumber": 1,
  "AcquisitionTime": "10:06:54.335000",
  "BandwidthPerPixelPhaseEncode": 17.17,
  "BaseResolution": 104,
  "BodyPartExamined": "BRAIN",
  "CoilString": "HC1-7;NC1_2",
  "ConsistencyInfo": "N4_VE11C_LATEST_20160120",
  "ConversionSoftware": "dcm2niix",
  "ConversionSoftwareVersion": "v1.0.20190902",
  "DerivedVendorReportedEchoSpacing": 0.000560011,
  "DeviceSerialNumber": "167006",
  "DwellTime": 2.1e-06,
  "EchoTime": 0.037,
  "EchoTrainLength": 104,
  "EffectiveEchoSpacing": 0.000560011,
  "FlipAngle": 52,
  "ImageComments": "Unaliased_MB4_PE3_LB",
  "ImageOrientationPatientDICOM": [0.996421, 0.0623454, 0.0570898, -0.0417624, 0.950214, -0.308786],
  "ImageType": [
    "ORIGINAL",
    "PRIMARY",
    "M",
    "MB",
    "ND",
    "MOSAIC"
],
  "ImagingFrequency": 123.259,
  "InPlanePhaseEncodingDirectionDICOM": "COL",
  "InstitutionAddress": "Chemin_Queen-Mary_4565_Montreal_District_CA_H3W_1W5",
  "InstitutionName": "IUGM",
  "InstitutionalDepartmentName": "Department",
  "MRAcquisitionType": "2D",
  "MagneticFieldStrength": 3,
  "Manufacturer": "Siemens",
  "ManufacturersModelName": "Prisma_fit",
  "Modality": "MR",
  "MultibandAccelerationFactor": 4,
  "PartialFourier": 1,
  "PatientPosition": "HFS",
  "PercentPhaseFOV": 100,
  "PhaseEncodingDirection": "j",
  "PhaseEncodingSteps": 104,
  "PhaseResolution": 1,
  "PixelBandwidth": 2290,
  "ProcedureStepDescription": "video_friends",
  "ProtocolName": "func_task-friends-s03e19b",
  "PulseSequenceDetails": "%CustomerSeq%_cmrr_mbep2d_bold",
  "ReceiveCoilActiveElements": "HC1-7;NC1,2",
  "ReceiveCoilName": "HeadNeck_64",
  "ReconMatrixPE": 104,
  "RepetitionTime": 1.49,
  "SAR": 0.0382373,
  "ScanOptions": "FS",
  "ScanningSequence": "EP",
  "SequenceName": "epfid2d1_104",
  "SequenceVariant": "SK_SS",
  "SeriesDescription": "func_task-friends-s03e19b",
  "SeriesNumber": 15,
  "ShimSetting": [646, -7208, -8821, 662, 101, -48, 44, 10],
  "SliceThickness": 2,
  "SliceTiming": [0, 0.785, 0.0975, 0.8825, 0.195, 0.98, 0.295, 1.0775, 0.3925, 1.175, 0.49, 1.275, 0.5875, 1.3725, 0.685, 0, 0.785, 0.0975, 0.8825, 0.195, 0.98, 0.295, 1.0775, 0.3925, 1.175, 0.49, 1.275, 0.5875, 1.3725, 0.685, 0, 0.785, 0.0975, 0.8825, 0.195, 0.98, 0.295, 1.0775, 0.3925, 1.175, 0.49, 1.275, 0.5875, 1.3725, 0.685, 0, 0.785, 0.0975, 0.8825, 0.195, 0.98, 0.295, 1.0775, 0.3925, 1.175, 0.49, 1.275, 0.5875, 1.3725, 0.685],
  "SoftwareVersions": "syngo_MR_E11",
  "SpacingBetweenSlices": 2,
  "StationName": "MRC35049",
  "TaskName": "s03e19b",
  "TotalReadoutTime": 0.0576811,
  "TxRefAmp": 244.925,
  "WipMemBlock": "6380d07a-80bd-44ad-b11c-12b6e15af15c||Sequence: R016 ve11c/master r/e634e98; Dec 19 2017 11:00:25 by eja",
  "dcmmeta_affine": [
    [-1.9928410053253174, -0.08352486044168472, 0.1469978392124176, 103.78679656982422],
    [-0.12469076365232468, 1.9004285335540771, -0.6105929017066956, -66.0221939086914],
    [0.1141795963048935, 0.6175719499588013, 1.8988332748413086, -59.929080963134766],
    [0.0, 0.0, 0.0, 1.0]
],
  "dcmmeta_reorient_transform": [
    [0.0, -1.0, 0.0, 103.0],
    [1.0, 0.0, 0.0, 0.0],
    [0.0, 0.0, 1.0, 0.0],
    [0.0, 0.0, 0.0, 1.0]
],
  "dcmmeta_shape": [104, 104, 60, 468],
  "dcmmeta_slice_dim": 2,
  "dcmmeta_version": 0.6,
  "global": {
    "const": {
      "AcquisitionMatrix": [104, 0, 0, 104],
      "AngioFlag": "N",
      "BitsAllocated": 16,
      "BitsStored": 16,
      "BodyPartExamined": "BRAIN",
      "Columns": 832,
      "EchoNumbers": 1,
      "EchoTime": 37.0,
      "EchoTrainLength": 104,
      "FlipAngle": 52.0,
      "HighBit": 15,
      "ImageOrientationPatient": [0.9964204977573, 0.06234538135713, 0.05708979832273, -0.0417624296994, 0.95021425108414, -0.3087859719971],
      "ImagePositionPatient": [-790.17480795423, -866.86535706528, 186.91564536062],
      "ImageType": [
        "ORIGINAL",
        "PRIMARY",
        "M",
        "MB",
        "ND",
        "MOSAIC"
],
      "ImagedNucleus": "1H",
      "ImagingFrequency": 123.259036,
      "InPlanePhaseEncodingDirection": "COL",
      "MRAcquisitionType": "2D",
      "MagneticFieldStrength": 3.0,
      "Manufacturer": "SIEMENS",
      "ManufacturerModelName": "Prisma_fit",
      "Modality": "MR",
      "NumberOfAverages": 1.0,
      "NumberOfPhaseEncodingSteps": 104,
      "PercentPhaseFieldOfView": 100.0,
      "PercentSampling": 100.0,
      "PerformedProcedureStepStartTime": "091622.832000",
      "PhotometricInterpretation": "MONOCHROME2",
      "PixelBandwidth": 2290.0,
      "PixelRepresentation": 0,
      "PixelSpacing": [2.0, 2.0],
      "ProtocolName": "func_task-friends-s03e19b",
      "RepetitionTime": 1490.0,
      "Rows": 832,
      "SAR": 0.03823729966989,
      "SamplesPerPixel": 1,
      "ScanOptions": "FS",
      "ScanningSequence": "EP",
      "SequenceName": "epfid2d1_104",
      "SequenceVariant": [
        "SK",
        "SS"
],
      "SeriesDescription": "func_task-friends-s03e19b",
      "SeriesNumber": 15,
      "SeriesTime": "100820.092000",
      "SliceLocation": -29.11310713282,
      "SliceThickness": 2.0,
      "SmallestImagePixelValue": 0,
      "SoftwareVersions": "syngo MR E11",
      "SpacingBetweenSlices": 1.9999999616006,
      "SpecificCharacterSet": "ISO_IR 100",
      "StudyID": "1",
      "StudyTime": "091622.644000",
      "TransmitCoilName": "Body",
      "VariableFlipAngleFlag": "N",
      "WindowCenterWidthExplanation": "Algo1",
      "dBdt": 0.0},
    "slices": {}
  },
  "time": {
    "samples": {
      "AcquisitionNumber": [1, 2, 3, 4, 5, 6, 7, 8, 9, 10, 11, 12, 13, 14, 15, 16, 17, 18, 19, 20, 21, 22, 23, 24, 25, 26, 27, 28, 29, 30, 31, 32, 33, 34, 35, 36, 37, 38, 39, 40, 41, 42, 43, 44, 45, 46, 47, 48, 49, 50, 51, 52, 53, 54, 55, 56, 57, 58, 59, 60, 61, 62, 63, 64, 65, 66, 67, 68, 69, 70, 71, 72, 73, 74, 75, 76, 77, 78, 79, 80, 81, 82, 83, 84, 85, 86, 87, 88, 89, 90, 91, 92, 93, 94, 95, 96, 97, 98, 99, 100, 101, 102, 103, 104, 105, 106, 107, 108, 109, 110, 111, 112, 113, 114, 115, 116, 117, 118, 119, 120, 121, 122, 123, 124, 125, 126, 127, 128, 129, 130, 131, 132, 133, 134, 135, 136, 137, 138, 139, 140, 141, 142, 143, 144, 145, 146, 147, 148, 149, 150, 151, 152, 153, 154, 155, 156, 157, 158, 159, 160, 161, 162, 163, 164, 165, 166, 167, 168, 169, 170, 171, 172, 173, 174, 175, 176, 177, 178, 179, 180, 181, 182, 183, 184, 185, 186, 187, 188, 189, 190, 191, 192, 193, 194, 195, 196, 197, 198, 199, 200, 201, 202, 203, 204, 205, 206, 207, 208, 209, 210, 211, 212, 213, 214, 215, 216, 217, 218, 219, 220, 221, 222, 223, 224, 225, 226, 227, 228, 229, 230, 231, 232, 233, 234, 235, 236, 237, 238, 239, 240, 241, 242, 243, 244, 245, 246, 247, 248, 249, 250, 251, 252, 253, 254, 255, 256, 257, 258, 259, 260, 261, 262, 263, 264, 265, 266, 267, 268, 269, 270, 271, 272, 273, 274, 275, 276, 277, 278, 279, 280, 281, 282, 283, 284, 285, 286, 287, 288, 289, 290, 291, 292, 293, 294, 295, 296, 297, 298, 299, 300, 301, 302, 303, 304, 305, 306, 307, 308, 309, 310, 311, 312, 313, 314, 315, 316, 317, 318, 319, 320, 321, 322, 323, 324, 325, 326, 327, 328, 329, 330, 331, 332, 333, 334, 335, 336, 337, 338, 339, 340, 341, 342, 343, 344, 345, 346, 347, 348, 349, 350, 351, 352, 353, 354, 355, 356, 357, 358, 359, 360, 361, 362, 363, 364, 365, 366, 367, 368, 369, 370, 371, 372, 373, 374, 375, 376, 377, 378, 379, 380, 381, 382, 383, 384, 385, 386, 387, 388, 389, 390, 391, 392, 393, 394, 395, 396, 397, 398, 399, 400, 401, 402, 403, 404, 405, 406, 407, 408, 409, 410, 411, 412, 413, 414, 415, 416, 417, 418, 419, 420, 421, 422, 423, 424, 425, 426, 427, 428, 429, 430, 431, 432, 433, 434, 435, 436, 437, 438, 439, 440, 441, 442, 443, 444, 445, 446, 447, 448, 449, 450, 451, 452, 453, 454, 455, 456, 457, 458, 459, 460, 461, 462, 463, 464, 465, 466, 467, 468],
      "AcquisitionTime": ["100654.335000", "100655.825000", "100657.315000", "100658.805000", "100700.295000", "100701.785000", "100703.275000", "100704.765000", "100706.255000", "100707.745000", "100709.235000", "100710.725000", "100712.215000", "100713.705000", "100715.195000", "100716.685000", "100718.175000", "100719.665000", "100721.155000", "100722.645000", "100724.135000", "100725.625000", "100727.115000", "100728.605000", "100730.095000", "100731.585000", "100733.075000", "100734.565000", "100736.055000", "100737.545000", "100739.035000", "100740.525000", "100742.015000", "100743.505000", "100744.995000", "100746.485000", "100747.975000", "100749.465000", "100750.955000", "100752.445000", "100753.935000", "100755.425000", "100756.915000", "100758.405000", "100759.895000", "100801.385000", "100802.875000", "100804.365000", "100805.855000", "100807.345000", "100808.835000", "100810.325000", "100811.815000", "100813.305000", "100814.795000", "100816.285000", "100817.775000", "100819.265000", "100820.755000", "100822.245000", "100823.735000", "100825.225000", "100826.715000", "100828.205000", "100829.695000", "100831.185000", "100832.675000", "100834.165000", "100835.655000", "100837.145000", "100838.635000", "100840.125000", "100841.615000", "100843.105000", "100844.595000", "100846.085000", "100847.575000", "100849.065000", "100850.555000", "100852.045000", "100853.535000", "100855.025000", "100856.515000", "100858.005000", "100859.495000", "100900.985000", "100902.475000", "100903.965000", "100905.455000", "100906.945000", "100908.435000", "100909.925000", "100911.415000", "100912.905000", "100914.395000", "100915.885000", "100917.375000", "100918.865000", "100920.355000", "100921.845000", "100923.335000", "100924.825000", "100926.315000", "100927.805000", "100929.295000", "100930.785000", "100932.275000", "100933.765000", "100935.255000", "100936.745000", "100938.235000", "100939.725000", "100941.215000", "100942.705000", "100944.195000", "100945.685000", "100947.175000", "100948.665000", "100950.155000", "100951.645000", "100953.135000", "100954.625000", "100956.115000", "100957.605000", "100959.095000", "101000.585000", "101002.075000", "101003.565000", "101005.055000", "101006.545000", "101008.035000", "101009.525000", "101011.015000", "101012.505000", "101013.995000", "101015.485000", "101016.975000", "101018.465000", "101019.955000", "101021.445000", "101022.935000", "101024.425000", "101025.915000", "101027.405000", "101028.895000", "101030.385000", "101031.875000", "101033.365000", "101034.855000", "101036.345000", "101037.835000", "101039.325000", "101040.815000", "101042.305000", "101043.795000", "101045.285000", "101046.775000", "101048.265000", "101049.755000", "101051.245000", "101052.735000", "101054.225000", "101055.715000", "101057.205000", "101058.695000", "101100.185000", "101101.675000", "101103.165000", "101104.655000", "101106.145000", "101107.635000", "101109.125000", "101110.615000", "101112.105000", "101113.595000", "101115.085000", "101116.575000", "101118.065000", "101119.555000", "101121.045000", "101122.535000", "101124.025000", "101125.515000", "101127.005000", "101128.495000", "101129.985000", "101131.475000", "101132.965000", "101134.455000", "101135.945000", "101137.435000", "101138.925000", "101140.415000", "101141.905000", "101143.395000", "101144.885000", "101146.375000", "101147.865000", "101149.355000", "101150.845000", "101152.335000", "101153.825000", "101155.315000", "101156.805000", "101158.295000", "101159.785000", "101201.275000", "101202.765000", "101204.255000", "101205.745000", "101207.235000", "101208.725000", "101210.215000", "101211.705000", "101213.195000", "101214.685000", "101216.175000", "101217.665000", "101219.155000", "101220.645000", "101222.135000", "101223.625000", "101225.115000", "101226.605000", "101228.095000", "101229.585000", "101231.075000", "101232.565000", "101234.055000", "101235.545000", "101237.035000", "101238.525000", "101240.015000", "101241.505000", "101242.995000", "101244.485000", "101245.975000", "101247.465000", "101248.955000", "101250.445000", "101251.935000", "101253.425000", "101254.915000", "101256.405000", "101257.895000", "101259.385000", "101300.875000", "101302.365000", "101303.855000", "101305.345000", "101306.835000", "101308.325000", "101309.815000", "101311.305000", "101312.795000", "101314.285000", "101315.775000", "101317.265000", "101318.755000", "101320.245000", "101321.735000", "101323.225000", "101324.715000", "101326.205000", "101327.695000", "101329.185000", "101330.675000", "101332.165000", "101333.655000", "101335.145000", "101336.635000", "101338.125000", "101339.615000", "101341.105000", "101342.595000", "101344.085000", "101345.575000", "101347.065000", "101348.555000", "101350.045000", "101351.535000", "101353.025000", "101354.515000", "101356.005000", "101357.495000", "101358.985000", "101400.475000", "101401.965000", "101403.455000", "101404.945000", "101406.435000", "101407.925000", "101409.415000", "101410.905000", "101412.395000", "101413.885000", "101415.375000", "101416.865000", "101418.355000", "101419.845000", "101421.335000", "101422.825000", "101424.315000", "101425.805000", "101427.295000", "101428.785000", "101430.275000", "101431.765000", "101433.255000", "101434.745000", "101436.235000", "101437.725000", "101439.215000", "101440.705000", "101442.195000", "101443.685000", "101445.175000", "101446.665000", "101448.155000", "101449.645000", "101451.135000", "101452.625000", "101454.115000", "101455.605000", "101457.095000", "101458.585000", "101500.075000", "101501.565000", "101503.055000", "101504.545000", "101506.035000", "101507.525000", "101509.015000", "101510.505000", "101511.995000", "101513.485000", "101514.975000", "101516.465000", "101517.955000", "101519.445000", "101520.935000", "101522.425000", "101523.915000", "101525.405000", "101526.895000", "101528.385000", "101529.875000", "101531.365000", "101532.855000", "101534.345000", "101535.835000", "101537.325000", "101538.815000", "101540.305000", "101541.795000", "101543.285000", "101544.775000", "101546.265000", "101547.755000", "101549.245000", "101550.735000", "101552.225000", "101553.715000", "101555.205000", "101556.695000", "101558.185000", "101559.675000", "101601.165000", "101602.655000", "101604.145000", "101605.635000", "101607.125000", "101608.615000", "101610.105000", "101611.595000", "101613.085000", "101614.575000", "101616.065000", "101617.555000", "101619.045000", "101620.535000", "101622.025000", "101623.515000", "101625.005000", "101626.495000", "101627.985000", "101629.475000", "101630.965000", "101632.455000", "101633.945000", "101635.435000", "101636.925000", "101638.415000", "101639.905000", "101641.395000", "101642.885000", "101644.375000", "101645.865000", "101647.355000", "101648.845000", "101650.335000", "101651.825000", "101653.315000", "101654.805000", "101656.295000", "101657.785000", "101659.275000", "101700.765000", "101702.255000", "101703.745000", "101705.235000", "101706.725000", "101708.215000", "101709.705000", "101711.195000", "101712.685000", "101714.175000", "101715.665000", "101717.155000", "101718.645000", "101720.135000", "101721.625000", "101723.115000", "101724.605000", "101726.095000", "101727.585000", "101729.075000", "101730.565000", "101732.055000", "101733.545000", "101735.035000", "101736.525000", "101738.015000", "101739.505000", "101740.995000", "101742.485000", "101743.975000", "101745.465000", "101746.955000", "101748.445000", "101749.935000", "101751.425000", "101752.915000", "101754.405000", "101755.895000", "101757.385000", "101758.875000", "101800.365000", "101801.855000", "101803.345000", "101804.835000", "101806.325000", "101807.815000", "101809.305000", "101810.795000", "101812.285000", "101813.775000", "101815.265000", "101816.755000", "101818.245000", "101819.735000", "101821.225000", "101822.715000", "101824.205000", "101825.695000", "101827.185000", "101828.675000", "101830.165000"],
      "ContentTime": ["100820.095000", "100820.098000", "100820.101000", "100820.104000", "100820.107000", "100820.110000", "100820.117000", "100820.120000", "100820.128000", "100820.131000", "100820.134000", "100820.137000", "100820.154000", "100820.157000", "100820.160000", "100820.163000", "100820.166000", "100820.169000", "100820.172000", "100820.175000", "100820.178000", "100820.180000", "100820.183000", "100820.186000", "100820.189000", "100820.192000", "100820.195000", "100820.198000", "100820.201000", "100820.204000", "100820.207000", "100820.209000", "100820.212000", "100840.070000", "100840.073000", "100840.076000", "100840.079000", "100840.082000", "100840.085000", "100840.088000", "100840.091000", "100840.094000", "100840.097000", "100840.100000", "100840.102000", "100840.105000", "100840.108000", "100840.111000", "100840.114000", "100840.117000", "100840.120000", "100840.123000", "100840.126000", "100900.070000", "100900.073000", "100900.076000", "100900.079000", "100900.082000", "100900.085000", "100900.088000", "100900.090000", "100900.093000", "100900.096000", "100900.099000", "100900.102000", "100900.105000", "100900.108000", "100900.119000", "100900.121000", "100900.124000", "100900.127000", "100900.130000", "100900.133000", "100920.071000", "100920.074000", "100920.077000", "100920.080000", "100920.083000", "100920.086000", "100920.088000", "100920.091000", "100920.094000", "100920.097000", "100920.100000", "100920.103000", "100920.106000", "100920.109000", "100920.111000", "100920.114000", "100920.117000", "100920.120000", "100920.123000", "100920.126000", "101000.071000", "101000.074000", "101000.077000", "101000.080000", "101000.083000", "101000.086000", "101000.088000", "101000.091000", "101000.094000", "101000.097000", "101000.100000", "101000.103000", "101000.106000", "101000.109000", "101000.112000", "101000.115000", "101000.118000", "101000.120000", "101000.123000", "101000.126000", "101000.129000", "101000.132000", "101000.135000", "101000.138000", "101000.141000", "101000.143000", "101000.146000", "101000.149000", "101000.152000", "101000.155000", "101000.158000", "101040.070000", "101040.073000", "101040.076000", "101040.079000", "101040.082000", "101040.084000", "101040.087000", "101040.090000", "101040.093000", "101040.096000", "101040.099000", "101040.102000", "101040.105000", "101040.108000", "101040.111000", "101040.113000", "101040.116000", "101040.119000", "101040.122000", "101040.125000", "101040.128000", "101040.131000", "101040.134000", "101040.136000", "101040.139000", "101040.142000", "101040.145000", "101120.070000", "101120.075000", "101120.078000", "101120.081000", "101120.084000", "101120.102000", "101120.105000", "101120.108000", "101120.111000", "101120.114000", "101120.117000", "101120.120000", "101120.123000", "101120.125000", "101120.128000", "101120.131000", "101120.134000", "101120.137000", "101120.140000", "101120.143000", "101120.146000", "101120.148000", "101120.151000", "101120.154000", "101120.157000", "101120.160000", "101200.071000", "101200.074000", "101200.077000", "101200.080000", "101200.083000", "101200.086000", "101200.089000", "101200.091000", "101200.094000", "101200.097000", "101200.100000", "101200.103000", "101200.106000", "101200.109000", "101200.112000", "101200.115000", "101200.118000", "101200.120000", "101200.123000", "101200.126000", "101200.129000", "101200.132000", "101200.135000", "101200.138000", "101200.141000", "101200.144000", "101200.147000", "101240.070000", "101240.073000", "101240.076000", "101240.079000", "101240.082000", "101240.085000", "101240.088000", "101240.091000", "101240.094000", "101240.114000", "101240.117000", "101240.120000", "101240.123000", "101240.126000", "101240.129000", "101240.131000", "101240.134000", "101240.137000", "101240.140000", "101240.143000", "101240.146000", "101240.149000", "101240.152000", "101240.155000", "101240.158000", "101240.161000", "101240.164000", "101320.070000", "101320.073000", "101320.076000", "101320.079000", "101320.082000", "101320.085000", "101320.088000", "101320.091000", "101320.094000", "101320.097000", "101320.100000", "101320.103000", "101320.106000", "101320.109000", "101320.112000", "101320.114000", "101320.118000", "101320.120000", "101320.123000", "101320.126000", "101320.129000", "101320.132000", "101320.135000", "101320.138000", "101320.141000", "101320.144000", "101320.147000", "101400.071000", "101400.074000", "101400.077000", "101400.080000", "101400.083000", "101400.086000", "101400.089000", "101400.092000", "101400.095000", "101400.098000", "101400.101000", "101400.104000", "101400.106000", "101400.109000", "101400.112000", "101400.115000", "101400.118000", "101400.121000", "101400.124000", "101400.127000", "101400.129000", "101400.132000", "101400.135000", "101400.138000", "101400.141000", "101400.144000", "101400.147000", "101440.071000", "101440.074000", "101440.077000", "101440.080000", "101440.083000", "101440.086000", "101440.089000", "101440.091000", "101440.094000", "101440.097000", "101440.100000", "101440.103000", "101440.106000", "101440.109000", "101440.112000", "101440.115000", "101440.117000", "101440.120000", "101440.123000", "101440.126000", "101440.129000", "101440.132000", "101440.135000", "101440.138000", "101440.141000", "101440.144000", "101440.147000", "101520.070000", "101520.079000", "101520.082000", "101520.085000", "101520.088000", "101520.091000", "101520.094000", "101520.096000", "101520.099000", "101520.102000", "101520.105000", "101520.108000", "101520.111000", "101520.114000", "101520.117000", "101520.120000", "101520.123000", "101520.126000", "101520.128000", "101520.131000", "101520.134000", "101520.137000", "101520.140000", "101520.143000", "101520.146000", "101520.149000", "101520.152000", "101600.071000", "101600.074000", "101600.077000", "101600.080000", "101600.083000", "101600.086000", "101600.089000", "101600.092000", "101600.095000", "101600.098000", "101600.100000", "101600.103000", "101600.106000", "101600.110000", "101600.113000", "101600.116000", "101600.119000", "101600.122000", "101600.125000", "101600.128000", "101600.131000", "101600.134000", "101600.137000", "101600.140000", "101600.143000", "101600.146000", "101640.071000", "101640.074000", "101640.077000", "101640.080000", "101640.083000", "101640.086000", "101640.089000", "101640.092000", "101640.094000", "101640.097000", "101640.104000", "101640.107000", "101640.110000", "101640.113000", "101640.116000", "101640.119000", "101640.121000", "101640.124000", "101640.127000", "101640.130000", "101640.133000", "101640.136000", "101640.139000", "101640.142000", "101640.145000", "101640.148000", "101640.151000", "101720.070000", "101720.073000", "101720.076000", "101720.079000", "101720.082000", "101720.085000", "101720.087000", "101720.090000", "101720.094000", "101720.097000", "101720.114000", "101720.117000", "101720.120000", "101720.123000", "101720.126000", "101720.129000", "101720.132000", "101720.135000", "101720.137000", "101720.140000", "101720.143000", "101720.146000", "101720.149000", "101720.152000", "101720.155000", "101720.158000", "101720.161000", "101800.070000", "101800.073000", "101800.076000", "101800.079000", "101800.082000", "101800.085000", "101800.088000", "101800.091000", "101800.094000", "101800.096000", "101800.100000", "101800.102000", "101800.105000", "101800.108000", "101800.111000", "101800.114000", "101800.117000", "101800.120000", "101800.123000", "101800.126000", "101800.128000", "101800.131000", "101800.134000", "101800.137000", "101800.140000", "101800.143000", "101800.146000", "101832.247000", "101832.251000", "101832.254000", "101832.257000", "101832.260000", "101832.263000", "101832.266000", "101832.269000", "101832.272000", "101832.275000", "101832.278000", "101832.281000", "101832.284000", "101832.287000", "101832.290000", "101832.293000", "101832.296000", "101832.299000", "101832.302000", "101832.305000", "101832.308000", "101832.311000"],
