{
  "AcquisitionMatrixPE": 104,
  "AcquisitionNumber": 1,
  "AcquisitionTime": "09:42:34.602500",
  "BandwidthPerPixelPhaseEncode": 17.17,
  "BaseResolution": 104,
  "BodyPartExamined": "BRAIN",
  "CoilString": "HC1-7;NC1_2",
  "ConsistencyInfo": "N4_VE11C_LATEST_20160120",
  "ConversionSoftware": "dcm2niix",
  "ConversionSoftwareVersion": "v1.0.20190902",
  "DerivedVendorReportedEchoSpacing": 0.000560011,
  "DeviceSerialNumber": "167006",
  "DwellTime": 2.1e-06,
  "EchoTime": 0.037,
  "EchoTrainLength": 104,
  "EffectiveEchoSpacing": 0.000560011,
  "FlipAngle": 52,
  "ImageComments": "Unaliased_MB4_PE3_LB",
  "ImageOrientationPatientDICOM": [0.996421, 0.0623454, 0.0570898, -0.0417624, 0.950214, -0.308786],
  "ImageType": [
    "ORIGINAL",
    "PRIMARY",
    "M",
    "MB",
    "ND",
    "MOSAIC"
],
  "ImagingFrequency": 123.259,
  "InPlanePhaseEncodingDirectionDICOM": "COL",
  "InstitutionAddress": "Chemin_Queen-Mary_4565_Montreal_District_CA_H3W_1W5",
  "InstitutionName": "IUGM",
  "InstitutionalDepartmentName": "Department",
  "MRAcquisitionType": "2D",
  "MagneticFieldStrength": 3,
  "Manufacturer": "Siemens",
  "ManufacturersModelName": "Prisma_fit",
  "Modality": "MR",
  "MultibandAccelerationFactor": 4,
  "PartialFourier": 1,
  "PatientPosition": "HFS",
  "PercentPhaseFOV": 100,
  "PhaseEncodingDirection": "j",
  "PhaseEncodingSteps": 104,
  "PhaseResolution": 1,
  "PixelBandwidth": 2290,
  "ProcedureStepDescription": "video_friends",
  "ProtocolName": "func_task-friends-s03e18b",
  "PulseSequenceDetails": "%CustomerSeq%_cmrr_mbep2d_bold",
  "ReceiveCoilActiveElements": "HC1-7;NC1,2",
  "ReceiveCoilName": "HeadNeck_64",
  "ReconMatrixPE": 104,
  "RepetitionTime": 1.49,
  "SAR": 0.0382376,
  "ScanOptions": "FS",
  "ScanningSequence": "EP",
  "SequenceName": "epfid2d1_104",
  "SequenceVariant": "SK_SS",
  "SeriesDescription": "func_task-friends-s03e18b",
  "SeriesNumber": 11,
  "ShimSetting": [646, -7208, -8821, 662, 101, -48, 44, 10],
  "SliceThickness": 2,
  "SliceTiming": [0, 0.785, 0.0975, 0.8825, 0.1975, 0.98, 0.295, 1.0775, 0.3925, 1.175, 0.49, 1.275, 0.5875, 1.3725, 0.685, 0, 0.785, 0.0975, 0.8825, 0.1975, 0.98, 0.295, 1.0775, 0.3925, 1.175, 0.49, 1.275, 0.5875, 1.3725, 0.685, 0, 0.785, 0.0975, 0.8825, 0.1975, 0.98, 0.295, 1.0775, 0.3925, 1.175, 0.49, 1.275, 0.5875, 1.3725, 0.685, 0, 0.785, 0.0975, 0.8825, 0.1975, 0.98, 0.295, 1.0775, 0.3925, 1.175, 0.49, 1.275, 0.5875, 1.3725, 0.685],
  "SoftwareVersions": "syngo_MR_E11",
  "SpacingBetweenSlices": 2,
  "StationName": "MRC35049",
  "TaskName": "s03e18b",
  "TotalReadoutTime": 0.0576811,
  "TxRefAmp": 244.925,
  "WipMemBlock": "148b0218-daa3-40e2-8316-414bb2b5f367||Sequence: R016 ve11c/master r/e634e98; Dec 19 2017 11:00:25 by eja",
  "dcmmeta_affine": [
    [-1.9928410053253174, -0.08352486044168472, 0.1469978392124176, 103.78679656982422],
    [-0.12469076365232468, 1.9004285335540771, -0.6105929017066956, -66.0221939086914],
    [0.1141795963048935, 0.6175719499588013, 1.8988332748413086, -59.929080963134766],
    [0.0, 0.0, 0.0, 1.0]
],
  "dcmmeta_reorient_transform": [
    [0.0, -1.0, 0.0, 103.0],
    [1.0, 0.0, 0.0, 0.0],
    [0.0, 0.0, 1.0, 0.0],
    [0.0, 0.0, 0.0, 1.0]
],
  "dcmmeta_shape": [104, 104, 60, 469],
  "dcmmeta_slice_dim": 2,
  "dcmmeta_version": 0.6,
  "global": {
    "const": {
      "AcquisitionMatrix": [104, 0, 0, 104],
      "AngioFlag": "N",
      "BitsAllocated": 16,
      "BitsStored": 16,
      "BodyPartExamined": "BRAIN",
      "Columns": 832,
      "EchoNumbers": 1,
      "EchoTime": 37.0,
      "EchoTrainLength": 104,
      "FlipAngle": 52.0,
      "HighBit": 15,
      "ImageOrientationPatient": [0.9964204977573, 0.06234538135713, 0.05708979832273, -0.0417624296994, 0.95021425108414, -0.3087859719971],
      "ImagePositionPatient": [-790.17480795423, -866.86535706528, 186.91564536062],
      "ImageType": [
        "ORIGINAL",
        "PRIMARY",
        "M",
        "MB",
        "ND",
        "MOSAIC"
],
      "ImagedNucleus": "1H",
      "ImagingFrequency": 123.259026,
      "InPlanePhaseEncodingDirection": "COL",
      "MRAcquisitionType": "2D",
      "MagneticFieldStrength": 3.0,
      "Manufacturer": "SIEMENS",
      "ManufacturerModelName": "Prisma_fit",
      "Modality": "MR",
      "NumberOfAverages": 1.0,
      "NumberOfPhaseEncodingSteps": 104,
      "PercentPhaseFieldOfView": 100.0,
      "PercentSampling": 100.0,
      "PerformedProcedureStepStartTime": "091622.832000",
      "PhotometricInterpretation": "MONOCHROME2",
      "PixelBandwidth": 2290.0,
      "PixelRepresentation": 0,
      "PixelSpacing": [2.0, 2.0],
      "ProtocolName": "func_task-friends-s03e18b",
      "RepetitionTime": 1490.0,
      "Rows": 832,
      "SAR": 0.03823764564708,
      "SamplesPerPixel": 1,
      "ScanOptions": "FS",
      "ScanningSequence": "EP",
      "SequenceName": "epfid2d1_104",
      "SequenceVariant": [
        "SK",
        "SS"
],
      "SeriesDescription": "func_task-friends-s03e18b",
      "SeriesNumber": 11,
      "SeriesTime": "094359.602000",
      "SliceLocation": -29.11310713282,
      "SliceThickness": 2.0,
      "SmallestImagePixelValue": 0,
      "SoftwareVersions": "syngo MR E11",
      "SpacingBetweenSlices": 1.9999999616006,
      "SpecificCharacterSet": "ISO_IR 100",
      "StudyID": "1",
      "StudyTime": "091622.644000",
      "TransmitCoilName": "Body",
      "VariableFlipAngleFlag": "N",
      "WindowCenterWidthExplanation": "Algo1",
      "dBdt": 0.0},
    "slices": {}
  },
  "time": {
    "samples": {
      "AcquisitionNumber": [1, 2, 3, 4, 5, 6, 7, 8, 9, 10, 11, 12, 13, 14, 15, 16, 17, 18, 19, 20, 21, 22, 23, 24, 25, 26, 27, 28, 29, 30, 31, 32, 33, 34, 35, 36, 37, 38, 39, 40, 41, 42, 43, 44, 45, 46, 47, 48, 49, 50, 51, 52, 53, 54, 55, 56, 57, 58, 59, 60, 61, 62, 63, 64, 65, 66, 67, 68, 69, 70, 71, 72, 73, 74, 75, 76, 77, 78, 79, 80, 81, 82, 83, 84, 85, 86, 87, 88, 89, 90, 91, 92, 93, 94, 95, 96, 97, 98, 99, 100, 101, 102, 103, 104, 105, 106, 107, 108, 109, 110, 111, 112, 113, 114, 115, 116, 117, 118, 119, 120, 121, 122, 123, 124, 125, 126, 127, 128, 129, 130, 131, 132, 133, 134, 135, 136, 137, 138, 139, 140, 141, 142, 143, 144, 145, 146, 147, 148, 149, 150, 151, 152, 153, 154, 155, 156, 157, 158, 159, 160, 161, 162, 163, 164, 165, 166, 167, 168, 169, 170, 171, 172, 173, 174, 175, 176, 177, 178, 179, 180, 181, 182, 183, 184, 185, 186, 187, 188, 189, 190, 191, 192, 193, 194, 195, 196, 197, 198, 199, 200, 201, 202, 203, 204, 205, 206, 207, 208, 209, 210, 211, 212, 213, 214, 215, 216, 217, 218, 219, 220, 221, 222, 223, 224, 225, 226, 227, 228, 229, 230, 231, 232, 233, 234, 235, 236, 237, 238, 239, 240, 241, 242, 243, 244, 245, 246, 247, 248, 249, 250, 251, 252, 253, 254, 255, 256, 257, 258, 259, 260, 261, 262, 263, 264, 265, 266, 267, 268, 269, 270, 271, 272, 273, 274, 275, 276, 277, 278, 279, 280, 281, 282, 283, 284, 285, 286, 287, 288, 289, 290, 291, 292, 293, 294, 295, 296, 297, 298, 299, 300, 301, 302, 303, 304, 305, 306, 307, 308, 309, 310, 311, 312, 313, 314, 315, 316, 317, 318, 319, 320, 321, 322, 323, 324, 325, 326, 327, 328, 329, 330, 331, 332, 333, 334, 335, 336, 337, 338, 339, 340, 341, 342, 343, 344, 345, 346, 347, 348, 349, 350, 351, 352, 353, 354, 355, 356, 357, 358, 359, 360, 361, 362, 363, 364, 365, 366, 367, 368, 369, 370, 371, 372, 373, 374, 375, 376, 377, 378, 379, 380, 381, 382, 383, 384, 385, 386, 387, 388, 389, 390, 391, 392, 393, 394, 395, 396, 397, 398, 399, 400, 401, 402, 403, 404, 405, 406, 407, 408, 409, 410, 411, 412, 413, 414, 415, 416, 417, 418, 419, 420, 421, 422, 423, 424, 425, 426, 427, 428, 429, 430, 431, 432, 433, 434, 435, 436, 437, 438, 439, 440, 441, 442, 443, 444, 445, 446, 447, 448, 449, 450, 451, 452, 453, 454, 455, 456, 457, 458, 459, 460, 461, 462, 463, 464, 465, 466, 467, 468, 469],
      "AcquisitionTime": ["094234.602500", "094236.092500", "094237.582500", "094239.072500", "094240.562500", "094242.052500", "094243.542500", "094245.032500", "094246.522500", "094248.012500", "094249.502500", "094250.992500", "094252.482500", "094253.972500", "094255.462500", "094256.952500", "094258.442500", "094259.932500", "094301.422500", "094302.912500", "094304.402500", "094305.892500", "094307.382500", "094308.872500", "094310.362500", "094311.852500", "094313.342500", "094314.832500", "094316.322500", "094317.812500", "094319.302500", "094320.792500", "094322.282500", "094323.772500", "094325.262500", "094326.752500", "094328.242500", "094329.732500", "094331.222500", "094332.712500", "094334.202500", "094335.692500", "094337.182500", "094338.672500", "094340.162500", "094341.652500", "094343.142500", "094344.632500", "094346.122500", "094347.612500", "094349.102500", "094350.592500", "094352.082500", "094353.572500", "094355.062500", "094356.552500", "094358.042500", "094359.532500", "094401.022500", "094402.512500", "094404.002500", "094405.492500", "094406.982500", "094408.472500", "094409.962500", "094411.452500", "094412.942500", "094414.432500", "094415.922500", "094417.412500", "094418.902500", "094420.392500", "094421.882500", "094423.372500", "094424.862500", "094426.352500", "094427.842500", "094429.332500", "094430.822500", "094432.312500", "094433.802500", "094435.292500", "094436.782500", "094438.272500", "094439.762500", "094441.252500", "094442.742500", "094444.232500", "094445.722500", "094447.212500", "094448.702500", "094450.192500", "094451.682500", "094453.172500", "094454.662500", "094456.152500", "094457.642500", "094459.132500", "094500.622500", "094502.112500", "094503.602500", "094505.092500", "094506.582500", "094508.072500", "094509.562500", "094511.052500", "094512.542500", "094514.032500", "094515.522500", "094517.012500", "094518.502500", "094519.992500", "094521.482500", "094522.972500", "094524.462500", "094525.952500", "094527.442500", "094528.932500", "094530.422500", "094531.912500", "094533.402500", "094534.892500", "094536.382500", "094537.872500", "094539.362500", "094540.852500", "094542.342500", "094543.832500", "094545.322500", "094546.812500", "094548.302500", "094549.792500", "094551.282500", "094552.772500", "094554.262500", "094555.752500", "094557.242500", "094558.732500", "094600.222500", "094601.712500", "094603.202500", "094604.692500", "094606.182500", "094607.672500", "094609.162500", "094610.652500", "094612.142500", "094613.632500", "094615.122500", "094616.612500", "094618.102500", "094619.592500", "094621.082500", "094622.572500", "094624.062500", "094625.552500", "094627.042500", "094628.532500", "094630.022500", "094631.512500", "094633.002500", "094634.492500", "094635.982500", "094637.472500", "094638.962500", "094640.452500", "094641.942500", "094643.432500", "094644.922500", "094646.412500", "094647.902500", "094649.392500", "094650.882500", "094652.372500", "094653.862500", "094655.352500", "094656.842500", "094658.332500", "094659.822500", "094701.312500", "094702.802500", "094704.292500", "094705.782500", "094707.272500", "094708.762500", "094710.252500", "094711.742500", "094713.232500", "094714.722500", "094716.212500", "094717.702500", "094719.192500", "094720.682500", "094722.172500", "094723.662500", "094725.152500", "094726.642500", "094728.132500", "094729.622500", "094731.112500", "094732.602500", "094734.092500", "094735.582500", "094737.072500", "094738.562500", "094740.052500", "094741.542500", "094743.032500", "094744.522500", "094746.012500", "094747.502500", "094748.992500", "094750.482500", "094751.972500", "094753.462500", "094754.952500", "094756.442500", "094757.932500", "094759.422500", "094800.912500", "094802.402500", "094803.892500", "094805.382500", "094806.872500", "094808.362500", "094809.852500", "094811.342500", "094812.832500", "094814.322500", "094815.812500", "094817.302500", "094818.792500", "094820.282500", "094821.772500", "094823.262500", "094824.752500", "094826.242500", "094827.732500", "094829.222500", "094830.712500", "094832.202500", "094833.692500", "094835.182500", "094836.672500", "094838.162500", "094839.652500", "094841.142500", "094842.632500", "094844.122500", "094845.612500", "094847.102500", "094848.592500", "094850.082500", "094851.572500", "094853.062500", "094854.552500", "094856.042500", "094857.532500", "094859.022500", "094900.512500", "094902.002500", "094903.492500", "094904.982500", "094906.472500", "094907.962500", "094909.452500", "094910.942500", "094912.432500", "094913.922500", "094915.412500", "094916.902500", "094918.392500", "094919.882500", "094921.372500", "094922.862500", "094924.352500", "094925.842500", "094927.332500", "094928.822500", "094930.312500", "094931.802500", "094933.292500", "094934.782500", "094936.272500", "094937.762500", "094939.252500", "094940.742500", "094942.232500", "094943.722500", "094945.212500", "094946.702500", "094948.192500", "094949.682500", "094951.172500", "094952.662500", "094954.152500", "094955.642500", "094957.132500", "094958.622500", "095000.112500", "095001.602500", "095003.092500", "095004.582500", "095006.072500", "095007.562500", "095009.052500", "095010.542500", "095012.032500", "095013.522500", "095015.012500", "095016.502500", "095017.992500", "095019.482500", "095020.972500", "095022.462500", "095023.952500", "095025.442500", "095026.932500", "095028.422500", "095029.912500", "095031.402500", "095032.892500", "095034.382500", "095035.872500", "095037.362500", "095038.852500", "095040.342500", "095041.832500", "095043.322500", "095044.812500", "095046.302500", "095047.792500", "095049.282500", "095050.772500", "095052.262500", "095053.752500", "095055.242500", "095056.732500", "095058.222500", "095059.712500", "095101.202500", "095102.692500", "095104.182500", "095105.672500", "095107.162500", "095108.652500", "095110.142500", "095111.632500", "095113.122500", "095114.612500", "095116.102500", "095117.592500", "095119.082500", "095120.572500", "095122.062500", "095123.552500", "095125.042500", "095126.532500", "095128.022500", "095129.512500", "095131.002500", "095132.492500", "095133.982500", "095135.472500", "095136.962500", "095138.452500", "095139.942500", "095141.432500", "095142.922500", "095144.412500", "095145.902500", "095147.392500", "095148.882500", "095150.372500", "095151.862500", "095153.352500", "095154.842500", "095156.332500", "095157.822500", "095159.312500", "095200.802500", "095202.292500", "095203.782500", "095205.272500", "095206.762500", "095208.252500", "095209.742500", "095211.232500", "095212.722500", "095214.212500", "095215.702500", "095217.192500", "095218.682500", "095220.172500", "095221.662500", "095223.152500", "095224.642500", "095226.132500", "095227.622500", "095229.112500", "095230.602500", "095232.092500", "095233.582500", "095235.072500", "095236.562500", "095238.052500", "095239.542500", "095241.032500", "095242.522500", "095244.012500", "095245.502500", "095246.992500", "095248.482500", "095249.972500", "095251.462500", "095252.952500", "095254.442500", "095255.932500", "095257.422500", "095258.912500", "095300.402500", "095301.892500", "095303.382500", "095304.872500", "095306.362500", "095307.852500", "095309.342500", "095310.832500", "095312.322500", "095313.812500", "095315.302500", "095316.792500", "095318.282500", "095319.772500", "095321.262500", "095322.752500", "095324.242500", "095325.732500", "095327.222500", "095328.712500", "095330.202500", "095331.692500", "095333.182500", "095334.672500", "095336.162500", "095337.652500", "095339.142500", "095340.632500", "095342.122500", "095343.612500", "095345.102500", "095346.592500", "095348.082500", "095349.572500", "095351.062500", "095352.552500", "095354.042500", "095355.532500", "095357.022500", "095358.512500", "095400.002500", "095401.492500", "095402.982500", "095404.472500", "095405.962500", "095407.452500", "095408.942500", "095410.432500", "095411.922500"],
      "ContentTime": ["094359.605000", "094359.608000", "094359.611000", "094359.614000", "094359.617000", "094359.620000", "094359.623000", "094359.625000", "094359.628000", "094359.631000", "094359.634000", "094359.637000", "094359.640000", "094359.643000", "094359.646000", "094359.648000", "094359.651000", "094359.654000", "094359.657000", "094359.665000", "094359.667000", "094359.670000", "094359.673000", "094359.676000", "094359.679000", "094359.682000", "094359.685000", "094359.687000", "094359.690000", "094359.693000", "094359.696000", "094419.573000", "094419.576000", "094419.579000", "094419.595000", "094419.598000", "094419.601000", "094419.604000", "094419.607000", "094419.621000", "094419.624000", "094419.627000", "094419.630000", "094419.633000", "094419.636000", "094419.639000", "094419.642000", "094419.644000", "094419.647000", "094419.650000", "094419.653000", "094439.573000", "094439.576000", "094439.579000", "094439.582000", "094439.584000", "094439.587000", "094439.590000", "094439.599000", "094439.602000", "094439.605000", "094439.608000", "094439.611000", "094439.614000", "094439.616000", "094439.619000", "094439.622000", "094439.625000", "094439.628000", "094439.631000", "094439.634000", "094459.573000", "094459.576000", "094459.579000", "094459.582000", "094459.584000", "094459.587000", "094459.590000", "094459.593000", "094459.596000", "094459.599000", "094459.602000", "094459.605000", "094459.608000", "094459.610000", "094459.614000", "094459.617000", "094459.620000", "094459.623000", "094459.626000", "094459.629000", "094539.573000", "094539.576000", "094539.579000", "094539.582000", "094539.585000", "094539.587000", "094539.590000", "094539.593000", "094539.596000", "094539.599000", "094539.602000", "094539.605000", "094539.608000", "094539.611000", "094539.613000", "094539.616000", "094539.619000", "094539.622000", "094539.625000", "094539.628000", "094539.631000", "094539.634000", "094539.637000", "094539.639000", "094539.642000", "094539.645000", "094539.648000", "094539.651000", "094539.654000", "094539.657000", "094539.660000", "094539.662000", "094619.573000", "094619.576000", "094619.579000", "094619.582000", "094619.585000", "094619.587000", "094619.590000", "094619.593000", "094619.596000", "094619.599000", "094619.602000", "094619.605000", "094619.608000", "094619.611000", "094619.614000", "094619.616000", "094619.619000", "094619.622000", "094619.625000", "094619.628000", "094619.631000", "094619.634000", "094619.637000", "094619.649000", "094619.652000", "094619.654000", "094619.657000", "094659.573000", "094659.576000", "094659.579000", "094659.582000", "094659.592000", "094659.595000", "094659.598000", "094659.601000", "094659.604000", "094659.607000", "094659.610000", "094659.613000", "094659.616000", "094659.619000", "094659.622000", "094659.624000", "094659.627000", "094659.630000", "094659.633000", "094659.636000", "094659.639000", "094659.642000", "094659.645000", "094659.648000", "094659.651000", "094659.654000", "094659.657000", "094739.573000", "094739.576000", "094739.579000", "094739.582000", "094739.585000", "094739.588000", "094739.591000", "094739.593000", "094739.596000", "094739.600000", "094739.603000", "094739.605000", "094739.608000", "094739.611000", "094739.614000", "094739.617000", "094739.620000", "094739.623000", "094739.626000", "094739.629000", "094739.632000", "094739.635000", "094739.638000", "094739.641000", "094739.644000", "094739.647000", "094739.650000", "094819.573000", "094819.576000", "094819.585000", "094819.588000", "094819.591000", "094819.594000", "094819.597000", "094819.599000", "094819.602000", "094819.605000", "094819.608000", "094819.611000", "094819.614000", "094819.617000", "094819.620000", "094819.623000", "094819.626000", "094819.628000", "094819.631000", "094819.634000", "094819.637000", "094819.640000", "094819.643000", "094819.661000", "094819.664000", "094819.667000", "094819.670000", "094859.573000", "094859.576000", "094859.579000", "094859.582000", "094859.585000", "094859.588000", "094859.591000", "094859.594000", "094859.597000", "094859.600000", "094859.602000", "094859.605000", "094859.608000", "094859.611000", "094859.614000", "094859.617000", "094859.620000", "094859.623000", "094859.626000", "094859.629000", "094859.632000", "094859.635000", "094859.638000", "094859.641000", "094859.644000", "094859.646000", "094939.573000", "094939.576000", "094939.579000", "094939.582000", "094939.585000", "094939.588000", "094939.590000", "094939.593000", "094939.596000", "094939.599000", "094939.602000", "094939.605000", "094939.608000", "094939.611000", "094939.614000", "094939.617000", "094939.619000", "094939.622000", "094939.625000", "094939.628000", "094939.631000", "094939.634000", "094939.637000", "094939.640000", "094939.643000", "094939.646000", "094939.648000", "095019.573000", "095019.576000", "095019.579000", "095019.582000", "095019.585000", "095019.588000", "095019.591000", "095019.593000", "095019.596000", "095019.599000", "095019.602000", "095019.605000", "095019.608000", "095019.611000", "095019.614000", "095019.617000", "095019.620000", "095019.622000", "095019.625000", "095019.628000", "095019.631000", "095019.634000", "095019.637000", "095019.640000", "095019.643000", "095019.645000", "095019.648000", "095059.573000", "095059.576000", "095059.579000", "095059.582000", "095059.585000", "095059.588000", "095059.591000", "095059.593000", "095059.596000", "095059.599000", "095059.602000", "095059.605000", "095059.608000", "095059.611000", "095059.614000", "095059.617000", "095059.619000", "095059.622000", "095059.625000", "095059.628000", "095059.631000", "095059.634000", "095059.637000", "095059.640000", "095059.643000", "095059.645000", "095059.648000", "095139.573000", "095139.576000", "095139.579000", "095139.582000", "095139.585000", "095139.588000", "095139.590000", "095139.593000", "095139.596000", "095139.599000", "095139.602000", "095139.605000", "095139.608000", "095139.611000", "095139.614000", "095139.617000", "095139.619000", "095139.622000", "095139.625000", "095139.628000", "095139.631000", "095139.634000", "095139.637000", "095139.640000", "095139.643000", "095139.646000", "095139.649000", "095219.573000", "095219.576000", "095219.579000", "095219.582000", "095219.585000", "095219.588000", "095219.591000", "095219.593000", "095219.596000", "095219.599000", "095219.602000", "095219.605000", "095219.608000", "095219.611000", "095219.614000", "095219.617000", "095219.620000", "095219.623000", "095219.625000", "095219.628000", "095219.631000", "095219.634000", "095219.637000", "095219.640000", "095219.643000", "095219.646000", "095219.648000", "095259.573000", "095259.576000", "095259.579000", "095259.582000", "095259.585000", "095259.588000", "095259.590000", "095259.593000", "095259.596000", "095259.599000", "095259.602000", "095259.605000", "095259.608000", "095259.611000", "095259.614000", "095259.617000", "095259.620000", "095259.622000", "095259.625000", "095259.628000", "095259.638000", "095259.641000", "095259.644000", "095259.647000", "095259.650000", "095259.653000", "095259.656000", "095339.573000", "095339.576000", "095339.579000", "095339.582000", "095339.585000", "095339.588000", "095339.590000", "095339.593000", "095339.596000", "095339.599000", "095339.602000", "095339.605000", "095339.608000", "095339.611000", "095339.614000", "095339.617000", "095339.620000", "095339.623000", "095339.626000", "095339.629000", "095339.632000", "095339.635000", "095339.638000", "095339.641000", "095339.644000", "095339.647000", "095414.065000", "095414.068000", "095414.071000", "095414.074000", "095414.077000", "095414.080000", "095414.083000", "095414.091000", "095414.094000", "095414.097000", "095414.100000", "095414.103000", "095414.106000", "095414.109000", "095414.112000", "095414.115000", "095414.118000", "095414.121000", "095414.123000", "095414.126000", "095414.129000", "095414.132000", "095414.135000", "095414.138000"],
