{
  "AcquisitionMatrixPE": 104,
  "AcquisitionNumber": 1,
  "AcquisitionTime": "13:17:13.440000",
  "BandwidthPerPixelPhaseEncode": 17.17,
  "BaseResolution": 104,
  "BodyPartExamined": "BRAIN",
  "CoilString": "HC1-7;NC1_2",
  "ConsistencyInfo": "N4_VE11C_LATEST_20160120",
  "ConversionSoftware": "dcm2niix",
  "ConversionSoftwareVersion": "v1.0.20190720  (JP2:OpenJPEG) GCC7.3.0",
  "DerivedVendorReportedEchoSpacing": 0.000560011,
  "DeviceSerialNumber": "167006",
  "DwellTime": 2.1e-06,
  "EchoTime": 0.037,
  "EchoTrainLength": 104,
  "EffectiveEchoSpacing": 0.000560011,
  "FlipAngle": 52,
  "ImageComments": "Unaliased_MB4_PE3_LB",
  "ImageOrientationPatientDICOM": [0.997956, -0.00860733, -0.0633254, -0.00470279, 0.978311, -0.207086],
  "ImageType": [
    "ORIGINAL",
    "PRIMARY",
    "M",
    "MB",
    "ND",
    "MOSAIC"
],
  "ImagingFrequency": 123.259,
  "InPlanePhaseEncodingDirectionDICOM": "COL",
  "InstitutionAddress": "Chemin_Queen-Mary_4565_Montreal_District_CA_H3W_1W5",
  "InstitutionName": "IUGM",
  "InstitutionalDepartmentName": "Department",
  "MRAcquisitionType": "2D",
  "MagneticFieldStrength": 3,
  "Manufacturer": "Siemens",
  "ManufacturersModelName": "Prisma_fit",
  "Modality": "MR",
  "MultibandAccelerationFactor": 4,
  "PartialFourier": 1,
  "PatientPosition": "HFS",
  "PercentPhaseFOV": 100,
  "PhaseEncodingDirection": "j",
  "PhaseEncodingSteps": 104,
  "PhaseResolution": 1,
  "PixelBandwidth": 2290,
  "ProcedureStepDescription": "video_friends",
  "ProtocolName": "func_task-friends-s01e02a",
  "PulseSequenceDetails": "%CustomerSeq%_cmrr_mbep2d_bold",
  "ReceiveCoilActiveElements": "HC1-7;NC1,2",
  "ReceiveCoilName": "HeadNeck_64",
  "ReconMatrixPE": 104,
  "RepetitionTime": 1.49,
  "SAR": 0.0329409,
  "ScanOptions": "FS",
  "ScanningSequence": "EP",
  "SequenceName": "epfid2d1_104",
  "SequenceVariant": "SK_SS",
  "SeriesDescription": "func_task-friends-s01e02a",
  "SeriesNumber": 8,
  "ShimSetting": [607, -7255, -8839, 582, -9, -305, 43, 38],
  "SliceThickness": 2,
  "SliceTiming": [0, 0.785, 0.1, 0.8825, 0.1975, 0.98, 0.295, 1.0775, 0.3925, 1.1775, 0.49, 1.275, 0.5875, 1.3725, 0.6875, 0, 0.785, 0.1, 0.8825, 0.1975, 0.98, 0.295, 1.0775, 0.3925, 1.1775, 0.49, 1.275, 0.5875, 1.3725, 0.6875, 0, 0.785, 0.1, 0.8825, 0.1975, 0.98, 0.295, 1.0775, 0.3925, 1.1775, 0.49, 1.275, 0.5875, 1.3725, 0.6875, 0, 0.785, 0.1, 0.8825, 0.1975, 0.98, 0.295, 1.0775, 0.3925, 1.1775, 0.49, 1.275, 0.5875, 1.3725, 0.6875],
  "SoftwareVersions": "syngo_MR_E11",
  "SpacingBetweenSlices": 2,
  "StationName": "MRC35049",
  "TaskName": "friends",
  "TotalReadoutTime": 0.0576811,
  "TxRefAmp": 218.214,
  "WipMemBlock": "9ee037da-85d4-4bd2-bc73-e94a68fae127||Sequence: R016 ve11c/master r/e634e98; Dec 19 2017 11:00:25 by eja",
  "dcmmeta_affine": [
    [-1.9959115982055664, -0.009405573830008507, -0.12746892869472504, 102.94779205322266],
    [0.017214663326740265, 1.956622838973999, -0.4139213562011719, -85.20500946044922],
    [-0.1266508847475052, 0.41417238116264343, 1.9525421857833862, -49.21921157836914],
    [0.0, 0.0, 0.0, 1.0]
],
  "dcmmeta_reorient_transform": [
    [0.0, -1.0, 0.0, 103.0],
    [1.0, 0.0, 0.0, 0.0],
    [0.0, 0.0, 1.0, 0.0],
    [0.0, 0.0, 0.0, 1.0]
],
  "dcmmeta_shape": [104, 104, 60, 472],
  "dcmmeta_slice_dim": 2,
  "dcmmeta_version": 0.6,
  "global": {
    "const": {
      "AcquisitionMatrix": [104, 0, 0, 104],
      "AngioFlag": "N",
      "BitsAllocated": 16,
      "BitsStored": 16,
      "BodyPartExamined": "BRAIN",
      "Columns": 832,
      "EchoNumbers": 1,
      "EchoTime": 37.0,
      "EchoTrainLength": 104,
      "FlipAngle": 52.0,
      "HighBit": 15,
      "ImageOrientationPatient": [0.99795581178357, -0.0086073320591, -0.0633254416661, -0.0047027870569, 0.97831139817423, -0.2070861946057],
      "ImagePositionPatient": [-825.0672172323, -822.27169781795, 190.30021514284],
      "ImageType": [
        "ORIGINAL",
        "PRIMARY",
        "M",
        "MB",
        "ND",
        "MOSAIC"
],
      "ImagedNucleus": "1H",
      "ImagingFrequency": 123.259149,
      "InPlanePhaseEncodingDirection": "COL",
      "MRAcquisitionType": "2D",
      "MagneticFieldStrength": 3.0,
      "Manufacturer": "SIEMENS",
      "ManufacturerModelName": "Prisma_fit",
      "Modality": "MR",
      "NumberOfAverages": 1.0,
      "NumberOfPhaseEncodingSteps": 104,
      "PercentPhaseFieldOfView": 100.0,
      "PercentSampling": 100.0,
      "PerformedProcedureStepStartTime": "131127.565000",
      "PhotometricInterpretation": "MONOCHROME2",
      "PixelBandwidth": 2290.0,
      "PixelRepresentation": 0,
      "PixelSpacing": [2.0, 2.0],
      "ProtocolName": "func_task-friends-s01e02a",
      "RepetitionTime": 1490.0,
      "Rows": 832,
      "SAR": 0.03294092427479,
      "SamplesPerPixel": 1,
      "ScanOptions": "FS",
      "ScanningSequence": "EP",
      "SequenceName": "epfid2d1_104",
      "SequenceVariant": [
        "SK",
        "SS"
],
      "SeriesDescription": "func_task-friends-s01e02a",
      "SeriesNumber": 8,
      "SeriesTime": "131840.892000",
      "SliceLocation": -36.978527970018,
      "SliceThickness": 2.0,
      "SmallestImagePixelValue": 0,
      "SoftwareVersions": "syngo MR E11",
      "SpacingBetweenSlices": 2.0000000532758,
      "SpecificCharacterSet": "ISO_IR 100",
      "StudyID": "1",
      "StudyTime": "131127.474000",
      "TransmitCoilName": "Body",
      "VariableFlipAngleFlag": "N",
      "WindowCenterWidthExplanation": "Algo1",
      "dBdt": 0.0},
    "slices": {}
  },
  "time": {
    "samples": {
      "AcquisitionNumber": [1, 2, 3, 4, 5, 6, 7, 8, 9, 10, 11, 12, 13, 14, 15, 16, 17, 18, 19, 20, 21, 22, 23, 24, 25, 26, 27, 28, 29, 30, 31, 32, 33, 34, 35, 36, 37, 38, 39, 40, 41, 42, 43, 44, 45, 46, 47, 48, 49, 50, 51, 52, 53, 54, 55, 56, 57, 58, 59, 60, 61, 62, 63, 64, 65, 66, 67, 68, 69, 70, 71, 72, 73, 74, 75, 76, 77, 78, 79, 80, 81, 82, 83, 84, 85, 86, 87, 88, 89, 90, 91, 92, 93, 94, 95, 96, 97, 98, 99, 100, 101, 102, 103, 104, 105, 106, 107, 108, 109, 110, 111, 112, 113, 114, 115, 116, 117, 118, 119, 120, 121, 122, 123, 124, 125, 126, 127, 128, 129, 130, 131, 132, 133, 134, 135, 136, 137, 138, 139, 140, 141, 142, 143, 144, 145, 146, 147, 148, 149, 150, 151, 152, 153, 154, 155, 156, 157, 158, 159, 160, 161, 162, 163, 164, 165, 166, 167, 168, 169, 170, 171, 172, 173, 174, 175, 176, 177, 178, 179, 180, 181, 182, 183, 184, 185, 186, 187, 188, 189, 190, 191, 192, 193, 194, 195, 196, 197, 198, 199, 200, 201, 202, 203, 204, 205, 206, 207, 208, 209, 210, 211, 212, 213, 214, 215, 216, 217, 218, 219, 220, 221, 222, 223, 224, 225, 226, 227, 228, 229, 230, 231, 232, 233, 234, 235, 236, 237, 238, 239, 240, 241, 242, 243, 244, 245, 246, 247, 248, 249, 250, 251, 252, 253, 254, 255, 256, 257, 258, 259, 260, 261, 262, 263, 264, 265, 266, 267, 268, 269, 270, 271, 272, 273, 274, 275, 276, 277, 278, 279, 280, 281, 282, 283, 284, 285, 286, 287, 288, 289, 290, 291, 292, 293, 294, 295, 296, 297, 298, 299, 300, 301, 302, 303, 304, 305, 306, 307, 308, 309, 310, 311, 312, 313, 314, 315, 316, 317, 318, 319, 320, 321, 322, 323, 324, 325, 326, 327, 328, 329, 330, 331, 332, 333, 334, 335, 336, 337, 338, 339, 340, 341, 342, 343, 344, 345, 346, 347, 348, 349, 350, 351, 352, 353, 354, 355, 356, 357, 358, 359, 360, 361, 362, 363, 364, 365, 366, 367, 368, 369, 370, 371, 372, 373, 374, 375, 376, 377, 378, 379, 380, 381, 382, 383, 384, 385, 386, 387, 388, 389, 390, 391, 392, 393, 394, 395, 396, 397, 398, 399, 400, 401, 402, 403, 404, 405, 406, 407, 408, 409, 410, 411, 412, 413, 414, 415, 416, 417, 418, 419, 420, 421, 422, 423, 424, 425, 426, 427, 428, 429, 430, 431, 432, 433, 434, 435, 436, 437, 438, 439, 440, 441, 442, 443, 444, 445, 446, 447, 448, 449, 450, 451, 452, 453, 454, 455, 456, 457, 458, 459, 460, 461, 462, 463, 464, 465, 466, 467, 468, 469, 470, 471, 472],
      "AcquisitionTime": ["131713.440000", "131714.930000", "131716.420000", "131717.910000", "131719.400000", "131720.890000", "131722.380000", "131723.870000", "131725.360000", "131726.850000", "131728.340000", "131729.830000", "131731.320000", "131732.810000", "131734.300000", "131735.790000", "131737.280000", "131738.770000", "131740.260000", "131741.750000", "131743.240000", "131744.730000", "131746.220000", "131747.710000", "131749.200000", "131750.690000", "131752.180000", "131753.670000", "131755.160000", "131756.650000", "131758.140000", "131759.630000", "131801.120000", "131802.610000", "131804.100000", "131805.590000", "131807.080000", "131808.570000", "131810.060000", "131811.550000", "131813.040000", "131814.530000", "131816.020000", "131817.510000", "131819.000000", "131820.490000", "131821.980000", "131823.470000", "131824.960000", "131826.450000", "131827.940000", "131829.430000", "131830.920000", "131832.410000", "131833.900000", "131835.390000", "131836.880000", "131838.370000", "131839.860000", "131841.350000", "131842.840000", "131844.330000", "131845.820000", "131847.310000", "131848.800000", "131850.290000", "131851.780000", "131853.270000", "131854.760000", "131856.250000", "131857.740000", "131859.230000", "131900.720000", "131902.210000", "131903.700000", "131905.190000", "131906.680000", "131908.170000", "131909.660000", "131911.150000", "131912.640000", "131914.130000", "131915.620000", "131917.110000", "131918.600000", "131920.090000", "131921.580000", "131923.070000", "131924.560000", "131926.050000", "131927.540000", "131929.030000", "131930.520000", "131932.010000", "131933.500000", "131934.990000", "131936.480000", "131937.970000", "131939.460000", "131940.950000", "131942.440000", "131943.930000", "131945.420000", "131946.910000", "131948.400000", "131949.890000", "131951.380000", "131952.870000", "131954.360000", "131955.850000", "131957.340000", "131958.830000", "132000.320000", "132001.810000", "132003.300000", "132004.790000", "132006.280000", "132007.770000", "132009.260000", "132010.750000", "132012.240000", "132013.730000", "132015.220000", "132016.710000", "132018.200000", "132019.690000", "132021.180000", "132022.670000", "132024.160000", "132025.650000", "132027.140000", "132028.630000", "132030.120000", "132031.610000", "132033.100000", "132034.590000", "132036.080000", "132037.570000", "132039.060000", "132040.550000", "132042.040000", "132043.530000", "132045.020000", "132046.510000", "132048.000000", "132049.490000", "132050.980000", "132052.470000", "132053.960000", "132055.450000", "132056.940000", "132058.430000", "132059.920000", "132101.410000", "132102.900000", "132104.390000", "132105.880000", "132107.370000", "132108.860000", "132110.350000", "132111.840000", "132113.330000", "132114.820000", "132116.310000", "132117.800000", "132119.290000", "132120.780000", "132122.270000", "132123.760000", "132125.250000", "132126.740000", "132128.230000", "132129.720000", "132131.210000", "132132.700000", "132134.190000", "132135.680000", "132137.170000", "132138.660000", "132140.150000", "132141.640000", "132143.130000", "132144.620000", "132146.110000", "132147.600000", "132149.090000", "132150.580000", "132152.070000", "132153.560000", "132155.050000", "132156.540000", "132158.030000", "132159.520000", "132201.010000", "132202.500000", "132203.990000", "132205.480000", "132206.970000", "132208.460000", "132209.950000", "132211.440000", "132212.930000", "132214.420000", "132215.910000", "132217.400000", "132218.890000", "132220.380000", "132221.870000", "132223.360000", "132224.850000", "132226.340000", "132227.830000", "132229.320000", "132230.810000", "132232.300000", "132233.790000", "132235.280000", "132236.770000", "132238.260000", "132239.750000", "132241.240000", "132242.730000", "132244.220000", "132245.710000", "132247.200000", "132248.690000", "132250.180000", "132251.670000", "132253.160000", "132254.650000", "132256.140000", "132257.630000", "132259.120000", "132300.610000", "132302.100000", "132303.590000", "132305.080000", "132306.570000", "132308.060000", "132309.550000", "132311.040000", "132312.530000", "132314.020000", "132315.510000", "132317.000000", "132318.490000", "132319.980000", "132321.470000", "132322.960000", "132324.450000", "132325.940000", "132327.430000", "132328.920000", "132330.410000", "132331.900000", "132333.390000", "132334.880000", "132336.370000", "132337.860000", "132339.350000", "132340.840000", "132342.330000", "132343.820000", "132345.310000", "132346.800000", "132348.290000", "132349.780000", "132351.270000", "132352.760000", "132354.250000", "132355.740000", "132357.230000", "132358.720000", "132400.210000", "132401.700000", "132403.190000", "132404.680000", "132406.170000", "132407.660000", "132409.150000", "132410.640000", "132412.130000", "132413.620000", "132415.110000", "132416.600000", "132418.090000", "132419.580000", "132421.070000", "132422.560000", "132424.050000", "132425.540000", "132427.030000", "132428.520000", "132430.010000", "132431.500000", "132432.990000", "132434.480000", "132435.970000", "132437.460000", "132438.950000", "132440.440000", "132441.930000", "132443.420000", "132444.910000", "132446.400000", "132447.890000", "132449.380000", "132450.870000", "132452.360000", "132453.850000", "132455.340000", "132456.830000", "132458.320000", "132459.810000", "132501.300000", "132502.790000", "132504.280000", "132505.770000", "132507.260000", "132508.750000", "132510.240000", "132511.730000", "132513.220000", "132514.710000", "132516.200000", "132517.690000", "132519.180000", "132520.670000", "132522.160000", "132523.650000", "132525.140000", "132526.630000", "132528.120000", "132529.610000", "132531.100000", "132532.590000", "132534.080000", "132535.570000", "132537.060000", "132538.550000", "132540.040000", "132541.530000", "132543.020000", "132544.510000", "132546.000000", "132547.490000", "132548.980000", "132550.470000", "132551.960000", "132553.450000", "132554.940000", "132556.430000", "132557.920000", "132559.410000", "132600.900000", "132602.390000", "132603.880000", "132605.370000", "132606.860000", "132608.350000", "132609.840000", "132611.330000", "132612.820000", "132614.310000", "132615.800000", "132617.290000", "132618.780000", "132620.270000", "132621.760000", "132623.250000", "132624.740000", "132626.230000", "132627.720000", "132629.210000", "132630.700000", "132632.190000", "132633.680000", "132635.170000", "132636.660000", "132638.150000", "132639.640000", "132641.130000", "132642.620000", "132644.110000", "132645.600000", "132647.090000", "132648.580000", "132650.070000", "132651.560000", "132653.050000", "132654.540000", "132656.030000", "132657.520000", "132659.010000", "132700.500000", "132701.990000", "132703.480000", "132704.970000", "132706.460000", "132707.950000", "132709.440000", "132710.930000", "132712.420000", "132713.910000", "132715.400000", "132716.890000", "132718.380000", "132719.870000", "132721.360000", "132722.850000", "132724.340000", "132725.830000", "132727.320000", "132728.810000", "132730.300000", "132731.790000", "132733.280000", "132734.770000", "132736.260000", "132737.750000", "132739.240000", "132740.730000", "132742.220000", "132743.710000", "132745.200000", "132746.690000", "132748.180000", "132749.670000", "132751.160000", "132752.650000", "132754.140000", "132755.630000", "132757.120000", "132758.610000", "132800.100000", "132801.590000", "132803.080000", "132804.570000", "132806.060000", "132807.550000", "132809.040000", "132810.530000", "132812.020000", "132813.510000", "132815.000000", "132816.490000", "132817.980000", "132819.470000", "132820.960000", "132822.450000", "132823.940000", "132825.430000", "132826.920000", "132828.410000", "132829.900000", "132831.390000", "132832.880000", "132834.370000", "132835.860000", "132837.350000", "132838.840000", "132840.330000", "132841.820000", "132843.310000", "132844.800000", "132846.290000", "132847.780000", "132849.270000", "132850.760000", "132852.250000", "132853.740000", "132855.230000"],
      "ContentTime": ["131840.895000", "131840.898000", "131840.901000", "131840.904000", "131840.907000", "131840.910000", "131840.913000", "131840.916000", "131840.919000", "131840.922000", "131840.925000", "131840.928000", "131840.940000", "131840.943000", "131840.946000", "131840.949000", "131840.952000", "131840.955000", "131840.958000", "131840.960000", "131840.964000", "131840.967000", "131840.969000", "131840.972000", "131840.975000", "131840.979000", "131840.981000", "131840.984000", "131840.987000", "131840.990000", "131840.993000", "131840.996000", "131841.000000", "131841.003000", "131900.864000", "131900.867000", "131900.870000", "131900.873000", "131900.876000", "131900.878000", "131900.881000", "131900.884000", "131900.887000", "131900.890000", "131900.893000", "131900.896000", "131900.899000", "131900.913000", "131900.916000", "131900.919000", "131900.921000", "131900.924000", "131900.927000", "131900.930000", "131920.864000", "131920.867000", "131920.870000", "131920.873000", "131920.875000", "131920.878000", "131920.881000", "131920.884000", "131920.887000", "131920.890000", "131920.893000", "131920.896000", "131920.898000", "131920.901000", "131920.904000", "131920.907000", "131920.910000", "131920.913000", "131920.916000", "131920.918000", "131940.864000", "131940.867000", "131940.870000", "131940.888000", "131940.891000", "131940.894000", "131940.897000", "131940.900000", "131940.903000", "131940.906000", "131940.908000", "131940.911000", "131940.914000", "131940.917000", "131940.920000", "131940.923000", "131940.926000", "131940.929000", "131940.931000", "131940.934000", "132000.864000", "132000.867000", "132000.870000", "132000.873000", "132000.876000", "132000.878000", "132000.881000", "132000.884000", "132000.887000", "132000.890000", "132000.893000", "132000.896000", "132000.899000", "132000.902000", "132000.904000", "132000.907000", "132000.910000", "132040.863000", "132040.866000", "132040.869000", "132040.872000", "132040.875000", "132040.878000", "132040.880000", "132040.883000", "132040.886000", "132040.889000", "132040.899000", "132040.902000", "132040.905000", "132040.908000", "132040.911000", "132040.914000", "132040.917000", "132040.919000", "132040.922000", "132040.925000", "132040.928000", "132040.931000", "132040.934000", "132040.937000", "132040.940000", "132040.943000", "132040.946000", "132120.864000", "132120.867000", "132120.870000", "132120.873000", "132120.876000", "132120.879000", "132120.881000", "132120.884000", "132120.887000", "132120.890000", "132120.893000", "132120.896000", "132120.899000", "132120.902000", "132120.905000", "132120.908000", "132120.910000", "132120.913000", "132120.916000", "132120.919000", "132120.922000", "132120.925000", "132120.928000", "132120.931000", "132120.934000", "132120.936000", "132120.939000", "132200.864000", "132200.867000", "132200.870000", "132200.878000", "132200.881000", "132200.883000", "132200.886000", "132200.889000", "132200.892000", "132200.895000", "132200.898000", "132200.901000", "132200.904000", "132200.907000", "132200.910000", "132200.913000", "132200.916000", "132200.919000", "132200.922000", "132200.925000", "132200.927000", "132200.930000", "132200.933000", "132200.936000", "132200.939000", "132200.942000", "132200.945000", "132240.864000", "132240.867000", "132240.870000", "132240.873000", "132240.876000", "132240.879000", "132240.881000", "132240.884000", "132240.887000", "132240.890000", "132240.893000", "132240.896000", "132240.899000", "132240.902000", "132240.905000", "132240.907000", "132240.910000", "132240.913000", "132240.916000", "132240.919000", "132240.922000", "132240.925000", "132240.928000", "132240.936000", "132240.939000", "132240.947000", "132240.950000", "132320.864000", "132320.867000", "132320.874000", "132320.877000", "132320.880000", "132320.883000", "132320.885000", "132320.888000", "132320.891000", "132320.894000", "132320.897000", "132320.900000", "132320.903000", "132320.906000", "132320.909000", "132320.911000", "132320.914000", "132320.917000", "132320.920000", "132320.923000", "132320.926000", "132320.929000", "132320.932000", "132320.935000", "132320.938000", "132320.941000", "132320.950000", "132400.864000", "132400.867000", "132400.870000", "132400.873000", "132400.876000", "132400.879000", "132400.881000", "132400.884000", "132400.887000", "132400.890000", "132400.893000", "132400.896000", "132400.899000", "132400.902000", "132400.905000", "132400.908000", "132400.910000", "132400.914000", "132400.917000", "132400.920000", "132400.923000", "132400.926000", "132400.929000", "132400.932000", "132400.935000", "132400.943000", "132440.864000", "132440.867000", "132440.892000", "132440.895000", "132440.898000", "132440.901000", "132440.904000", "132440.907000", "132440.910000", "132440.912000", "132440.915000", "132440.918000", "132440.921000", "132440.931000", "132440.934000", "132440.937000", "132440.940000", "132440.943000", "132440.945000", "132440.949000", "132440.951000", "132440.954000", "132440.957000", "132440.960000", "132440.963000", "132440.966000", "132440.969000", "132520.863000", "132520.866000", "132520.869000", "132520.872000", "132520.875000", "132520.878000", "132520.880000", "132520.883000", "132520.886000", "132520.889000", "132520.892000", "132520.895000", "132520.898000", "132520.901000", "132520.904000", "132520.907000", "132520.910000", "132520.912000", "132520.915000", "132520.918000", "132520.921000", "132520.924000", "132520.927000", "132520.930000", "132520.939000", "132520.942000", "132520.945000", "132600.864000", "132600.867000", "132600.870000", "132600.873000", "132600.876000", "132600.879000", "132600.882000", "132600.884000", "132600.887000", "132600.890000", "132600.893000", "132600.896000", "132600.899000", "132600.902000", "132600.905000", "132600.908000", "132600.910000", "132600.913000", "132600.916000", "132600.919000", "132600.922000", "132600.925000", "132600.935000", "132600.938000", "132600.941000", "132600.944000", "132600.947000", "132640.864000", "132640.867000", "132640.882000", "132640.885000", "132640.888000", "132640.891000", "132640.894000", "132640.897000", "132640.900000", "132640.903000", "132640.906000", "132640.909000", "132640.912000", "132640.914000", "132640.917000", "132640.920000", "132640.923000", "132640.926000", "132640.929000", "132640.932000", "132640.935000", "132640.937000", "132640.940000", "132640.943000", "132640.955000", "132640.957000", "132640.960000", "132720.864000", "132720.867000", "132720.870000", "132720.873000", "132720.876000", "132720.879000", "132720.881000", "132720.890000", "132720.893000", "132720.896000", "132720.899000", "132720.902000", "132720.905000", "132720.908000", "132720.911000", "132720.914000", "132720.917000", "132720.920000", "132720.922000", "132720.925000", "132720.928000", "132720.931000", "132720.934000", "132720.937000", "132720.940000", "132720.945000", "132720.948000", "132800.864000", "132800.867000", "132800.870000", "132800.873000", "132800.876000", "132800.879000", "132800.882000", "132800.885000", "132800.895000", "132800.898000", "132800.901000", "132800.904000", "132800.907000", "132800.910000", "132800.913000", "132800.916000", "132800.919000", "132800.922000", "132800.925000", "132800.928000", "132800.931000", "132800.934000", "132800.938000", "132800.940000", "132800.943000", "132800.946000", "132840.864000", "132840.867000", "132840.870000", "132840.873000", "132840.876000", "132840.879000", "132840.882000", "132840.884000", "132840.887000", "132840.897000", "132840.900000", "132840.919000", "132840.922000", "132840.925000", "132840.928000", "132840.931000", "132840.934000", "132840.937000", "132840.939000", "132840.942000", "132840.945000", "132840.948000", "132840.951000", "132840.954000", "132840.957000", "132840.960000", "132840.963000", "132857.601000", "132857.605000", "132857.608000", "132857.611000", "132857.613000", "132857.616000", "132857.619000", "132857.622000", "132857.625000", "132857.628000", "132857.632000", "132857.635000"],
