{
  "AcquisitionMatrixPE": 104,
  "AcquisitionNumber": 1,
  "AcquisitionTime": "10:53:25.045000",
  "BandwidthPerPixelPhaseEncode": 17.17,
  "BaseResolution": 104,
  "BodyPartExamined": "BRAIN",
  "CoilString": "HC1-7;NC1_2",
  "ConsistencyInfo": "N4_VE11C_LATEST_20160120",
  "ConversionSoftware": "dcm2niix",
  "ConversionSoftwareVersion": "v1.0.20190902",
  "DerivedVendorReportedEchoSpacing": 0.000560011,
  "DeviceSerialNumber": "167006",
  "DwellTime": 2.1e-06,
  "EchoTime": 0.037,
  "EchoTrainLength": 104,
  "EffectiveEchoSpacing": 0.000560011,
  "FlipAngle": 52,
  "ImageComments": "Unaliased_MB4_PE3_LB",
  "ImageOrientationPatientDICOM": [0.999827, 0.0185295, 0.00136214, -0.0151829, 0.857099, -0.514928],
  "ImageType": [
    "ORIGINAL",
    "PRIMARY",
    "M",
    "MB",
    "ND",
    "MOSAIC"
],
  "ImagingFrequency": 123.259,
  "InPlanePhaseEncodingDirectionDICOM": "COL",
  "InstitutionAddress": "Chemin_Queen-Mary_4565_Montreal_District_CA_H3W_1W5",
  "InstitutionName": "IUGM",
  "InstitutionalDepartmentName": "Department",
  "MRAcquisitionType": "2D",
  "MagneticFieldStrength": 3,
  "Manufacturer": "Siemens",
  "ManufacturersModelName": "Prisma_fit",
  "Modality": "MR",
  "MultibandAccelerationFactor": 4,
  "PartialFourier": 1,
  "PatientPosition": "HFS",
  "PercentPhaseFOV": 100,
  "PhaseEncodingDirection": "j",
  "PhaseEncodingSteps": 104,
  "PhaseResolution": 1,
  "PixelBandwidth": 2290,
  "ProcedureStepDescription": "video_friends",
  "ProtocolName": "func_task-friends-s02e24a",
  "PulseSequenceDetails": "%CustomerSeq%_cmrr_mbep2d_bold",
  "ReceiveCoilActiveElements": "HC1-7;NC1,2",
  "ReceiveCoilName": "HeadNeck_64",
  "ReconMatrixPE": 104,
  "RepetitionTime": 1.49,
  "SAR": 0.0347471,
  "ScanOptions": "FS",
  "ScanningSequence": "EP",
  "SequenceName": "epfid2d1_104",
  "SequenceVariant": "SK_SS",
  "SeriesDescription": "func_task-friends-s02e24a",
  "SeriesNumber": 21,
  "ShimSetting": [629, -7197, -8885, 416, -10, -219, 26, 11],
  "SliceThickness": 2,
  "SliceTiming": [0, 0.7825, 0.0975, 0.88, 0.195, 0.98, 0.2925, 1.0775, 0.39, 1.175, 0.49, 1.2725, 0.5875, 1.37, 0.685, 0, 0.7825, 0.0975, 0.88, 0.195, 0.98, 0.2925, 1.0775, 0.39, 1.175, 0.49, 1.2725, 0.5875, 1.37, 0.685, 0, 0.7825, 0.0975, 0.88, 0.195, 0.98, 0.2925, 1.0775, 0.39, 1.175, 0.49, 1.2725, 0.5875, 1.37, 0.685, 0, 0.7825, 0.0975, 0.88, 0.195, 0.98, 0.2925, 1.0775, 0.39, 1.175, 0.49, 1.2725, 0.5875, 1.37, 0.685],
  "SoftwareVersions": "syngo_MR_E11",
  "SpacingBetweenSlices": 2,
  "StationName": "MRC35049",
  "TaskName": "s02e24a",
  "TotalReadoutTime": 0.0576811,
  "TxRefAmp": 248.43,
  "WipMemBlock": "8a96bf75-e424-41c3-8473-e3f59aa0ed11||Sequence: R016 ve11c/master r/e634e98; Dec 19 2017 11:00:25 by eja",
  "dcmmeta_affine": [
    [-1.999654769897461, -0.030365711078047752, 0.021417727693915367, 104.10287475585938],
    [-0.037059057503938675, 1.7141977548599243, -1.029637098312378, -57.1518669128418],
    [0.002724279183894396, 1.0298562049865723, 1.714464545249939, -103.5579605102539],
    [0.0, 0.0, 0.0, 1.0]
],
  "dcmmeta_reorient_transform": [
    [0.0, -1.0, 0.0, 103.0],
    [1.0, 0.0, 0.0, 0.0],
    [0.0, 0.0, 1.0, 0.0],
    [0.0, 0.0, 0.0, 1.0]
],
  "dcmmeta_shape": [104, 104, 60, 469],
  "dcmmeta_slice_dim": 2,
  "dcmmeta_version": 0.6,
  "global": {
    "const": {
      "AcquisitionMatrix": [104, 0, 0, 104],
      "AngioFlag": "N",
      "BitsAllocated": 16,
      "BitsStored": 16,
      "BodyPartExamined": "BRAIN",
      "Columns": 832,
      "EchoNumbers": 1,
      "EchoTime": 37.0,
      "EchoTrainLength": 104,
      "FlipAngle": 52.0,
      "HighBit": 15,
      "ImageOrientationPatient": [0.99982738567131, 0.01852952879482, 0.00136213961029, -0.0151828555604, 0.85709890033482, -0.5149281075469],
      "ImagePositionPatient": [-817.79642789288, -756.86800112241, 376.39325434186],
      "ImageType": [
        "ORIGINAL",
        "PRIMARY",
        "M",
        "MB",
        "ND",
        "MOSAIC"
],
      "ImagedNucleus": "1H",
      "ImagingFrequency": 123.259027,
      "InPlanePhaseEncodingDirection": "COL",
      "MRAcquisitionType": "2D",
      "MagneticFieldStrength": 3.0,
      "Manufacturer": "SIEMENS",
      "ManufacturerModelName": "Prisma_fit",
      "Modality": "MR",
      "NumberOfAverages": 1.0,
      "NumberOfPhaseEncodingSteps": 104,
      "PercentPhaseFieldOfView": 100.0,
      "PercentSampling": 100.0,
      "PerformedProcedureStepStartTime": "093833.399000",
      "PhotometricInterpretation": "MONOCHROME2",
      "PixelBandwidth": 2290.0,
      "PixelRepresentation": 0,
      "PixelSpacing": [2.0, 2.0],
      "ProtocolName": "func_task-friends-s02e24a",
      "RepetitionTime": 1490.0,
      "Rows": 832,
      "SAR": 0.03474713637452,
      "SamplesPerPixel": 1,
      "ScanOptions": "FS",
      "ScanningSequence": "EP",
      "SequenceName": "epfid2d1_104",
      "SequenceVariant": [
        "SK",
        "SS"
],
      "SeriesDescription": "func_task-friends-s02e24a",
      "SeriesNumber": 21,
      "SeriesTime": "105442.735000",
      "SliceLocation": -58.235561688614,
      "SliceThickness": 2.0,
      "SmallestImagePixelValue": 0,
      "SoftwareVersions": "syngo MR E11",
      "SpacingBetweenSlices": 2.0000000229277,
      "SpecificCharacterSet": "ISO_IR 100",
      "StudyID": "1",
      "StudyTime": "093833.275000",
      "TransmitCoilName": "Body",
      "VariableFlipAngleFlag": "N",
      "WindowCenterWidthExplanation": "Algo1",
      "dBdt": 0.0},
    "slices": {}
  },
  "time": {
    "samples": {
      "AcquisitionNumber": [1, 2, 3, 4, 5, 6, 7, 8, 9, 10, 11, 12, 13, 14, 15, 16, 17, 18, 19, 20, 21, 22, 23, 24, 25, 26, 27, 28, 29, 30, 31, 32, 33, 34, 35, 36, 37, 38, 39, 40, 41, 42, 43, 44, 45, 46, 47, 48, 49, 50, 51, 52, 53, 54, 55, 56, 57, 58, 59, 60, 61, 62, 63, 64, 65, 66, 67, 68, 69, 70, 71, 72, 73, 74, 75, 76, 77, 78, 79, 80, 81, 82, 83, 84, 85, 86, 87, 88, 89, 90, 91, 92, 93, 94, 95, 96, 97, 98, 99, 100, 101, 102, 103, 104, 105, 106, 107, 108, 109, 110, 111, 112, 113, 114, 115, 116, 117, 118, 119, 120, 121, 122, 123, 124, 125, 126, 127, 128, 129, 130, 131, 132, 133, 134, 135, 136, 137, 138, 139, 140, 141, 142, 143, 144, 145, 146, 147, 148, 149, 150, 151, 152, 153, 154, 155, 156, 157, 158, 159, 160, 161, 162, 163, 164, 165, 166, 167, 168, 169, 170, 171, 172, 173, 174, 175, 176, 177, 178, 179, 180, 181, 182, 183, 184, 185, 186, 187, 188, 189, 190, 191, 192, 193, 194, 195, 196, 197, 198, 199, 200, 201, 202, 203, 204, 205, 206, 207, 208, 209, 210, 211, 212, 213, 214, 215, 216, 217, 218, 219, 220, 221, 222, 223, 224, 225, 226, 227, 228, 229, 230, 231, 232, 233, 234, 235, 236, 237, 238, 239, 240, 241, 242, 243, 244, 245, 246, 247, 248, 249, 250, 251, 252, 253, 254, 255, 256, 257, 258, 259, 260, 261, 262, 263, 264, 265, 266, 267, 268, 269, 270, 271, 272, 273, 274, 275, 276, 277, 278, 279, 280, 281, 282, 283, 284, 285, 286, 287, 288, 289, 290, 291, 292, 293, 294, 295, 296, 297, 298, 299, 300, 301, 302, 303, 304, 305, 306, 307, 308, 309, 310, 311, 312, 313, 314, 315, 316, 317, 318, 319, 320, 321, 322, 323, 324, 325, 326, 327, 328, 329, 330, 331, 332, 333, 334, 335, 336, 337, 338, 339, 340, 341, 342, 343, 344, 345, 346, 347, 348, 349, 350, 351, 352, 353, 354, 355, 356, 357, 358, 359, 360, 361, 362, 363, 364, 365, 366, 367, 368, 369, 370, 371, 372, 373, 374, 375, 376, 377, 378, 379, 380, 381, 382, 383, 384, 385, 386, 387, 388, 389, 390, 391, 392, 393, 394, 395, 396, 397, 398, 399, 400, 401, 402, 403, 404, 405, 406, 407, 408, 409, 410, 411, 412, 413, 414, 415, 416, 417, 418, 419, 420, 421, 422, 423, 424, 425, 426, 427, 428, 429, 430, 431, 432, 433, 434, 435, 436, 437, 438, 439, 440, 441, 442, 443, 444, 445, 446, 447, 448, 449, 450, 451, 452, 453, 454, 455, 456, 457, 458, 459, 460, 461, 462, 463, 464, 465, 466, 467, 468, 469],
      "AcquisitionTime": ["105325.045000", "105326.535000", "105328.025000", "105329.515000", "105331.005000", "105332.495000", "105333.985000", "105335.475000", "105336.965000", "105338.455000", "105339.945000", "105341.435000", "105342.925000", "105344.415000", "105345.905000", "105347.395000", "105348.885000", "105350.375000", "105351.865000", "105353.355000", "105354.845000", "105356.335000", "105357.825000", "105359.315000", "105400.805000", "105402.295000", "105403.785000", "105405.275000", "105406.765000", "105408.255000", "105409.745000", "105411.235000", "105412.725000", "105414.215000", "105415.705000", "105417.195000", "105418.685000", "105420.175000", "105421.665000", "105423.155000", "105424.645000", "105426.135000", "105427.625000", "105429.115000", "105430.605000", "105432.095000", "105433.585000", "105435.075000", "105436.565000", "105438.055000", "105439.545000", "105441.035000", "105442.525000", "105444.015000", "105445.505000", "105446.995000", "105448.485000", "105449.975000", "105451.465000", "105452.955000", "105454.445000", "105455.935000", "105457.425000", "105458.915000", "105500.405000", "105501.895000", "105503.385000", "105504.875000", "105506.365000", "105507.855000", "105509.345000", "105510.835000", "105512.325000", "105513.815000", "105515.305000", "105516.795000", "105518.285000", "105519.775000", "105521.265000", "105522.755000", "105524.245000", "105525.735000", "105527.225000", "105528.715000", "105530.205000", "105531.695000", "105533.185000", "105534.675000", "105536.165000", "105537.655000", "105539.145000", "105540.635000", "105542.125000", "105543.615000", "105545.105000", "105546.595000", "105548.085000", "105549.575000", "105551.065000", "105552.555000", "105554.045000", "105555.535000", "105557.025000", "105558.515000", "105600.005000", "105601.495000", "105602.985000", "105604.475000", "105605.965000", "105607.455000", "105608.945000", "105610.435000", "105611.925000", "105613.415000", "105614.905000", "105616.395000", "105617.885000", "105619.375000", "105620.865000", "105622.355000", "105623.845000", "105625.335000", "105626.825000", "105628.315000", "105629.805000", "105631.295000", "105632.785000", "105634.275000", "105635.765000", "105637.255000", "105638.745000", "105640.235000", "105641.725000", "105643.215000", "105644.705000", "105646.195000", "105647.685000", "105649.175000", "105650.665000", "105652.155000", "105653.645000", "105655.135000", "105656.625000", "105658.115000", "105659.605000", "105701.095000", "105702.585000", "105704.075000", "105705.565000", "105707.055000", "105708.545000", "105710.035000", "105711.525000", "105713.015000", "105714.505000", "105715.995000", "105717.485000", "105718.975000", "105720.465000", "105721.955000", "105723.445000", "105724.935000", "105726.425000", "105727.915000", "105729.405000", "105730.895000", "105732.385000", "105733.875000", "105735.365000", "105736.855000", "105738.345000", "105739.835000", "105741.325000", "105742.815000", "105744.305000", "105745.795000", "105747.285000", "105748.775000", "105750.265000", "105751.755000", "105753.245000", "105754.735000", "105756.225000", "105757.715000", "105759.205000", "105800.695000", "105802.185000", "105803.675000", "105805.165000", "105806.655000", "105808.145000", "105809.635000", "105811.125000", "105812.615000", "105814.105000", "105815.595000", "105817.085000", "105818.575000", "105820.065000", "105821.555000", "105823.045000", "105824.535000", "105826.025000", "105827.515000", "105829.005000", "105830.495000", "105831.985000", "105833.475000", "105834.965000", "105836.455000", "105837.945000", "105839.435000", "105840.925000", "105842.415000", "105843.905000", "105845.395000", "105846.885000", "105848.375000", "105849.865000", "105851.355000", "105852.845000", "105854.335000", "105855.825000", "105857.315000", "105858.805000", "105900.295000", "105901.785000", "105903.275000", "105904.765000", "105906.255000", "105907.745000", "105909.235000", "105910.725000", "105912.215000", "105913.705000", "105915.195000", "105916.685000", "105918.175000", "105919.665000", "105921.155000", "105922.645000", "105924.135000", "105925.625000", "105927.115000", "105928.605000", "105930.095000", "105931.585000", "105933.075000", "105934.565000", "105936.055000", "105937.545000", "105939.035000", "105940.525000", "105942.015000", "105943.505000", "105944.995000", "105946.485000", "105947.975000", "105949.465000", "105950.955000", "105952.445000", "105953.935000", "105955.425000", "105956.915000", "105958.405000", "105959.895000", "110001.385000", "110002.875000", "110004.365000", "110005.855000", "110007.345000", "110008.835000", "110010.325000", "110011.815000", "110013.305000", "110014.795000", "110016.285000", "110017.775000", "110019.265000", "110020.755000", "110022.245000", "110023.735000", "110025.225000", "110026.715000", "110028.205000", "110029.695000", "110031.185000", "110032.675000", "110034.165000", "110035.655000", "110037.145000", "110038.635000", "110040.125000", "110041.615000", "110043.105000", "110044.595000", "110046.085000", "110047.575000", "110049.065000", "110050.555000", "110052.045000", "110053.535000", "110055.025000", "110056.515000", "110058.005000", "110059.495000", "110100.985000", "110102.475000", "110103.965000", "110105.455000", "110106.945000", "110108.435000", "110109.925000", "110111.415000", "110112.905000", "110114.395000", "110115.885000", "110117.375000", "110118.865000", "110120.355000", "110121.845000", "110123.335000", "110124.825000", "110126.315000", "110127.805000", "110129.295000", "110130.785000", "110132.275000", "110133.765000", "110135.255000", "110136.745000", "110138.235000", "110139.725000", "110141.215000", "110142.705000", "110144.195000", "110145.685000", "110147.175000", "110148.665000", "110150.155000", "110151.645000", "110153.135000", "110154.625000", "110156.115000", "110157.605000", "110159.095000", "110200.585000", "110202.075000", "110203.565000", "110205.055000", "110206.545000", "110208.035000", "110209.525000", "110211.015000", "110212.505000", "110213.995000", "110215.485000", "110216.975000", "110218.465000", "110219.955000", "110221.445000", "110222.935000", "110224.425000", "110225.915000", "110227.405000", "110228.895000", "110230.385000", "110231.875000", "110233.365000", "110234.855000", "110236.345000", "110237.835000", "110239.325000", "110240.815000", "110242.305000", "110243.795000", "110245.285000", "110246.775000", "110248.265000", "110249.755000", "110251.245000", "110252.735000", "110254.225000", "110255.715000", "110257.205000", "110258.695000", "110300.185000", "110301.675000", "110303.165000", "110304.655000", "110306.145000", "110307.635000", "110309.125000", "110310.615000", "110312.105000", "110313.595000", "110315.085000", "110316.575000", "110318.065000", "110319.555000", "110321.045000", "110322.535000", "110324.025000", "110325.515000", "110327.005000", "110328.495000", "110329.985000", "110331.475000", "110332.965000", "110334.455000", "110335.945000", "110337.435000", "110338.925000", "110340.415000", "110341.905000", "110343.395000", "110344.885000", "110346.375000", "110347.865000", "110349.355000", "110350.845000", "110352.335000", "110353.825000", "110355.315000", "110356.805000", "110358.295000", "110359.785000", "110401.275000", "110402.765000", "110404.255000", "110405.745000", "110407.235000", "110408.725000", "110410.215000", "110411.705000", "110413.195000", "110414.685000", "110416.175000", "110417.665000", "110419.155000", "110420.645000", "110422.135000", "110423.625000", "110425.115000", "110426.605000", "110428.095000", "110429.585000", "110431.075000", "110432.565000", "110434.055000", "110435.545000", "110437.035000", "110438.525000", "110440.015000", "110441.505000", "110442.995000", "110444.485000", "110445.975000", "110447.465000", "110448.955000", "110450.445000", "110451.935000", "110453.425000", "110454.915000", "110456.405000", "110457.895000", "110459.385000", "110500.875000", "110502.365000"],
      "ContentTime": ["105442.738000", "105442.745000", "105442.747000", "105442.750000", "105442.753000", "105442.756000", "105442.759000", "105442.777000", "105442.780000", "105442.783000", "105442.786000", "105442.789000", "105442.792000", "105442.795000", "105442.797000", "105442.800000", "105442.803000", "105442.806000", "105442.809000", "105442.812000", "105442.815000", "105442.818000", "105442.820000", "105442.823000", "105442.826000", "105502.707000", "105502.710000", "105502.713000", "105502.715000", "105502.718000", "105502.728000", "105502.731000", "105502.734000", "105502.736000", "105502.739000", "105502.742000", "105502.745000", "105502.748000", "105502.751000", "105502.754000", "105502.757000", "105502.759000", "105502.762000", "105502.765000", "105502.768000", "105522.707000", "105522.710000", "105522.712000", "105522.715000", "105522.718000", "105522.721000", "105522.731000", "105522.733000", "105522.736000", "105522.739000", "105522.742000", "105522.745000", "105522.748000", "105522.751000", "105522.754000", "105522.757000", "105522.759000", "105522.762000", "105522.765000", "105522.772000", "105522.775000", "105542.707000", "105542.710000", "105542.713000", "105542.716000", "105542.719000", "105542.722000", "105542.724000", "105542.727000", "105542.733000", "105542.736000", "105542.739000", "105542.741000", "105542.744000", "105542.747000", "105542.750000", "105542.753000", "105542.756000", "105542.759000", "105542.762000", "105542.764000", "105622.706000", "105622.709000", "105622.718000", "105622.721000", "105622.724000", "105622.727000", "105622.730000", "105622.733000", "105622.735000", "105622.738000", "105622.741000", "105622.744000", "105622.747000", "105622.750000", "105622.753000", "105622.755000", "105622.758000", "105622.761000", "105622.764000", "105622.767000", "105622.770000", "105622.772000", "105622.775000", "105622.778000", "105622.781000", "105622.784000", "105622.787000", "105622.790000", "105622.793000", "105622.796000", "105622.798000", "105622.801000", "105622.804000", "105702.707000", "105702.710000", "105702.713000", "105702.716000", "105702.718000", "105702.721000", "105702.724000", "105702.727000", "105702.730000", "105702.732000", "105702.735000", "105702.738000", "105702.741000", "105702.744000", "105702.747000", "105702.750000", "105702.752000", "105702.756000", "105702.760000", "105702.764000", "105702.767000", "105702.770000", "105702.774000", "105702.777000", "105702.780000", "105702.783000", "105722.708000", "105722.711000", "105722.714000", "105722.717000", "105722.720000", "105722.722000", "105722.725000", "105722.728000", "105722.731000", "105722.734000", "105722.736000", "105722.739000", "105722.742000", "105722.745000", "105802.707000", "105802.710000", "105802.713000", "105802.716000", "105802.718000", "105802.721000", "105802.724000", "105802.727000", "105802.730000", "105802.733000", "105802.735000", "105802.738000", "105802.741000", "105802.744000", "105802.747000", "105802.750000", "105802.753000", "105802.756000", "105802.758000", "105802.761000", "105802.764000", "105802.767000", "105802.770000", "105802.772000", "105802.775000", "105802.778000", "105802.781000", "105842.706000", "105842.723000", "105842.726000", "105842.729000", "105842.732000", "105842.734000", "105842.737000", "105842.740000", "105842.743000", "105842.746000", "105842.748000", "105842.751000", "105842.754000", "105842.757000", "105842.760000", "105842.763000", "105842.766000", "105842.768000", "105842.771000", "105842.774000", "105842.777000", "105842.780000", "105842.783000", "105842.786000", "105842.788000", "105842.791000", "105842.794000", "105922.707000", "105922.710000", "105922.713000", "105922.716000", "105922.718000", "105922.721000", "105922.724000", "105922.727000", "105922.730000", "105922.733000", "105922.744000", "105922.747000", "105922.750000", "105922.753000", "105922.756000", "105922.759000", "105922.762000", "105922.764000", "105922.767000", "105922.770000", "105922.773000", "105922.776000", "105922.778000", "105922.781000", "105922.784000", "105922.879000", "110002.707000", "110002.710000", "110002.713000", "110002.716000", "110002.719000", "110002.721000", "110002.724000", "110002.727000", "110002.730000", "110002.733000", "110002.735000", "110002.738000", "110002.741000", "110002.744000", "110002.747000", "110002.750000", "110002.753000", "110002.763000", "110002.765000", "110002.768000", "110002.771000", "110002.774000", "110002.777000", "110002.780000", "110002.782000", "110002.786000", "110002.789000", "110042.707000", "110042.710000", "110042.713000", "110042.721000", "110042.724000", "110042.727000", "110042.730000", "110042.733000", "110042.736000", "110042.738000", "110042.741000", "110042.744000", "110042.747000", "110042.750000", "110042.753000", "110042.756000", "110042.759000", "110042.762000", "110042.764000", "110042.767000", "110042.770000", "110042.773000", "110042.776000", "110042.778000", "110042.781000", "110042.784000", "110042.787000", "110122.707000", "110122.710000", "110122.713000", "110122.716000", "110122.718000", "110122.721000", "110122.724000", "110122.727000", "110122.730000", "110122.733000", "110122.735000", "110122.738000", "110122.741000", "110122.744000", "110122.747000", "110122.750000", "110122.752000", "110122.755000", "110122.758000", "110122.761000", "110122.764000", "110122.767000", "110122.769000", "110122.772000", "110122.775000", "110122.778000", "110122.781000", "110202.707000", "110202.710000", "110202.713000", "110202.716000", "110202.718000", "110202.721000", "110202.724000", "110202.727000", "110202.730000", "110202.732000", "110202.735000", "110202.738000", "110202.741000", "110202.744000", "110202.747000", "110202.749000", "110202.752000", "110202.755000", "110202.758000", "110202.761000", "110202.764000", "110202.766000", "110202.769000", "110202.772000", "110202.775000", "110202.778000", "110202.780000", "110242.707000", "110242.710000", "110242.713000", "110242.716000", "110242.719000", "110242.721000", "110242.724000", "110242.727000", "110242.730000", "110242.733000", "110242.736000", "110242.738000", "110242.741000", "110242.744000", "110242.762000", "110242.765000", "110242.768000", "110242.771000", "110242.773000", "110242.776000", "110242.779000", "110242.782000", "110242.785000", "110242.788000", "110242.791000", "110242.793000", "110242.796000", "110322.706000", "110322.710000", "110322.713000", "110322.716000", "110322.719000", "110322.722000", "110322.725000", "110322.728000", "110322.730000", "110322.733000", "110322.736000", "110322.739000", "110322.742000", "110322.745000", "110322.748000", "110322.751000", "110322.754000", "110322.756000", "110322.759000", "110322.762000", "110322.765000", "110322.768000", "110322.771000", "110322.774000", "110322.776000", "110322.779000", "110402.707000", "110402.710000", "110402.713000", "110402.716000", "110402.718000", "110402.721000", "110402.724000", "110402.727000", "110402.730000", "110402.733000", "110402.735000", "110402.738000", "110402.741000", "110402.744000", "110402.747000", "110402.750000", "110402.753000", "110402.756000", "110402.758000", "110402.761000", "110402.764000", "110402.767000", "110402.770000", "110402.773000", "110402.776000", "110402.779000", "110402.782000", "110442.707000", "110442.710000", "110442.713000", "110442.716000", "110442.718000", "110442.721000", "110442.724000", "110442.727000", "110442.730000", "110442.732000", "110442.735000", "110442.738000", "110442.741000", "110442.744000", "110442.747000", "110442.749000", "110442.752000", "110442.755000", "110442.758000", "110442.761000", "110442.764000", "110442.766000", "110442.769000", "110442.772000", "110442.775000", "110442.778000", "110442.781000", "110504.103000", "110504.107000", "110504.110000", "110504.113000", "110504.115000", "110504.118000", "110504.121000", "110504.124000", "110504.127000", "110504.130000", "110504.133000", "110504.135000", "110504.138000", "110504.141000", "110504.144000"],
