{
  "AcquisitionMatrixPE": 104,
  "AcquisitionNumber": 1,
  "AcquisitionTime": "15:36:37.970000",
  "BandwidthPerPixelPhaseEncode": 17.17,
  "BaseResolution": 104,
  "BodyPartExamined": "BRAIN",
  "CoilString": "HC1-7;NC1_2",
  "ConsistencyInfo": "N4_VE11C_LATEST_20160120",
  "ConversionSoftware": "dcm2niix",
  "ConversionSoftwareVersion": "v1.0.20190720  (JP2:OpenJPEG) GCC7.3.0",
  "DerivedVendorReportedEchoSpacing": 0.000560011,
  "DeviceSerialNumber": "167006",
  "DwellTime": 2.1e-06,
  "EchoTime": 0.037,
  "EchoTrainLength": 104,
  "EffectiveEchoSpacing": 0.000560011,
  "FlipAngle": 52,
  "ImageComments": "Unaliased_MB4_PE3_LB",
  "ImageOrientationPatientDICOM": [0.99773, -0.0650028, 0.0175967, 0.0667939, 0.921934, -0.381544],
  "ImageType": [
    "ORIGINAL",
    "PRIMARY",
    "M",
    "MB",
    "ND",
    "MOSAIC"
],
  "ImagingFrequency": 123.259,
  "InPlanePhaseEncodingDirectionDICOM": "COL",
  "InstitutionAddress": "Chemin_Queen-Mary_4565_Montreal_District_CA_H3W_1W5",
  "InstitutionName": "IUGM",
  "InstitutionalDepartmentName": "Department",
  "MRAcquisitionType": "2D",
  "MagneticFieldStrength": 3,
  "Manufacturer": "Siemens",
  "ManufacturersModelName": "Prisma_fit",
  "Modality": "MR",
  "MultibandAccelerationFactor": 4,
  "PartialFourier": 1,
  "PatientPosition": "HFS",
  "PercentPhaseFOV": 100,
  "PhaseEncodingDirection": "j",
  "PhaseEncodingSteps": 104,
  "PhaseResolution": 1,
  "PixelBandwidth": 2290,
  "ProcedureStepDescription": "video_friends",
  "ProtocolName": "func_task-s02e18a",
  "PulseSequenceDetails": "%CustomerSeq%_cmrr_mbep2d_bold",
  "ReceiveCoilActiveElements": "HC1-7;NC1,2",
  "ReceiveCoilName": "HeadNeck_64",
  "ReconMatrixPE": 104,
  "RepetitionTime": 1.49,
  "SAR": 0.0293695,
  "ScanOptions": "FS",
  "ScanningSequence": "EP",
  "SequenceName": "epfid2d1_104",
  "SequenceVariant": "SK_SS",
  "SeriesDescription": "func_task-s02e18a",
  "SeriesNumber": 17,
  "ShimSetting": [639, -7248, -8877, 625, 17, -268, -107, -2],
  "SliceThickness": 2,
  "SliceTiming": [0, 0.785, 0.0975, 0.8825, 0.1975, 0.98, 0.295, 1.0775, 0.3925, 1.1775, 0.49, 1.275, 0.5875, 1.3725, 0.6875, 0, 0.785, 0.0975, 0.8825, 0.1975, 0.98, 0.295, 1.0775, 0.3925, 1.1775, 0.49, 1.275, 0.5875, 1.3725, 0.6875, 0, 0.785, 0.0975, 0.8825, 0.1975, 0.98, 0.295, 1.0775, 0.3925, 1.1775, 0.49, 1.275, 0.5875, 1.3725, 0.6875, 0, 0.785, 0.0975, 0.8825, 0.1975, 0.98, 0.295, 1.0775, 0.3925, 1.1775, 0.49, 1.275, 0.5875, 1.3725, 0.6875],
  "SoftwareVersions": "syngo_MR_E11",
  "SpacingBetweenSlices": 2,
  "StationName": "MRC35049",
  "TaskName": "friends",
  "TotalReadoutTime": 0.0576811,
  "TxRefAmp": 219.066,
  "WipMemBlock": "f8638e3d-fd83-4b18-9a68-599d887d6927||Sequence: R016 ve11c/master r/e634e98; Dec 19 2017 11:00:25 by eja",
  "dcmmeta_affine": [
    [-1.995459794998169, 0.13358774781227112, -0.01715683750808239, 95.7365493774414],
    [0.1300056129693985, 1.8438681364059448, -0.7637073397636414, -76.70930480957031],
    [0.03519349917769432, 0.7630889415740967, 1.8483659029006958, -84.23368072509766],
    [0.0, 0.0, 0.0, 1.0]
],
  "dcmmeta_reorient_transform": [
    [0.0, -1.0, 0.0, 103.0],
    [1.0, 0.0, 0.0, 0.0],
    [0.0, 0.0, 1.0, 0.0],
    [0.0, 0.0, 0.0, 1.0]
],
  "dcmmeta_shape": [104, 104, 60, 460],
  "dcmmeta_slice_dim": 2,
  "dcmmeta_version": 0.6,
  "global": {
    "const": {
      "AcquisitionMatrix": [104, 0, 0, 104],
      "AngioFlag": "N",
      "BitsAllocated": 16,
      "BitsStored": 16,
      "BodyPartExamined": "BRAIN",
      "Columns": 832,
      "EchoNumbers": 1,
      "EchoTime": 37.0,
      "EchoTrainLength": 104,
      "FlipAngle": 52.0,
      "HighBit": 15,
      "ImageOrientationPatient": [0.9977299179183, -0.0650028099079, 0.01759674955265, 0.06679387406296, 0.92193405577304, -0.3815444603104],
      "ImagePositionPatient": [-884.46940953813, -737.05505530311, 259.31841136606],
      "ImageType": [
        "ORIGINAL",
        "PRIMARY",
        "M",
        "MB",
        "ND",
        "MOSAIC"
],
      "ImagedNucleus": "1H",
      "ImagingFrequency": 123.259448,
      "InPlanePhaseEncodingDirection": "COL",
      "MRAcquisitionType": "2D",
      "MagneticFieldStrength": 3.0,
      "Manufacturer": "SIEMENS",
      "ManufacturerModelName": "Prisma_fit",
      "Modality": "MR",
      "NumberOfAverages": 1.0,
      "NumberOfPhaseEncodingSteps": 104,
      "PercentPhaseFieldOfView": 100.0,
      "PercentSampling": 100.0,
      "PerformedProcedureStepStartTime": "143047.892000",
      "PhotometricInterpretation": "MONOCHROME2",
      "PixelBandwidth": 2290.0,
      "PixelRepresentation": 0,
      "PixelSpacing": [2.0, 2.0],
      "ProtocolName": "func_task-s02e18a",
      "RepetitionTime": 1490.0,
      "Rows": 832,
      "SAR": 0.02936947321538,
      "SamplesPerPixel": 1,
      "ScanOptions": "FS",
      "ScanningSequence": "EP",
      "SequenceName": "epfid2d1_104",
      "SequenceVariant": [
        "SK",
        "SS"
],
      "SeriesDescription": "func_task-s02e18a",
      "SeriesNumber": 17,
      "SeriesTime": "153807.906000",
      "SliceLocation": -49.37687134841,
      "SliceThickness": 2.0,
      "SmallestImagePixelValue": 0,
      "SoftwareVersions": "syngo MR E11",
      "SpacingBetweenSlices": 1.9999999511368,
      "SpecificCharacterSet": "ISO_IR 100",
      "StudyID": "1",
      "StudyTime": "143047.804000",
      "TransmitCoilName": "Body",
      "VariableFlipAngleFlag": "N",
      "WindowCenterWidthExplanation": "Algo1",
      "dBdt": 0.0},
    "slices": {}
  },
  "time": {
    "samples": {
      "AcquisitionNumber": [1, 2, 3, 4, 5, 6, 7, 8, 9, 10, 11, 12, 13, 14, 15, 16, 17, 18, 19, 20, 21, 22, 23, 24, 25, 26, 27, 28, 29, 30, 31, 32, 33, 34, 35, 36, 37, 38, 39, 40, 41, 42, 43, 44, 45, 46, 47, 48, 49, 50, 51, 52, 53, 54, 55, 56, 57, 58, 59, 60, 61, 62, 63, 64, 65, 66, 67, 68, 69, 70, 71, 72, 73, 74, 75, 76, 77, 78, 79, 80, 81, 82, 83, 84, 85, 86, 87, 88, 89, 90, 91, 92, 93, 94, 95, 96, 97, 98, 99, 100, 101, 102, 103, 104, 105, 106, 107, 108, 109, 110, 111, 112, 113, 114, 115, 116, 117, 118, 119, 120, 121, 122, 123, 124, 125, 126, 127, 128, 129, 130, 131, 132, 133, 134, 135, 136, 137, 138, 139, 140, 141, 142, 143, 144, 145, 146, 147, 148, 149, 150, 151, 152, 153, 154, 155, 156, 157, 158, 159, 160, 161, 162, 163, 164, 165, 166, 167, 168, 169, 170, 171, 172, 173, 174, 175, 176, 177, 178, 179, 180, 181, 182, 183, 184, 185, 186, 187, 188, 189, 190, 191, 192, 193, 194, 195, 196, 197, 198, 199, 200, 201, 202, 203, 204, 205, 206, 207, 208, 209, 210, 211, 212, 213, 214, 215, 216, 217, 218, 219, 220, 221, 222, 223, 224, 225, 226, 227, 228, 229, 230, 231, 232, 233, 234, 235, 236, 237, 238, 239, 240, 241, 242, 243, 244, 245, 246, 247, 248, 249, 250, 251, 252, 253, 254, 255, 256, 257, 258, 259, 260, 261, 262, 263, 264, 265, 266, 267, 268, 269, 270, 271, 272, 273, 274, 275, 276, 277, 278, 279, 280, 281, 282, 283, 284, 285, 286, 287, 288, 289, 290, 291, 292, 293, 294, 295, 296, 297, 298, 299, 300, 301, 302, 303, 304, 305, 306, 307, 308, 309, 310, 311, 312, 313, 314, 315, 316, 317, 318, 319, 320, 321, 322, 323, 324, 325, 326, 327, 328, 329, 330, 331, 332, 333, 334, 335, 336, 337, 338, 339, 340, 341, 342, 343, 344, 345, 346, 347, 348, 349, 350, 351, 352, 353, 354, 355, 356, 357, 358, 359, 360, 361, 362, 363, 364, 365, 366, 367, 368, 369, 370, 371, 372, 373, 374, 375, 376, 377, 378, 379, 380, 381, 382, 383, 384, 385, 386, 387, 388, 389, 390, 391, 392, 393, 394, 395, 396, 397, 398, 399, 400, 401, 402, 403, 404, 405, 406, 407, 408, 409, 410, 411, 412, 413, 414, 415, 416, 417, 418, 419, 420, 421, 422, 423, 424, 425, 426, 427, 428, 429, 430, 431, 432, 433, 434, 435, 436, 437, 438, 439, 440, 441, 442, 443, 444, 445, 446, 447, 448, 449, 450, 451, 452, 453, 454, 455, 456, 457, 458, 459, 460],
      "AcquisitionTime": ["153637.970000", "153639.460000", "153640.950000", "153642.440000", "153643.930000", "153645.420000", "153646.910000", "153648.400000", "153649.890000", "153651.380000", "153652.870000", "153654.360000", "153655.850000", "153657.340000", "153658.830000", "153700.320000", "153701.810000", "153703.300000", "153704.790000", "153706.280000", "153707.770000", "153709.260000", "153710.750000", "153712.240000", "153713.730000", "153715.220000", "153716.710000", "153718.200000", "153719.690000", "153721.180000", "153722.670000", "153724.160000", "153725.650000", "153727.140000", "153728.630000", "153730.120000", "153731.610000", "153733.100000", "153734.590000", "153736.080000", "153737.570000", "153739.060000", "153740.550000", "153742.040000", "153743.530000", "153745.020000", "153746.510000", "153748.000000", "153749.490000", "153750.980000", "153752.470000", "153753.960000", "153755.450000", "153756.940000", "153758.430000", "153759.920000", "153801.410000", "153802.900000", "153804.390000", "153805.880000", "153807.370000", "153808.860000", "153810.350000", "153811.840000", "153813.330000", "153814.820000", "153816.310000", "153817.800000", "153819.290000", "153820.780000", "153822.270000", "153823.760000", "153825.250000", "153826.740000", "153828.230000", "153829.720000", "153831.210000", "153832.700000", "153834.190000", "153835.680000", "153837.170000", "153838.660000", "153840.150000", "153841.640000", "153843.130000", "153844.620000", "153846.110000", "153847.600000", "153849.090000", "153850.580000", "153852.070000", "153853.560000", "153855.050000", "153856.540000", "153858.030000", "153859.520000", "153901.010000", "153902.500000", "153903.990000", "153905.480000", "153906.970000", "153908.460000", "153909.950000", "153911.440000", "153912.930000", "153914.420000", "153915.910000", "153917.400000", "153918.890000", "153920.380000", "153921.870000", "153923.360000", "153924.850000", "153926.340000", "153927.830000", "153929.320000", "153930.810000", "153932.300000", "153933.790000", "153935.280000", "153936.770000", "153938.260000", "153939.750000", "153941.240000", "153942.730000", "153944.220000", "153945.710000", "153947.200000", "153948.690000", "153950.180000", "153951.670000", "153953.160000", "153954.650000", "153956.140000", "153957.630000", "153959.120000", "154000.610000", "154002.100000", "154003.590000", "154005.080000", "154006.570000", "154008.060000", "154009.550000", "154011.040000", "154012.530000", "154014.020000", "154015.510000", "154017.000000", "154018.490000", "154019.980000", "154021.470000", "154022.960000", "154024.450000", "154025.940000", "154027.430000", "154028.920000", "154030.410000", "154031.900000", "154033.390000", "154034.880000", "154036.370000", "154037.860000", "154039.350000", "154040.840000", "154042.330000", "154043.820000", "154045.310000", "154046.800000", "154048.290000", "154049.780000", "154051.270000", "154052.760000", "154054.250000", "154055.740000", "154057.230000", "154058.720000", "154100.210000", "154101.700000", "154103.190000", "154104.680000", "154106.170000", "154107.660000", "154109.150000", "154110.640000", "154112.130000", "154113.620000", "154115.110000", "154116.600000", "154118.090000", "154119.580000", "154121.070000", "154122.560000", "154124.050000", "154125.540000", "154127.030000", "154128.520000", "154130.010000", "154131.500000", "154132.990000", "154134.480000", "154135.970000", "154137.460000", "154138.950000", "154140.440000", "154141.930000", "154143.420000", "154144.910000", "154146.400000", "154147.890000", "154149.380000", "154150.870000", "154152.360000", "154153.850000", "154155.340000", "154156.830000", "154158.320000", "154159.810000", "154201.300000", "154202.790000", "154204.280000", "154205.770000", "154207.260000", "154208.750000", "154210.240000", "154211.730000", "154213.220000", "154214.710000", "154216.200000", "154217.690000", "154219.180000", "154220.670000", "154222.160000", "154223.650000", "154225.140000", "154226.630000", "154228.120000", "154229.610000", "154231.100000", "154232.590000", "154234.080000", "154235.570000", "154237.060000", "154238.550000", "154240.040000", "154241.530000", "154243.020000", "154244.510000", "154246.000000", "154247.490000", "154248.980000", "154250.470000", "154251.960000", "154253.450000", "154254.940000", "154256.430000", "154257.920000", "154259.410000", "154300.900000", "154302.390000", "154303.880000", "154305.370000", "154306.860000", "154308.350000", "154309.840000", "154311.330000", "154312.820000", "154314.310000", "154315.800000", "154317.290000", "154318.780000", "154320.270000", "154321.760000", "154323.250000", "154324.740000", "154326.230000", "154327.720000", "154329.210000", "154330.700000", "154332.190000", "154333.680000", "154335.170000", "154336.660000", "154338.150000", "154339.640000", "154341.130000", "154342.620000", "154344.110000", "154345.600000", "154347.090000", "154348.580000", "154350.070000", "154351.560000", "154353.050000", "154354.540000", "154356.030000", "154357.520000", "154359.010000", "154400.500000", "154401.990000", "154403.480000", "154404.970000", "154406.460000", "154407.950000", "154409.440000", "154410.930000", "154412.420000", "154413.910000", "154415.400000", "154416.890000", "154418.380000", "154419.870000", "154421.360000", "154422.850000", "154424.340000", "154425.830000", "154427.320000", "154428.810000", "154430.300000", "154431.790000", "154433.280000", "154434.770000", "154436.260000", "154437.750000", "154439.240000", "154440.730000", "154442.220000", "154443.710000", "154445.200000", "154446.690000", "154448.180000", "154449.670000", "154451.160000", "154452.650000", "154454.140000", "154455.630000", "154457.120000", "154458.610000", "154500.100000", "154501.590000", "154503.080000", "154504.570000", "154506.060000", "154507.550000", "154509.040000", "154510.530000", "154512.020000", "154513.510000", "154515.000000", "154516.490000", "154517.980000", "154519.470000", "154520.960000", "154522.450000", "154523.940000", "154525.430000", "154526.920000", "154528.410000", "154529.900000", "154531.390000", "154532.880000", "154534.370000", "154535.860000", "154537.350000", "154538.840000", "154540.330000", "154541.820000", "154543.310000", "154544.800000", "154546.290000", "154547.780000", "154549.270000", "154550.760000", "154552.250000", "154553.740000", "154555.230000", "154556.720000", "154558.210000", "154559.700000", "154601.190000", "154602.680000", "154604.170000", "154605.660000", "154607.150000", "154608.640000", "154610.130000", "154611.620000", "154613.110000", "154614.600000", "154616.090000", "154617.580000", "154619.070000", "154620.560000", "154622.050000", "154623.540000", "154625.030000", "154626.520000", "154628.010000", "154629.500000", "154630.990000", "154632.480000", "154633.970000", "154635.460000", "154636.950000", "154638.440000", "154639.930000", "154641.420000", "154642.910000", "154644.400000", "154645.890000", "154647.380000", "154648.870000", "154650.360000", "154651.850000", "154653.340000", "154654.830000", "154656.320000", "154657.810000", "154659.300000", "154700.790000", "154702.280000", "154703.770000", "154705.260000", "154706.750000", "154708.240000", "154709.730000", "154711.220000", "154712.710000", "154714.200000", "154715.690000", "154717.180000", "154718.670000", "154720.160000", "154721.650000", "154723.140000", "154724.630000", "154726.120000", "154727.610000", "154729.100000", "154730.590000", "154732.080000", "154733.570000", "154735.060000", "154736.550000", "154738.040000", "154739.530000", "154741.020000", "154742.510000", "154744.000000", "154745.490000", "154746.980000", "154748.470000", "154749.960000", "154751.450000", "154752.940000", "154754.430000", "154755.920000", "154757.410000", "154758.900000", "154800.390000", "154801.880000"],
      "ContentTime": ["153807.908000", "153807.912000", "153807.914000", "153807.917000", "153807.920000", "153807.923000", "153807.934000", "153807.937000", "153807.940000", "153807.943000", "153807.946000", "153807.948000", "153807.951000", "153807.954000", "153807.957000", "153807.960000", "153807.962000", "153807.965000", "153807.968000", "153807.971000", "153807.974000", "153807.976000", "153807.979000", "153807.982000", "153807.990000", "153807.992000", "153807.995000", "153807.998000", "153808.002000", "153808.005000", "153808.007000", "153808.010000", "153808.013000", "153808.016000", "153808.018000", "153808.021000", "153827.877000", "153827.880000", "153827.883000", "153827.886000", "153827.888000", "153827.891000", "153827.894000", "153827.897000", "153827.900000", "153827.903000", "153827.905000", "153827.908000", "153827.911000", "153827.914000", "153827.916000", "153827.919000", "153827.923000", "153827.925000", "153827.928000", "153827.931000", "153847.877000", "153847.880000", "153847.882000", "153847.885000", "153847.888000", "153847.891000", "153847.894000", "153847.896000", "153847.899000", "153847.902000", "153847.905000", "153847.908000", "153847.910000", "153847.913000", "153847.916000", "153847.919000", "153847.921000", "153847.924000", "153847.927000", "153847.930000", "153847.933000", "153907.877000", "153907.880000", "153907.883000", "153907.885000", "153907.888000", "153907.891000", "153907.894000", "153907.896000", "153907.899000", "153907.902000", "153907.905000", "153907.908000", "153907.910000", "153907.913000", "153907.916000", "153907.919000", "153907.922000", "153907.924000", "153907.927000", "153907.930000", "153947.876000", "153947.879000", "153947.882000", "153947.884000", "153947.887000", "153947.890000", "153947.893000", "153947.895000", "153947.898000", "153947.901000", "153947.904000", "153947.907000", "153947.910000", "153947.913000", "153947.915000", "153947.918000", "153947.921000", "153947.924000", "153947.927000", "153947.929000", "153947.932000", "153947.935000", "153947.938000", "153947.941000", "153947.943000", "153947.946000", "153947.949000", "153947.952000", "153947.955000", "153947.957000", "154027.876000", "154027.879000", "154027.882000", "154027.884000", "154027.887000", "154027.890000", "154027.893000", "154027.896000", "154027.898000", "154027.901000", "154027.904000", "154027.907000", "154027.910000", "154027.912000", "154027.915000", "154027.918000", "154027.921000", "154027.924000", "154027.926000", "154027.929000", "154027.932000", "154027.935000", "154027.938000", "154027.940000", "154027.943000", "154027.946000", "154027.949000", "154107.877000", "154107.880000", "154107.883000", "154107.886000", "154107.888000", "154107.891000", "154107.894000", "154107.897000", "154107.900000", "154107.917000", "154107.920000", "154107.922000", "154107.925000", "154107.928000", "154107.931000", "154107.934000", "154107.936000", "154107.939000", "154107.942000", "154107.945000", "154107.948000", "154107.950000", "154107.953000", "154107.956000", "154107.959000", "154107.962000", "154147.877000", "154147.880000", "154147.883000", "154147.885000", "154147.888000", "154147.891000", "154147.894000", "154147.897000", "154147.899000", "154147.902000", "154147.905000", "154147.908000", "154147.911000", "154147.913000", "154147.916000", "154147.919000", "154147.922000", "154147.925000", "154147.927000", "154147.930000", "154147.933000", "154147.936000", "154147.939000", "154147.941000", "154147.944000", "154147.947000", "154147.950000", "154207.876000", "154207.879000", "154207.882000", "154207.884000", "154207.887000", "154207.890000", "154207.893000", "154207.896000", "154207.899000", "154207.901000", "154207.904000", "154207.907000", "154207.910000", "154207.913000", "154247.876000", "154247.879000", "154247.882000", "154247.884000", "154247.887000", "154247.890000", "154247.893000", "154247.896000", "154247.899000", "154247.901000", "154247.904000", "154247.907000", "154247.910000", "154247.913000", "154247.915000", "154247.918000", "154247.921000", "154247.924000", "154247.927000", "154247.929000", "154247.932000", "154247.935000", "154247.938000", "154247.941000", "154247.943000", "154247.946000", "154247.949000", "154327.877000", "154327.880000", "154327.883000", "154327.885000", "154327.888000", "154327.891000", "154327.894000", "154327.897000", "154327.900000", "154327.902000", "154327.905000", "154327.908000", "154327.911000", "154327.914000", "154327.916000", "154327.919000", "154327.922000", "154327.925000", "154327.928000", "154327.937000", "154327.940000", "154327.942000", "154327.945000", "154327.948000", "154327.951000", "154327.954000", "154407.876000", "154407.879000", "154407.882000", "154407.884000", "154407.887000", "154407.895000", "154407.897000", "154407.900000", "154407.903000", "154407.906000", "154407.909000", "154407.912000", "154407.915000", "154407.918000", "154407.920000", "154407.923000", "154407.926000", "154407.929000", "154407.932000", "154407.934000", "154407.937000", "154407.940000", "154407.943000", "154407.946000", "154407.948000", "154407.951000", "154407.954000", "154447.876000", "154447.879000", "154447.882000", "154447.884000", "154447.887000", "154447.890000", "154447.893000", "154447.896000", "154447.899000", "154447.901000", "154447.904000", "154447.907000", "154447.910000", "154447.913000", "154447.915000", "154447.918000", "154447.921000", "154447.924000", "154447.927000", "154447.929000", "154447.932000", "154447.935000", "154447.938000", "154447.941000", "154447.943000", "154447.946000", "154447.949000", "154527.877000", "154527.880000", "154527.883000", "154527.885000", "154527.888000", "154527.891000", "154527.894000", "154527.897000", "154527.900000", "154527.902000", "154527.905000", "154527.908000", "154527.911000", "154527.914000", "154527.916000", "154527.919000", "154527.922000", "154527.925000", "154527.928000", "154527.930000", "154527.933000", "154527.936000", "154527.939000", "154527.942000", "154527.944000", "154527.947000", "154527.950000", "154607.877000", "154607.880000", "154607.883000", "154607.885000", "154607.888000", "154607.891000", "154607.894000", "154607.897000", "154607.900000", "154607.902000", "154607.905000", "154607.908000", "154607.911000", "154607.914000", "154607.916000", "154607.919000", "154607.922000", "154607.925000", "154607.928000", "154607.930000", "154607.933000", "154607.936000", "154607.939000", "154607.942000", "154607.945000", "154607.947000", "154607.950000", "154647.877000", "154647.880000", "154647.882000", "154647.885000", "154647.888000", "154647.891000", "154647.894000", "154647.897000", "154647.899000", "154647.902000", "154647.905000", "154647.908000", "154647.911000", "154647.913000", "154647.916000", "154647.919000", "154647.922000", "154647.925000", "154647.928000", "154647.931000", "154647.933000", "154647.936000", "154647.939000", "154647.942000", "154647.945000", "154647.947000", "154647.950000", "154727.876000", "154727.879000", "154727.882000", "154727.885000", "154727.887000", "154727.890000", "154727.893000", "154727.896000", "154727.899000", "154727.902000", "154727.904000", "154727.907000", "154727.910000", "154727.913000", "154727.916000", "154727.919000", "154727.921000", "154727.924000", "154727.927000", "154727.930000", "154727.933000", "154727.936000", "154727.938000", "154727.941000", "154727.944000", "154727.947000", "154727.949000", "154803.650000", "154803.653000", "154803.656000", "154803.659000", "154803.662000", "154803.665000", "154803.681000", "154803.685000", "154803.687000", "154803.690000", "154803.693000", "154803.696000", "154803.699000", "154803.702000", "154803.705000", "154803.708000", "154803.711000", "154803.714000", "154803.717000", "154803.720000", "154803.723000", "154803.726000", "154803.728000", "154803.731000"],
