{
  "AcquisitionMatrixPE": 104,
  "AcquisitionNumber": 1,
  "AcquisitionTime": "14:59:0.462500",
  "BandwidthPerPixelPhaseEncode": 17.17,
  "BaseResolution": 104,
  "BodyPartExamined": "BRAIN",
  "CoilString": "HC1-7;NC1_2",
  "ConsistencyInfo": "N4_VE11C_LATEST_20160120",
  "ConversionSoftware": "dcm2niix",
  "ConversionSoftwareVersion": "v1.0.20190720  (JP2:OpenJPEG) GCC7.3.0",
  "DerivedVendorReportedEchoSpacing": 0.000560011,
  "DeviceSerialNumber": "167006",
  "DwellTime": 2.1e-06,
  "EchoTime": 0.037,
  "EchoTrainLength": 104,
  "EffectiveEchoSpacing": 0.000560011,
  "FlipAngle": 52,
  "ImageComments": "Unaliased_MB4_PE3_LB",
  "ImageOrientationPatientDICOM": [0.99773, -0.0650028, 0.0175967, 0.0667939, 0.921934, -0.381544],
  "ImageType": [
    "ORIGINAL",
    "PRIMARY",
    "M",
    "MB",
    "ND",
    "MOSAIC"
],
  "ImagingFrequency": 123.259,
  "InPlanePhaseEncodingDirectionDICOM": "COL",
  "InstitutionAddress": "Chemin_Queen-Mary_4565_Montreal_District_CA_H3W_1W5",
  "InstitutionName": "IUGM",
  "InstitutionalDepartmentName": "Department",
  "MRAcquisitionType": "2D",
  "MagneticFieldStrength": 3,
  "Manufacturer": "Siemens",
  "ManufacturersModelName": "Prisma_fit",
  "Modality": "MR",
  "MultibandAccelerationFactor": 4,
  "PartialFourier": 1,
  "PatientPosition": "HFS",
  "PercentPhaseFOV": 100,
  "PhaseEncodingDirection": "j",
  "PhaseEncodingSteps": 104,
  "PhaseResolution": 1,
  "PixelBandwidth": 2290,
  "ProcedureStepDescription": "video_friends",
  "ProtocolName": "func_task-s02e16b",
  "PulseSequenceDetails": "%CustomerSeq%_cmrr_mbep2d_bold",
  "ReceiveCoilActiveElements": "HC1-7;NC1,2",
  "ReceiveCoilName": "HeadNeck_64",
  "ReconMatrixPE": 104,
  "RepetitionTime": 1.49,
  "SAR": 0.0293742,
  "ScanOptions": "FS",
  "ScanningSequence": "EP",
  "SequenceName": "epfid2d1_104",
  "SequenceVariant": "SK_SS",
  "SeriesDescription": "func_task-s02e16b",
  "SeriesNumber": 11,
  "ShimSetting": [639, -7248, -8877, 625, 17, -268, -107, -2],
  "SliceThickness": 2,
  "SliceTiming": [0, 0.7825, 0.0975, 0.8825, 0.195, 0.98, 0.2925, 1.0775, 0.3925, 1.175, 0.49, 1.2725, 0.5875, 1.3725, 0.685, 0, 0.7825, 0.0975, 0.8825, 0.195, 0.98, 0.2925, 1.0775, 0.3925, 1.175, 0.49, 1.2725, 0.5875, 1.3725, 0.685, 0, 0.7825, 0.0975, 0.8825, 0.195, 0.98, 0.2925, 1.0775, 0.3925, 1.175, 0.49, 1.2725, 0.5875, 1.3725, 0.685, 0, 0.7825, 0.0975, 0.8825, 0.195, 0.98, 0.2925, 1.0775, 0.3925, 1.175, 0.49, 1.2725, 0.5875, 1.3725, 0.685],
  "SoftwareVersions": "syngo_MR_E11",
  "SpacingBetweenSlices": 2,
  "StationName": "MRC35049",
  "TaskName": "friends",
  "TotalReadoutTime": 0.0576811,
  "TxRefAmp": 219.066,
  "WipMemBlock": "dc002c56-b7e7-4a28-a824-e984c1942a98||Sequence: R016 ve11c/master r/e634e98; Dec 19 2017 11:00:25 by eja",
  "dcmmeta_affine": [
    [-1.995459794998169, 0.13358774781227112, -0.01715683750808239, 95.7365493774414],
    [0.1300056129693985, 1.8438681364059448, -0.7637073397636414, -76.70930480957031],
    [0.03519349917769432, 0.7630889415740967, 1.8483659029006958, -84.23368072509766],
    [0.0, 0.0, 0.0, 1.0]
],
  "dcmmeta_reorient_transform": [
    [0.0, -1.0, 0.0, 103.0],
    [1.0, 0.0, 0.0, 0.0],
    [0.0, 0.0, 1.0, 0.0],
    [0.0, 0.0, 0.0, 1.0]
],
  "dcmmeta_shape": [104, 104, 60, 478],
  "dcmmeta_slice_dim": 2,
  "dcmmeta_version": 0.6,
  "global": {
    "const": {
      "AcquisitionMatrix": [104, 0, 0, 104],
      "AngioFlag": "N",
      "BitsAllocated": 16,
      "BitsStored": 16,
      "BodyPartExamined": "BRAIN",
      "Columns": 832,
      "EchoNumbers": 1,
      "EchoTime": 37.0,
      "EchoTrainLength": 104,
      "FlipAngle": 52.0,
      "HighBit": 15,
      "ImageOrientationPatient": [0.9977299179183, -0.0650028099079, 0.01759674955265, 0.06679387406296, 0.92193405577304, -0.3815444603104],
      "ImagePositionPatient": [-884.46940953813, -737.05505530311, 259.31841136606],
      "ImageType": [
        "ORIGINAL",
        "PRIMARY",
        "M",
        "MB",
        "ND",
        "MOSAIC"
],
      "ImagedNucleus": "1H",
      "ImagingFrequency": 123.259434,
      "InPlanePhaseEncodingDirection": "COL",
      "MRAcquisitionType": "2D",
      "MagneticFieldStrength": 3.0,
      "Manufacturer": "SIEMENS",
      "ManufacturerModelName": "Prisma_fit",
      "Modality": "MR",
      "NumberOfAverages": 1.0,
      "NumberOfPhaseEncodingSteps": 104,
      "PercentPhaseFieldOfView": 100.0,
      "PercentSampling": 100.0,
      "PerformedProcedureStepStartTime": "143047.892000",
      "PhotometricInterpretation": "MONOCHROME2",
      "PixelBandwidth": 2290.0,
      "PixelRepresentation": 0,
      "PixelSpacing": [2.0, 2.0],
      "ProtocolName": "func_task-s02e16b",
      "RepetitionTime": 1490.0,
      "Rows": 832,
      "SAR": 0.02937422606402,
      "SamplesPerPixel": 1,
      "ScanOptions": "FS",
      "ScanningSequence": "EP",
      "SequenceName": "epfid2d1_104",
      "SequenceVariant": [
        "SK",
        "SS"
],
      "SeriesDescription": "func_task-s02e16b",
      "SeriesNumber": 11,
      "SeriesTime": "150027.901000",
      "SliceLocation": -49.37687134841,
      "SliceThickness": 2.0,
      "SmallestImagePixelValue": 0,
      "SoftwareVersions": "syngo MR E11",
      "SpacingBetweenSlices": 1.9999999511368,
      "SpecificCharacterSet": "ISO_IR 100",
      "StudyID": "1",
      "StudyTime": "143047.804000",
      "TransmitCoilName": "Body",
      "VariableFlipAngleFlag": "N",
      "WindowCenterWidthExplanation": "Algo1",
      "dBdt": 0.0},
    "slices": {}
  },
  "time": {
    "samples": {
      "AcquisitionNumber": [1, 2, 3, 4, 5, 6, 7, 8, 9, 10, 11, 12, 13, 14, 15, 16, 17, 18, 19, 20, 21, 22, 23, 24, 25, 26, 27, 28, 29, 30, 31, 32, 33, 34, 35, 36, 37, 38, 39, 40, 41, 42, 43, 44, 45, 46, 47, 48, 49, 50, 51, 52, 53, 54, 55, 56, 57, 58, 59, 60, 61, 62, 63, 64, 65, 66, 67, 68, 69, 70, 71, 72, 73, 74, 75, 76, 77, 78, 79, 80, 81, 82, 83, 84, 85, 86, 87, 88, 89, 90, 91, 92, 93, 94, 95, 96, 97, 98, 99, 100, 101, 102, 103, 104, 105, 106, 107, 108, 109, 110, 111, 112, 113, 114, 115, 116, 117, 118, 119, 120, 121, 122, 123, 124, 125, 126, 127, 128, 129, 130, 131, 132, 133, 134, 135, 136, 137, 138, 139, 140, 141, 142, 143, 144, 145, 146, 147, 148, 149, 150, 151, 152, 153, 154, 155, 156, 157, 158, 159, 160, 161, 162, 163, 164, 165, 166, 167, 168, 169, 170, 171, 172, 173, 174, 175, 176, 177, 178, 179, 180, 181, 182, 183, 184, 185, 186, 187, 188, 189, 190, 191, 192, 193, 194, 195, 196, 197, 198, 199, 200, 201, 202, 203, 204, 205, 206, 207, 208, 209, 210, 211, 212, 213, 214, 215, 216, 217, 218, 219, 220, 221, 222, 223, 224, 225, 226, 227, 228, 229, 230, 231, 232, 233, 234, 235, 236, 237, 238, 239, 240, 241, 242, 243, 244, 245, 246, 247, 248, 249, 250, 251, 252, 253, 254, 255, 256, 257, 258, 259, 260, 261, 262, 263, 264, 265, 266, 267, 268, 269, 270, 271, 272, 273, 274, 275, 276, 277, 278, 279, 280, 281, 282, 283, 284, 285, 286, 287, 288, 289, 290, 291, 292, 293, 294, 295, 296, 297, 298, 299, 300, 301, 302, 303, 304, 305, 306, 307, 308, 309, 310, 311, 312, 313, 314, 315, 316, 317, 318, 319, 320, 321, 322, 323, 324, 325, 326, 327, 328, 329, 330, 331, 332, 333, 334, 335, 336, 337, 338, 339, 340, 341, 342, 343, 344, 345, 346, 347, 348, 349, 350, 351, 352, 353, 354, 355, 356, 357, 358, 359, 360, 361, 362, 363, 364, 365, 366, 367, 368, 369, 370, 371, 372, 373, 374, 375, 376, 377, 378, 379, 380, 381, 382, 383, 384, 385, 386, 387, 388, 389, 390, 391, 392, 393, 394, 395, 396, 397, 398, 399, 400, 401, 402, 403, 404, 405, 406, 407, 408, 409, 410, 411, 412, 413, 414, 415, 416, 417, 418, 419, 420, 421, 422, 423, 424, 425, 426, 427, 428, 429, 430, 431, 432, 433, 434, 435, 436, 437, 438, 439, 440, 441, 442, 443, 444, 445, 446, 447, 448, 449, 450, 451, 452, 453, 454, 455, 456, 457, 458, 459, 460, 461, 462, 463, 464, 465, 466, 467, 468, 469, 470, 471, 472, 473, 474, 475, 476, 477, 478],
      "AcquisitionTime": ["145900.462500", "145901.952500", "145903.442500", "145904.932500", "145906.422500", "145907.912500", "145909.402500", "145910.892500", "145912.382500", "145913.872500", "145915.362500", "145916.852500", "145918.342500", "145919.832500", "145921.322500", "145922.812500", "145924.302500", "145925.792500", "145927.282500", "145928.772500", "145930.262500", "145931.752500", "145933.242500", "145934.732500", "145936.222500", "145937.712500", "145939.202500", "145940.692500", "145942.182500", "145943.672500", "145945.162500", "145946.652500", "145948.142500", "145949.632500", "145951.122500", "145952.612500", "145954.102500", "145955.592500", "145957.082500", "145958.572500", "150000.062500", "150001.552500", "150003.042500", "150004.532500", "150006.022500", "150007.512500", "150009.002500", "150010.492500", "150011.982500", "150013.472500", "150014.962500", "150016.452500", "150017.942500", "150019.432500", "150020.922500", "150022.412500", "150023.902500", "150025.392500", "150026.882500", "150028.372500", "150029.862500", "150031.352500", "150032.842500", "150034.332500", "150035.822500", "150037.312500", "150038.802500", "150040.292500", "150041.782500", "150043.272500", "150044.762500", "150046.252500", "150047.742500", "150049.232500", "150050.722500", "150052.212500", "150053.702500", "150055.192500", "150056.682500", "150058.172500", "150059.662500", "150101.152500", "150102.642500", "150104.132500", "150105.622500", "150107.112500", "150108.602500", "150110.092500", "150111.582500", "150113.072500", "150114.562500", "150116.052500", "150117.542500", "150119.032500", "150120.522500", "150122.012500", "150123.502500", "150124.992500", "150126.482500", "150127.972500", "150129.462500", "150130.952500", "150132.442500", "150133.932500", "150135.422500", "150136.912500", "150138.402500", "150139.892500", "150141.382500", "150142.872500", "150144.362500", "150145.852500", "150147.342500", "150148.832500", "150150.322500", "150151.812500", "150153.302500", "150154.792500", "150156.282500", "150157.772500", "150159.262500", "150200.752500", "150202.242500", "150203.732500", "150205.222500", "150206.712500", "150208.202500", "150209.692500", "150211.182500", "150212.672500", "150214.162500", "150215.652500", "150217.142500", "150218.632500", "150220.122500", "150221.612500", "150223.102500", "150224.592500", "150226.082500", "150227.572500", "150229.062500", "150230.552500", "150232.042500", "150233.532500", "150235.022500", "150236.512500", "150238.002500", "150239.492500", "150240.982500", "150242.472500", "150243.962500", "150245.452500", "150246.942500", "150248.432500", "150249.922500", "150251.412500", "150252.902500", "150254.392500", "150255.882500", "150257.372500", "150258.862500", "150300.352500", "150301.842500", "150303.332500", "150304.822500", "150306.312500", "150307.802500", "150309.292500", "150310.782500", "150312.272500", "150313.762500", "150315.252500", "150316.742500", "150318.232500", "150319.722500", "150321.212500", "150322.702500", "150324.192500", "150325.682500", "150327.172500", "150328.662500", "150330.152500", "150331.642500", "150333.132500", "150334.622500", "150336.112500", "150337.602500", "150339.092500", "150340.582500", "150342.072500", "150343.562500", "150345.052500", "150346.542500", "150348.032500", "150349.522500", "150351.012500", "150352.502500", "150353.992500", "150355.482500", "150356.972500", "150358.462500", "150359.952500", "150401.442500", "150402.932500", "150404.422500", "150405.912500", "150407.402500", "150408.892500", "150410.382500", "150411.872500", "150413.362500", "150414.852500", "150416.342500", "150417.832500", "150419.322500", "150420.812500", "150422.302500", "150423.792500", "150425.282500", "150426.772500", "150428.262500", "150429.752500", "150431.242500", "150432.732500", "150434.222500", "150435.712500", "150437.202500", "150438.692500", "150440.182500", "150441.672500", "150443.162500", "150444.652500", "150446.142500", "150447.632500", "150449.122500", "150450.612500", "150452.102500", "150453.592500", "150455.082500", "150456.572500", "150458.062500", "150459.552500", "150501.042500", "150502.532500", "150504.022500", "150505.512500", "150507.002500", "150508.492500", "150509.982500", "150511.472500", "150512.962500", "150514.452500", "150515.942500", "150517.432500", "150518.922500", "150520.412500", "150521.902500", "150523.392500", "150524.882500", "150526.372500", "150527.862500", "150529.352500", "150530.842500", "150532.332500", "150533.822500", "150535.312500", "150536.802500", "150538.292500", "150539.782500", "150541.272500", "150542.762500", "150544.252500", "150545.742500", "150547.232500", "150548.722500", "150550.212500", "150551.702500", "150553.192500", "150554.682500", "150556.172500", "150557.662500", "150559.152500", "150600.642500", "150602.132500", "150603.622500", "150605.112500", "150606.602500", "150608.092500", "150609.582500", "150611.072500", "150612.562500", "150614.052500", "150615.542500", "150617.032500", "150618.522500", "150620.012500", "150621.502500", "150622.992500", "150624.482500", "150625.972500", "150627.462500", "150628.952500", "150630.442500", "150631.932500", "150633.422500", "150634.912500", "150636.402500", "150637.892500", "150639.382500", "150640.872500", "150642.362500", "150643.852500", "150645.342500", "150646.832500", "150648.322500", "150649.812500", "150651.302500", "150652.792500", "150654.282500", "150655.772500", "150657.262500", "150658.752500", "150700.242500", "150701.732500", "150703.222500", "150704.712500", "150706.202500", "150707.692500", "150709.182500", "150710.672500", "150712.162500", "150713.652500", "150715.142500", "150716.632500", "150718.122500", "150719.612500", "150721.102500", "150722.592500", "150724.082500", "150725.572500", "150727.062500", "150728.552500", "150730.042500", "150731.532500", "150733.022500", "150734.512500", "150736.002500", "150737.492500", "150738.982500", "150740.472500", "150741.962500", "150743.452500", "150744.942500", "150746.432500", "150747.922500", "150749.412500", "150750.902500", "150752.392500", "150753.882500", "150755.372500", "150756.862500", "150758.352500", "150759.842500", "150801.332500", "150802.822500", "150804.312500", "150805.802500", "150807.292500", "150808.782500", "150810.272500", "150811.762500", "150813.252500", "150814.742500", "150816.232500", "150817.722500", "150819.212500", "150820.702500", "150822.192500", "150823.682500", "150825.172500", "150826.662500", "150828.152500", "150829.642500", "150831.132500", "150832.622500", "150834.112500", "150835.602500", "150837.092500", "150838.582500", "150840.072500", "150841.562500", "150843.052500", "150844.542500", "150846.032500", "150847.522500", "150849.012500", "150850.502500", "150851.992500", "150853.482500", "150854.972500", "150856.462500", "150857.952500", "150859.442500", "150900.932500", "150902.422500", "150903.912500", "150905.402500", "150906.892500", "150908.382500", "150909.872500", "150911.362500", "150912.852500", "150914.342500", "150915.832500", "150917.322500", "150918.812500", "150920.302500", "150921.792500", "150923.282500", "150924.772500", "150926.262500", "150927.752500", "150929.242500", "150930.732500", "150932.222500", "150933.712500", "150935.202500", "150936.692500", "150938.182500", "150939.672500", "150941.162500", "150942.652500", "150944.142500", "150945.632500", "150947.122500", "150948.612500", "150950.102500", "150951.592500", "150953.082500", "150954.572500", "150956.062500", "150957.552500", "150959.042500", "151000.532500", "151002.022500", "151003.512500", "151005.002500", "151006.492500", "151007.982500", "151009.472500", "151010.962500", "151012.452500", "151013.942500", "151015.432500", "151016.922500", "151018.412500", "151019.902500", "151021.392500", "151022.882500", "151024.372500", "151025.862500", "151027.352500", "151028.842500", "151030.332500", "151031.822500", "151033.312500", "151034.802500", "151036.292500", "151037.782500", "151039.272500", "151040.762500", "151042.252500", "151043.742500", "151045.232500", "151046.722500", "151048.212500", "151049.702500", "151051.192500"],
      "ContentTime": ["150027.904000", "150027.907000", "150027.910000", "150027.913000", "150027.916000", "150027.918000", "150027.921000", "150027.924000", "150027.927000", "150027.929000", "150027.932000", "150027.935000", "150027.944000", "150027.947000", "150027.950000", "150027.952000", "150027.955000", "150027.958000", "150027.961000", "150027.964000", "150027.966000", "150027.969000", "150027.972000", "150027.975000", "150027.978000", "150027.987000", "150027.990000", "150027.993000", "150027.996000", "150027.998000", "150028.002000", "150028.005000", "150028.008000", "150047.876000", "150047.879000", "150047.882000", "150047.891000", "150047.894000", "150047.897000", "150047.899000", "150047.902000", "150047.905000", "150047.908000", "150047.911000", "150047.913000", "150047.916000", "150047.919000", "150047.922000", "150047.924000", "150047.927000", "150047.930000", "150047.933000", "150047.936000", "150107.876000", "150107.879000", "150107.881000", "150107.884000", "150107.887000", "150107.890000", "150107.893000", "150107.902000", "150107.905000", "150107.908000", "150107.911000", "150107.914000", "150107.916000", "150107.919000", "150107.922000", "150107.925000", "150107.928000", "150107.930000", "150107.933000", "150107.936000", "150127.877000", "150127.880000", "150127.882000", "150127.885000", "150127.888000", "150127.891000", "150127.894000", "150127.896000", "150127.899000", "150127.902000", "150127.905000", "150127.908000", "150127.910000", "150127.913000", "150127.916000", "150127.919000", "150127.922000", "150127.925000", "150127.927000", "150127.930000", "150207.877000", "150207.880000", "150207.883000", "150207.885000", "150207.888000", "150207.891000", "150207.894000", "150207.896000", "150207.899000", "150207.902000", "150207.905000", "150207.908000", "150207.910000", "150207.913000", "150207.916000", "150207.919000", "150207.922000", "150207.925000", "150207.927000", "150207.930000", "150207.933000", "150207.936000", "150207.938000", "150207.941000", "150207.944000", "150207.947000", "150207.950000", "150207.952000", "150207.955000", "150207.958000", "150207.961000", "150207.964000", "150247.876000", "150247.879000", "150247.882000", "150247.884000", "150247.887000", "150247.890000", "150247.893000", "150247.896000", "150247.899000", "150247.902000", "150247.905000", "150247.908000", "150247.911000", "150247.914000", "150247.916000", "150247.919000", "150247.922000", "150247.925000", "150247.928000", "150247.931000", "150247.933000", "150247.936000", "150247.939000", "150247.942000", "150247.945000", "150247.947000", "150247.950000", "150327.876000", "150327.879000", "150327.882000", "150327.884000", "150327.887000", "150327.890000", "150327.893000", "150327.895000", "150327.898000", "150327.901000", "150327.904000", "150327.907000", "150327.910000", "150327.913000", "150327.916000", "150327.918000", "150327.921000", "150327.924000", "150327.927000", "150327.930000", "150327.933000", "150327.935000", "150327.939000", "150327.941000", "150327.944000", "150327.947000", "150327.950000", "150407.877000", "150407.880000", "150407.883000", "150407.887000", "150407.889000", "150407.892000", "150407.895000", "150407.898000", "150407.901000", "150407.904000", "150407.906000", "150407.910000", "150407.912000", "150407.915000", "150407.918000", "150407.921000", "150407.924000", "150407.927000", "150407.929000", "150407.932000", "150407.935000", "150407.938000", "150407.941000", "150407.944000", "150407.947000", "150407.950000", "150447.876000", "150447.879000", "150447.882000", "150447.884000", "150447.887000", "150447.890000", "150447.893000", "150447.896000", "150447.899000", "150447.901000", "150447.904000", "150447.907000", "150447.910000", "150447.913000", "150447.916000", "150447.918000", "150447.921000", "150447.924000", "150447.927000", "150447.930000", "150447.932000", "150447.935000", "150447.953000", "150447.956000", "150447.958000", "150447.961000", "150447.964000", "150527.876000", "150527.879000", "150527.882000", "150527.884000", "150527.887000", "150527.890000", "150527.893000", "150527.896000", "150527.899000", "150527.901000", "150527.904000", "150527.907000", "150527.910000", "150527.913000", "150527.916000", "150527.919000", "150527.922000", "150527.924000", "150527.927000", "150527.930000", "150527.933000", "150527.936000", "150527.938000", "150527.941000", "150527.944000", "150527.947000", "150527.950000", "150607.877000", "150607.880000", "150607.883000", "150607.885000", "150607.888000", "150607.891000", "150607.894000", "150607.897000", "150607.900000", "150607.902000", "150607.905000", "150607.908000", "150607.911000", "150607.914000", "150607.916000", "150607.919000", "150607.922000", "150607.925000", "150607.927000", "150607.930000", "150607.933000", "150607.936000", "150607.939000", "150607.941000", "150607.944000", "150607.947000", "150607.950000", "150647.877000", "150647.880000", "150647.883000", "150647.885000", "150647.888000", "150647.891000", "150647.894000", "150647.897000", "150647.900000", "150647.903000", "150647.905000", "150647.908000", "150647.911000", "150647.914000", "150647.917000", "150647.919000", "150647.922000", "150647.925000", "150647.928000", "150647.931000", "150647.934000", "150647.936000", "150647.939000", "150647.942000", "150647.945000", "150647.948000", "150647.950000", "150727.876000", "150727.879000", "150727.882000", "150727.884000", "150727.887000", "150727.890000", "150727.893000", "150727.896000", "150727.899000", "150727.902000", "150727.905000", "150727.907000", "150727.910000", "150727.913000", "150727.916000", "150727.919000", "150727.921000", "150727.924000", "150727.927000", "150727.930000", "150727.933000", "150727.935000", "150727.938000", "150727.941000", "150727.944000", "150727.947000", "150727.949000", "150807.876000", "150807.879000", "150807.882000", "150807.884000", "150807.887000", "150807.890000", "150807.893000", "150807.896000", "150807.899000", "150807.902000", "150807.905000", "150807.907000", "150807.910000", "150807.913000", "150807.916000", "150807.918000", "150807.921000", "150807.924000", "150807.927000", "150807.930000", "150807.932000", "150807.935000", "150807.938000", "150807.941000", "150807.944000", "150807.946000", "150847.877000", "150847.880000", "150847.883000", "150847.886000", "150847.888000", "150847.891000", "150847.894000", "150847.897000", "150847.900000", "150847.902000", "150847.905000", "150847.908000", "150847.911000", "150847.914000", "150847.917000", "150847.919000", "150847.922000", "150847.925000", "150847.928000", "150847.930000", "150847.933000", "150847.936000", "150847.939000", "150847.942000", "150847.945000", "150847.947000", "150847.950000", "150927.876000", "150927.879000", "150927.882000", "150927.884000", "150927.887000", "150927.890000", "150927.893000", "150927.896000", "150927.899000", "150927.919000", "150927.922000", "150927.924000", "150927.927000", "150927.930000", "150927.933000", "150927.936000", "150927.939000", "150927.942000", "150927.944000", "150927.947000", "150927.950000", "150927.953000", "150927.956000", "150927.959000", "150927.961000", "150927.964000", "150927.967000", "151007.876000", "151007.879000", "151007.882000", "151007.884000", "151007.887000", "151007.890000", "151007.893000", "151007.896000", "151007.898000", "151007.901000", "151007.904000", "151007.907000", "151007.910000", "151007.913000", "151007.915000", "151007.918000", "151007.921000", "151007.924000", "151007.927000", "151007.930000", "151007.932000", "151007.935000", "151007.938000", "151007.941000", "151007.944000", "151007.946000", "151007.949000", "151047.877000", "151047.880000", "151047.883000", "151047.885000", "151047.888000", "151047.891000", "151047.894000", "151047.897000", "151047.899000", "151047.902000", "151047.905000", "151047.908000", "151047.911000", "151047.914000", "151047.917000", "151047.919000", "151047.922000", "151047.925000", "151047.928000", "151047.931000", "151047.933000", "151047.936000", "151047.939000", "151047.942000", "151047.945000", "151047.947000", "151047.950000", "151053.337000", "151053.340000", "151053.343000", "151053.346000"],
