{
  "AcquisitionMatrixPE": 104,
  "AcquisitionNumber": 1,
  "AcquisitionTime": "15:24:17.440000",
  "BandwidthPerPixelPhaseEncode": 17.17,
  "BaseResolution": 104,
  "BodyPartExamined": "BRAIN",
  "CoilString": "HC1-7;NC1_2",
  "ConsistencyInfo": "N4_VE11C_LATEST_20160120",
  "ConversionSoftware": "dcm2niix",
  "ConversionSoftwareVersion": "v1.0.20200427",
  "DerivedVendorReportedEchoSpacing": 0.000560011,
  "DeviceSerialNumber": "167006",
  "DwellTime": 2.1e-06,
  "EchoTime": 0.037,
  "EchoTrainLength": 104,
  "EffectiveEchoSpacing": 0.000560011,
  "FlipAngle": 52,
  "ImageComments": "Unaliased_MB4_PE3_LB",
  "ImageOrientationPatientDICOM": [0.998245, 0.00168466, -0.0592004, -0.0137648, 0.978822, -0.20425],
  "ImageType": [
    "ORIGINAL",
    "PRIMARY",
    "M",
    "MB",
    "ND",
    "MOSAIC"
],
  "ImagingFrequency": 123.259,
  "InPlanePhaseEncodingDirectionDICOM": "COL",
  "InstitutionAddress": "Chemin_Queen-Mary_4565_Montreal_District_CA_H3W_1W5",
  "InstitutionName": "IUGM",
  "InstitutionalDepartmentName": "Department",
  "MRAcquisitionType": "2D",
  "MagneticFieldStrength": 3,
  "Manufacturer": "Siemens",
  "ManufacturersModelName": "Prisma_fit",
  "Modality": "MR",
  "MultibandAccelerationFactor": 4,
  "PartialFourier": 1,
  "PatientPosition": "HFS",
  "PercentPhaseFOV": 100,
  "PercentSampling": 100,
  "PhaseEncodingDirection": "j",
  "PhaseEncodingSteps": 104,
  "PhaseResolution": 1,
  "PixelBandwidth": 2290,
  "ProcedureStepDescription": "video_friends",
  "ProtocolName": "func_task-friends-s01e13a",
  "PulseSequenceDetails": "%CustomerSeq%_cmrr_mbep2d_bold",
  "ReceiveCoilActiveElements": "HC1-7;NC1,2",
  "ReceiveCoilName": "HeadNeck_64",
  "ReconMatrixPE": 104,
  "RepetitionTime": 1.49,
  "SAR": 0.029016,
  "ScanOptions": "FS",
  "ScanningSequence": "EP",
  "SequenceName": "epfid2d1_104",
  "SequenceVariant": "SK_SS",
  "SeriesDescription": "func_task-friends-s01e13a",
  "SeriesNumber": 9,
  "ShimSetting": [603, -7269, -8786, 614, -29, -270, 5, 49],
  "SliceThickness": 2,
  "SliceTiming": [0, 0.7825, 0.0975, 0.88, 0.195, 0.98, 0.2925, 1.0775, 0.39, 1.175, 0.49, 1.2725, 0.5875, 1.37, 0.685, 0, 0.7825, 0.0975, 0.88, 0.195, 0.98, 0.2925, 1.0775, 0.39, 1.175, 0.49, 1.2725, 0.5875, 1.37, 0.685, 0, 0.7825, 0.0975, 0.88, 0.195, 0.98, 0.2925, 1.0775, 0.39, 1.175, 0.49, 1.2725, 0.5875, 1.37, 0.685, 0, 0.7825, 0.0975, 0.88, 0.195, 0.98, 0.2925, 1.0775, 0.39, 1.175, 0.49, 1.2725, 0.5875, 1.37, 0.685],
  "SoftwareVersions": "syngo_MR_E11",
  "SpacingBetweenSlices": 2,
  "StationName": "MRC35049",
  "TaskName": "s01e13a",
  "TotalReadoutTime": 0.0576811,
  "TxRefAmp": 215.75,
  "WipMemBlock": "5096dc98-9b43-4615-9679-44ab8f768c23||Sequence: R016 ve11c/master r/e634e98; Dec 19 2017 11:00:25 by eja",
  "dcmmeta_affine": [
    [-1.996489405632019, -0.027529632672667503, -0.11520510911941528, 103.68914031982422],
    [-0.003369312034919858, 1.957643985748291, -0.4094126224517822, -83.02945709228516],
    [-0.11840078234672546, 0.40849989652633667, 1.954254150390625, -35.327659606933594],
    [0.0, 0.0, 0.0, 1.0]
],
  "dcmmeta_reorient_transform": [
    [0.0, -1.0, 0.0, 103.0],
    [1.0, 0.0, 0.0, 0.0],
    [0.0, 0.0, 1.0, 0.0],
    [0.0, 0.0, 0.0, 1.0]
],
  "dcmmeta_shape": [104, 104, 60, 468],
  "dcmmeta_slice_dim": 2,
  "dcmmeta_version": 0.6,
  "global": {
    "const": {
      "AcquisitionMatrix": [104, 0, 0, 104],
      "AngioFlag": "N",
      "BitsAllocated": 16,
      "BitsStored": 16,
      "BodyPartExamined": "BRAIN",
      "Columns": 832,
      "EchoNumbers": 1,
      "EchoTime": 37.0,
      "EchoTrainLength": 104,
      "FlipAngle": 52.0,
      "HighBit": 15,
      "ImageOrientationPatient": [0.99824469723012, 0.00168465605948, -0.0592003917716, -0.0137648166884, 0.97882199048261, -0.2042499468034],
      "ImagePositionPatient": [-817.55494237629, -832.41671325737, 198.53967499583],
      "ImageType": [
        "ORIGINAL",
        "PRIMARY",
        "M",
        "MB",
        "ND",
        "MOSAIC"
],
      "ImagedNucleus": "1H",
      "ImagingFrequency": 123.259013,
      "InPlanePhaseEncodingDirection": "COL",
      "MRAcquisitionType": "2D",
      "MagneticFieldStrength": 3.0,
      "Manufacturer": "SIEMENS",
      "ManufacturerModelName": "Prisma_fit",
      "Modality": "MR",
      "NumberOfAverages": 1.0,
      "NumberOfPhaseEncodingSteps": 104,
      "PercentPhaseFieldOfView": 100.0,
      "PercentSampling": 100.0,
      "PerformedProcedureStepStartTime": "150607.618000",
      "PhotometricInterpretation": "MONOCHROME2",
      "PixelBandwidth": 2290.0,
      "PixelRepresentation": 0,
      "PixelSpacing": [2.0, 2.0],
      "ProtocolName": "func_task-friends-s01e13a",
      "RepetitionTime": 1490.0,
      "Rows": 832,
      "SAR": 0.02901596598427,
      "SamplesPerPixel": 1,
      "ScanOptions": "FS",
      "ScanningSequence": "EP",
      "SequenceName": "epfid2d1_104",
      "SequenceVariant": [
        "SK",
        "SS"
],
      "SeriesDescription": "func_task-friends-s01e13a",
      "SeriesNumber": 9,
      "SeriesTime": "152548.554000",
      "SliceLocation": -23.495718798446,
      "SliceThickness": 2.0,
      "SmallestImagePixelValue": 0,
      "SoftwareVersions": "syngo MR E11",
      "SpacingBetweenSlices": 2.0000000155645,
      "SpecificCharacterSet": "ISO_IR 100",
      "StudyID": "1",
      "StudyTime": "150607.565000",
      "TransmitCoilName": "Body",
      "VariableFlipAngleFlag": "N",
      "WindowCenterWidthExplanation": "Algo1",
      "dBdt": 0.0},
    "slices": {}
  },
  "time": {
    "samples": {
      "AcquisitionNumber": [1, 2, 3, 4, 5, 6, 7, 8, 9, 10, 11, 12, 13, 14, 15, 16, 17, 18, 19, 20, 21, 22, 23, 24, 25, 26, 27, 28, 29, 30, 31, 32, 33, 34, 35, 36, 37, 38, 39, 40, 41, 42, 43, 44, 45, 46, 47, 48, 49, 50, 51, 52, 53, 54, 55, 56, 57, 58, 59, 60, 61, 62, 63, 64, 65, 66, 67, 68, 69, 70, 71, 72, 73, 74, 75, 76, 77, 78, 79, 80, 81, 82, 83, 84, 85, 86, 87, 88, 89, 90, 91, 92, 93, 94, 95, 96, 97, 98, 99, 100, 101, 102, 103, 104, 105, 106, 107, 108, 109, 110, 111, 112, 113, 114, 115, 116, 117, 118, 119, 120, 121, 122, 123, 124, 125, 126, 127, 128, 129, 130, 131, 132, 133, 134, 135, 136, 137, 138, 139, 140, 141, 142, 143, 144, 145, 146, 147, 148, 149, 150, 151, 152, 153, 154, 155, 156, 157, 158, 159, 160, 161, 162, 163, 164, 165, 166, 167, 168, 169, 170, 171, 172, 173, 174, 175, 176, 177, 178, 179, 180, 181, 182, 183, 184, 185, 186, 187, 188, 189, 190, 191, 192, 193, 194, 195, 196, 197, 198, 199, 200, 201, 202, 203, 204, 205, 206, 207, 208, 209, 210, 211, 212, 213, 214, 215, 216, 217, 218, 219, 220, 221, 222, 223, 224, 225, 226, 227, 228, 229, 230, 231, 232, 233, 234, 235, 236, 237, 238, 239, 240, 241, 242, 243, 244, 245, 246, 247, 248, 249, 250, 251, 252, 253, 254, 255, 256, 257, 258, 259, 260, 261, 262, 263, 264, 265, 266, 267, 268, 269, 270, 271, 272, 273, 274, 275, 276, 277, 278, 279, 280, 281, 282, 283, 284, 285, 286, 287, 288, 289, 290, 291, 292, 293, 294, 295, 296, 297, 298, 299, 300, 301, 302, 303, 304, 305, 306, 307, 308, 309, 310, 311, 312, 313, 314, 315, 316, 317, 318, 319, 320, 321, 322, 323, 324, 325, 326, 327, 328, 329, 330, 331, 332, 333, 334, 335, 336, 337, 338, 339, 340, 341, 342, 343, 344, 345, 346, 347, 348, 349, 350, 351, 352, 353, 354, 355, 356, 357, 358, 359, 360, 361, 362, 363, 364, 365, 366, 367, 368, 369, 370, 371, 372, 373, 374, 375, 376, 377, 378, 379, 380, 381, 382, 383, 384, 385, 386, 387, 388, 389, 390, 391, 392, 393, 394, 395, 396, 397, 398, 399, 400, 401, 402, 403, 404, 405, 406, 407, 408, 409, 410, 411, 412, 413, 414, 415, 416, 417, 418, 419, 420, 421, 422, 423, 424, 425, 426, 427, 428, 429, 430, 431, 432, 433, 434, 435, 436, 437, 438, 439, 440, 441, 442, 443, 444, 445, 446, 447, 448, 449, 450, 451, 452, 453, 454, 455, 456, 457, 458, 459, 460, 461, 462, 463, 464, 465, 466, 467, 468],
      "AcquisitionTime": ["152417.440000", "152418.930000", "152420.420000", "152421.910000", "152423.400000", "152424.890000", "152426.380000", "152427.870000", "152429.360000", "152430.850000", "152432.340000", "152433.830000", "152435.320000", "152436.810000", "152438.300000", "152439.790000", "152441.280000", "152442.770000", "152444.260000", "152445.750000", "152447.240000", "152448.730000", "152450.220000", "152451.710000", "152453.200000", "152454.690000", "152456.180000", "152457.670000", "152459.160000", "152500.650000", "152502.140000", "152503.630000", "152505.120000", "152506.610000", "152508.100000", "152509.590000", "152511.080000", "152512.570000", "152514.060000", "152515.550000", "152517.040000", "152518.530000", "152520.020000", "152521.510000", "152523.000000", "152524.490000", "152525.980000", "152527.470000", "152528.960000", "152530.450000", "152531.940000", "152533.430000", "152534.920000", "152536.410000", "152537.900000", "152539.390000", "152540.880000", "152542.370000", "152543.860000", "152545.350000", "152546.840000", "152548.330000", "152549.820000", "152551.310000", "152552.800000", "152554.290000", "152555.780000", "152557.270000", "152558.760000", "152600.250000", "152601.740000", "152603.230000", "152604.720000", "152606.210000", "152607.700000", "152609.190000", "152610.680000", "152612.170000", "152613.660000", "152615.150000", "152616.640000", "152618.130000", "152619.620000", "152621.110000", "152622.600000", "152624.090000", "152625.580000", "152627.070000", "152628.560000", "152630.050000", "152631.540000", "152633.030000", "152634.520000", "152636.010000", "152637.500000", "152638.990000", "152640.480000", "152641.970000", "152643.460000", "152644.950000", "152646.440000", "152647.930000", "152649.420000", "152650.910000", "152652.400000", "152653.890000", "152655.380000", "152656.870000", "152658.360000", "152659.850000", "152701.340000", "152702.830000", "152704.320000", "152705.810000", "152707.300000", "152708.790000", "152710.280000", "152711.770000", "152713.260000", "152714.750000", "152716.240000", "152717.730000", "152719.220000", "152720.710000", "152722.200000", "152723.690000", "152725.180000", "152726.670000", "152728.160000", "152729.650000", "152731.140000", "152732.630000", "152734.120000", "152735.610000", "152737.100000", "152738.590000", "152740.080000", "152741.570000", "152743.060000", "152744.550000", "152746.040000", "152747.530000", "152749.020000", "152750.510000", "152752.000000", "152753.490000", "152754.980000", "152756.470000", "152757.960000", "152759.450000", "152800.940000", "152802.430000", "152803.920000", "152805.410000", "152806.900000", "152808.390000", "152809.880000", "152811.370000", "152812.860000", "152814.350000", "152815.840000", "152817.330000", "152818.820000", "152820.310000", "152821.800000", "152823.290000", "152824.780000", "152826.270000", "152827.760000", "152829.250000", "152830.740000", "152832.230000", "152833.720000", "152835.210000", "152836.700000", "152838.190000", "152839.680000", "152841.170000", "152842.660000", "152844.150000", "152845.640000", "152847.130000", "152848.620000", "152850.110000", "152851.600000", "152853.090000", "152854.580000", "152856.070000", "152857.560000", "152859.050000", "152900.540000", "152902.030000", "152903.520000", "152905.010000", "152906.500000", "152907.990000", "152909.480000", "152910.970000", "152912.460000", "152913.950000", "152915.440000", "152916.930000", "152918.420000", "152919.910000", "152921.400000", "152922.890000", "152924.380000", "152925.870000", "152927.360000", "152928.850000", "152930.340000", "152931.830000", "152933.320000", "152934.810000", "152936.300000", "152937.790000", "152939.280000", "152940.770000", "152942.260000", "152943.750000", "152945.240000", "152946.730000", "152948.220000", "152949.710000", "152951.200000", "152952.690000", "152954.180000", "152955.670000", "152957.160000", "152958.650000", "153000.140000", "153001.630000", "153003.120000", "153004.610000", "153006.100000", "153007.590000", "153009.080000", "153010.570000", "153012.060000", "153013.550000", "153015.040000", "153016.530000", "153018.020000", "153019.510000", "153021.000000", "153022.490000", "153023.980000", "153025.470000", "153026.960000", "153028.450000", "153029.940000", "153031.430000", "153032.920000", "153034.410000", "153035.900000", "153037.390000", "153038.880000", "153040.370000", "153041.860000", "153043.350000", "153044.840000", "153046.330000", "153047.820000", "153049.310000", "153050.800000", "153052.290000", "153053.780000", "153055.270000", "153056.760000", "153058.250000", "153059.740000", "153101.230000", "153102.720000", "153104.210000", "153105.700000", "153107.190000", "153108.680000", "153110.170000", "153111.660000", "153113.150000", "153114.640000", "153116.130000", "153117.620000", "153119.110000", "153120.600000", "153122.090000", "153123.580000", "153125.070000", "153126.560000", "153128.050000", "153129.540000", "153131.030000", "153132.520000", "153134.010000", "153135.500000", "153136.990000", "153138.480000", "153139.970000", "153141.460000", "153142.950000", "153144.440000", "153145.930000", "153147.420000", "153148.910000", "153150.400000", "153151.890000", "153153.380000", "153154.870000", "153156.360000", "153157.850000", "153159.340000", "153200.830000", "153202.320000", "153203.810000", "153205.300000", "153206.790000", "153208.280000", "153209.770000", "153211.260000", "153212.750000", "153214.240000", "153215.730000", "153217.220000", "153218.710000", "153220.200000", "153221.690000", "153223.180000", "153224.670000", "153226.160000", "153227.650000", "153229.140000", "153230.630000", "153232.120000", "153233.610000", "153235.100000", "153236.590000", "153238.080000", "153239.570000", "153241.060000", "153242.550000", "153244.040000", "153245.530000", "153247.020000", "153248.510000", "153250.000000", "153251.490000", "153252.980000", "153254.470000", "153255.960000", "153257.450000", "153258.940000", "153300.430000", "153301.920000", "153303.410000", "153304.900000", "153306.390000", "153307.880000", "153309.370000", "153310.860000", "153312.350000", "153313.840000", "153315.330000", "153316.820000", "153318.310000", "153319.800000", "153321.290000", "153322.780000", "153324.270000", "153325.760000", "153327.250000", "153328.740000", "153330.230000", "153331.720000", "153333.210000", "153334.700000", "153336.190000", "153337.680000", "153339.170000", "153340.660000", "153342.150000", "153343.640000", "153345.130000", "153346.620000", "153348.110000", "153349.600000", "153351.090000", "153352.580000", "153354.070000", "153355.560000", "153357.050000", "153358.540000", "153400.030000", "153401.520000", "153403.010000", "153404.500000", "153405.990000", "153407.480000", "153408.970000", "153410.460000", "153411.950000", "153413.440000", "153414.930000", "153416.420000", "153417.910000", "153419.400000", "153420.890000", "153422.380000", "153423.870000", "153425.360000", "153426.850000", "153428.340000", "153429.830000", "153431.320000", "153432.810000", "153434.300000", "153435.790000", "153437.280000", "153438.770000", "153440.260000", "153441.750000", "153443.240000", "153444.730000", "153446.220000", "153447.710000", "153449.200000", "153450.690000", "153452.180000", "153453.670000", "153455.160000", "153456.650000", "153458.140000", "153459.630000", "153501.120000", "153502.610000", "153504.100000", "153505.590000", "153507.080000", "153508.570000", "153510.060000", "153511.550000", "153513.040000", "153514.530000", "153516.020000", "153517.510000", "153519.000000", "153520.490000", "153521.980000", "153523.470000", "153524.960000", "153526.450000", "153527.940000", "153529.430000", "153530.920000", "153532.410000", "153533.900000", "153535.390000", "153536.880000", "153538.370000", "153539.860000", "153541.350000", "153542.840000", "153544.330000", "153545.820000", "153547.310000", "153548.800000", "153550.290000", "153551.780000", "153553.270000"],
      "ContentTime": ["152548.557000", "152548.561000", "152548.564000", "152548.566000", "152548.569000", "152548.572000", "152548.575000", "152548.578000", "152548.581000", "152548.583000", "152548.586000", "152548.589000", "152548.592000", "152548.595000", "152548.597000", "152548.600000", "152548.603000", "152548.610000", "152548.612000", "152548.615000", "152548.618000", "152548.621000", "152548.624000", "152548.626000", "152548.629000", "152548.632000", "152548.641000", "152548.644000", "152548.646000", "152548.649000", "152548.652000", "152548.655000", "152548.658000", "152548.661000", "152548.664000", "152548.667000", "152548.670000", "152608.512000", "152608.515000", "152608.518000", "152608.520000", "152608.523000", "152608.531000", "152608.533000", "152608.536000", "152608.539000", "152608.542000", "152608.545000", "152608.547000", "152608.550000", "152608.553000", "152608.556000", "152608.559000", "152608.561000", "152608.564000", "152608.567000", "152608.570000", "152628.513000", "152628.516000", "152628.519000", "152628.521000", "152628.524000", "152628.527000", "152628.530000", "152628.533000", "152628.535000", "152628.538000", "152628.541000", "152628.544000", "152628.547000", "152628.549000", "152628.561000", "152628.563000", "152628.566000", "152628.569000", "152628.572000", "152628.575000", "152628.578000", "152648.512000", "152648.515000", "152648.518000", "152648.520000", "152648.523000", "152648.526000", "152648.529000", "152648.531000", "152648.534000", "152648.537000", "152648.540000", "152648.543000", "152648.546000", "152648.548000", "152648.551000", "152648.554000", "152648.557000", "152648.560000", "152648.562000", "152648.565000", "152728.512000", "152728.515000", "152728.518000", "152728.520000", "152728.523000", "152728.526000", "152728.529000", "152728.532000", "152728.535000", "152728.537000", "152728.540000", "152728.543000", "152728.546000", "152728.548000", "152728.551000", "152728.554000", "152728.557000", "152728.560000", "152728.563000", "152728.570000", "152728.573000", "152728.576000", "152728.579000", "152728.581000", "152728.584000", "152728.587000", "152728.590000", "152728.593000", "152728.596000", "152808.512000", "152808.515000", "152808.518000", "152808.521000", "152808.523000", "152808.526000", "152808.529000", "152808.532000", "152808.535000", "152808.537000", "152808.540000", "152808.543000", "152808.546000", "152808.549000", "152808.551000", "152808.554000", "152808.557000", "152808.560000", "152808.563000", "152808.566000", "152808.569000", "152808.572000", "152808.575000", "152808.577000", "152808.580000", "152808.583000", "152808.586000", "152848.513000", "152848.516000", "152848.519000", "152848.522000", "152848.524000", "152848.527000", "152848.530000", "152848.533000", "152848.536000", "152848.538000", "152848.541000", "152848.544000", "152848.547000", "152848.550000", "152848.553000", "152848.555000", "152848.558000", "152848.561000", "152848.570000", "152848.573000", "152848.576000", "152848.579000", "152848.582000", "152848.585000", "152848.587000", "152848.590000", "152848.593000", "152928.512000", "152928.515000", "152928.518000", "152928.520000", "152928.523000", "152928.526000", "152928.529000", "152928.532000", "152928.535000", "152928.538000", "152928.540000", "152928.543000", "152928.546000", "152928.549000", "152928.552000", "152928.554000", "152928.557000", "152928.560000", "152928.563000", "152928.578000", "152928.581000", "152928.584000", "152928.587000", "152928.590000", "152928.593000", "152928.595000", "152928.598000", "153008.512000", "153008.515000", "153008.518000", "153008.520000", "153008.523000", "153008.526000", "153008.529000", "153008.532000", "153008.535000", "153008.538000", "153008.540000", "153008.543000", "153008.552000", "153008.555000", "153008.557000", "153008.560000", "153008.563000", "153008.566000", "153008.569000", "153008.572000", "153008.575000", "153008.578000", "153008.580000", "153008.583000", "153008.586000", "153008.589000", "153048.512000", "153048.515000", "153048.518000", "153048.520000", "153048.523000", "153048.526000", "153048.529000", "153048.532000", "153048.535000", "153048.538000", "153048.540000", "153048.543000", "153048.546000", "153048.549000", "153048.552000", "153048.554000", "153048.557000", "153048.560000", "153048.563000", "153048.566000", "153048.569000", "153048.572000", "153048.574000", "153048.577000", "153048.580000", "153048.583000", "153048.586000", "153128.512000", "153128.515000", "153128.523000", "153128.526000", "153128.529000", "153128.531000", "153128.535000", "153128.537000", "153128.540000", "153128.543000", "153128.546000", "153128.549000", "153128.552000", "153128.554000", "153128.557000", "153128.560000", "153128.563000", "153128.566000", "153128.568000", "153128.571000", "153128.574000", "153128.577000", "153128.580000", "153128.583000", "153128.585000", "153128.588000", "153128.591000", "153208.512000", "153208.515000", "153208.518000", "153208.520000", "153208.523000", "153208.526000", "153208.529000", "153208.532000", "153208.535000", "153208.537000", "153208.540000", "153208.543000", "153208.546000", "153208.549000", "153208.551000", "153208.554000", "153208.557000", "153208.560000", "153208.563000", "153208.565000", "153208.568000", "153208.571000", "153208.574000", "153208.577000", "153208.580000", "153208.583000", "153208.585000", "153248.512000", "153248.515000", "153248.518000", "153248.520000", "153248.523000", "153248.526000", "153248.529000", "153248.532000", "153248.535000", "153248.537000", "153248.540000", "153248.549000", "153248.552000", "153248.555000", "153248.558000", "153248.561000", "153248.563000", "153248.566000", "153248.569000", "153248.572000", "153248.575000", "153248.578000", "153248.580000", "153248.583000", "153248.586000", "153248.589000", "153248.591000", "153328.513000", "153328.516000", "153328.519000", "153328.522000", "153328.524000", "153328.527000", "153328.530000", "153328.533000", "153328.536000", "153328.538000", "153328.541000", "153328.544000", "153328.547000", "153328.550000", "153328.553000", "153328.555000", "153328.558000", "153328.561000", "153328.564000", "153328.567000", "153328.570000", "153328.573000", "153328.576000", "153328.578000", "153328.581000", "153328.584000", "153328.587000", "153408.512000", "153408.515000", "153408.518000", "153408.521000", "153408.523000", "153408.526000", "153408.529000", "153408.532000", "153408.535000", "153408.538000", "153408.540000", "153408.543000", "153408.546000", "153408.549000", "153408.552000", "153408.555000", "153408.557000", "153408.560000", "153408.563000", "153408.578000", "153408.581000", "153408.584000", "153408.587000", "153408.590000", "153408.593000", "153408.595000", "153408.598000", "153448.512000", "153448.515000", "153448.518000", "153448.521000", "153448.524000", "153448.526000", "153448.529000", "153448.532000", "153448.535000", "153448.538000", "153448.540000", "153448.543000", "153448.546000", "153448.549000", "153448.552000", "153448.555000", "153448.557000", "153448.560000", "153448.563000", "153448.566000", "153448.569000", "153448.572000", "153448.575000", "153448.578000", "153448.580000", "153448.583000", "153528.512000", "153528.515000", "153528.518000", "153528.521000", "153528.524000", "153528.526000", "153528.529000", "153528.532000", "153528.535000", "153528.538000", "153528.541000", "153528.543000", "153528.546000", "153528.549000", "153528.552000", "153528.555000", "153528.558000", "153528.560000", "153528.563000", "153528.566000", "153528.569000", "153528.572000", "153528.575000", "153528.578000", "153528.581000", "153528.583000", "153528.586000", "153555.829000", "153555.832000", "153555.835000", "153555.838000", "153555.841000", "153555.843000", "153555.846000", "153555.849000", "153555.852000", "153555.855000", "153555.858000", "153555.861000", "153555.864000", "153555.867000", "153555.870000", "153555.872000", "153555.875000", "153555.878000", "153555.881000"],
