{
  "AcquisitionMatrixPE": 104,
  "AcquisitionNumber": 1,
  "AcquisitionTime": "10:13:50.790000",
  "BandwidthPerPixelPhaseEncode": 17.17,
  "BaseResolution": 104,
  "BodyPartExamined": "BRAIN",
  "CoilCombinationMethod": "Sum of Squares",
  "ConsistencyInfo": "N4_VE11C_LATEST_20160120",
  "ConversionSoftware": "dcm2niix",
  "ConversionSoftwareVersion": "v1.0.20230411",
  "DerivedVendorReportedEchoSpacing": 0.000560011,
  "DeviceSerialNumber": "167006",
  "DwellTime": 2.1e-06,
  "EchoTime": 0.037,
  "EchoTrainLength": 104,
  "EffectiveEchoSpacing": 0.000560011,
  "FlipAngle": 52,
  "HeudiconvVersion": "0.5.3.post861+ge7d3c7f",
  "ImageComments": "Unaliased MB4/PE3/LB",
  "ImageOrientationPatientDICOM": [0.999977, -0.000333175, -0.00675295, -0.00122173, 0.973439, -0.228942],
  "ImageOrientationText": "Tra>Cor(-13.2)>Sag(-0.4)",
  "ImageType": [
    "ORIGINAL",
    "PRIMARY",
    "M",
    "MB",
    "ND",
    "MOSAIC"
],
  "ImagingFrequency": 123.249748,
  "InPlanePhaseEncodingDirectionDICOM": "COL",
  "InstitutionAddress": "Chemin Queen-Mary 4565,Montreal,District,CA,H3W 1W5",
  "InstitutionName": "IUGM",
  "InstitutionalDepartmentName": "Department",
  "MRAcquisitionType": "2D",
  "MagneticFieldStrength": 3,
  "Manufacturer": "Siemens",
  "ManufacturersModelName": "Prisma_fit",
  "MatrixCoilMode": "SENSE",
  "Modality": "MR",
  "MultibandAccelerationFactor": 4,
  "NonlinearGradientCorrection": false,
  "PartialFourier": 1,
  "PatientPosition": "HFS",
  "PercentPhaseFOV": 100,
  "PercentSampling": 100,
  "PhaseEncodingDirection": "j",
  "PhaseEncodingSteps": 104,
  "PhaseResolution": 1,
  "PixelBandwidth": 2290,
  "ProcedureStepDescription": "video^friends",
  "ProtocolName": "func_task-friends-s07e22a",
  "PulseSequenceDetails": "%CustomerSeq%\\cmrr_mbep2d_bold",
  "ReceiveCoilActiveElements": "HC1-7;NC1,2",
  "ReceiveCoilName": "HeadNeck_64",
  "ReconMatrixPE": 104,
  "RepetitionTime": 1.49,
  "SAR": 0.0619182,
  "ScanOptions": "FS",
  "ScanningSequence": "EP",
  "SequenceName": "epfid2d1_104",
  "SequenceVariant": "SK\\SS",
  "SeriesDescription": "func_task-friends-s07e22a",
  "SeriesNumber": 20,
  "ShimSetting": [606, -7241, -8778, 662, 87, -21, 27, 37],
  "SliceThickness": 2,
  "SliceTiming": [0, 0.7825, 0.0975, 0.88, 0.195, 0.9775, 0.2925, 1.0775, 0.39, 1.175, 0.4875, 1.2725, 0.5875, 1.37, 0.685, 0, 0.7825, 0.0975, 0.88, 0.195, 0.9775, 0.2925, 1.0775, 0.39, 1.175, 0.4875, 1.2725, 0.5875, 1.37, 0.685, 0, 0.7825, 0.0975, 0.88, 0.195, 0.9775, 0.2925, 1.0775, 0.39, 1.175, 0.4875, 1.2725, 0.5875, 1.37, 0.685, 0, 0.7825, 0.0975, 0.88, 0.195, 0.9775, 0.2925, 1.0775, 0.39, 1.175, 0.4875, 1.2725, 0.5875, 1.37, 0.685],
  "SoftwareVersions": "syngo MR E11",
  "SpacingBetweenSlices": 2,
  "StationName": "MRC35049",
  "TaskName": "s07e22a",
  "TotalReadoutTime": 0.0576811,
  "TxRefAmp": 228.024,
  "WipMemBlock": "aa8c9f5e-81c2-40e8-a05b-a3d51c94f684||Sequence: R017 ve11c/master r/75a17815+; Jun 28 2022 16:32:11 by eja",
  "dcmmeta_affine": [
    [-1.999954342842102, -0.0024434695951640606, -0.013299730606377125, 105.40243530273438],
    [0.0006663498352281749, 1.9468786716461182, -0.4578896164894104, -85.41908264160156],
    [-0.013505900278687477, 0.4578835666179657, 1.9468333721160889, -56.779075622558594],
    [0.0, 0.0, 0.0, 1.0]
],
  "dcmmeta_reorient_transform": [
    [0.0, -1.0, 0.0, 103.0],
    [1.0, 0.0, 0.0, 0.0],
    [0.0, 0.0, 1.0, 0.0],
    [0.0, 0.0, 0.0, 1.0]
],
  "dcmmeta_shape": [104, 104, 60, 471],
  "dcmmeta_slice_dim": 2,
  "dcmmeta_version": 0.6,
  "global": {
    "const": {
      "AcquisitionMatrix": [104, 0, 0, 104],
      "AngioFlag": "N",
      "BitsAllocated": 16,
      "BitsStored": 16,
      "BodyPartExamined": "BRAIN",
      "Columns": 832,
      "EchoNumbers": 1,
      "EchoTime": 37.0,
      "EchoTrainLength": 104,
      "FlipAngle": 52.0,
      "HighBit": 15,
      "ImageOrientationPatient": [0.99997714306715, -0.0003331749113, -0.0067529502991, -0.0012217348464, 0.97343934932073, -0.2289417842116],
      "ImagePositionPatient": [-832.24469463743, -823.53071776203, 161.96869706094],
      "ImageType": [
        "ORIGINAL",
        "PRIMARY",
        "M",
        "MB",
        "ND",
        "MOSAIC"
],
      "ImagedNucleus": "1H",
      "ImagingFrequency": 123.249748,
      "InPlanePhaseEncodingDirection": "COL",
      "MRAcquisitionType": "2D",
      "MagneticFieldStrength": 3.0,
      "Manufacturer": "SIEMENS",
      "ManufacturerModelName": "Prisma_fit",
      "Modality": "MR",
      "NumberOfAverages": 1.0,
      "NumberOfPhaseEncodingSteps": 104,
      "PercentPhaseFieldOfView": 100.0,
      "PercentSampling": 100.0,
      "PerformedProcedureStepStartTime": "090230.749000",
      "PhotometricInterpretation": "MONOCHROME2",
      "PixelBandwidth": 2290.0,
      "PixelRepresentation": 0,
      "PixelSpacing": [2.0, 2.0],
      "ProtocolName": "func_task-friends-s07e22a",
      "RepetitionTime": 1490.0,
      "Rows": 832,
      "SAR": 0.06191817494496,
      "SamplesPerPixel": 1,
      "ScanOptions": "FS",
      "ScanningSequence": "EP",
      "SequenceName": "epfid2d1_104",
      "SequenceVariant": [
        "SK",
        "SS"
],
      "SeriesDescription": "func_task-friends-s07e22a",
      "SeriesNumber": 20,
      "SeriesTime": "101520.919000",
      "SliceLocation": -36.41435847089,
      "SliceThickness": 2.0,
      "SmallestImagePixelValue": 0,
      "SoftwareVersions": "syngo MR E11",
      "SpacingBetweenSlices": 2.0000000193807,
      "SpecificCharacterSet": "ISO_IR 100",
      "StudyID": "1",
      "StudyTime": "090230.512000",
      "TransmitCoilName": "Body",
      "VariableFlipAngleFlag": "N",
      "WindowCenterWidthExplanation": "Algo1",
      "dBdt": 0.0},
    "slices": {}
  },
  "time": {
    "samples": {
      "AcquisitionNumber": [1, 2, 3, 4, 5, 6, 7, 8, 9, 10, 11, 12, 13, 14, 15, 16, 17, 18, 19, 20, 21, 22, 23, 24, 25, 26, 27, 28, 29, 30, 31, 32, 33, 34, 35, 36, 37, 38, 39, 40, 41, 42, 43, 44, 45, 46, 47, 48, 49, 50, 51, 52, 53, 54, 55, 56, 57, 58, 59, 60, 61, 62, 63, 64, 65, 66, 67, 68, 69, 70, 71, 72, 73, 74, 75, 76, 77, 78, 79, 80, 81, 82, 83, 84, 85, 86, 87, 88, 89, 90, 91, 92, 93, 94, 95, 96, 97, 98, 99, 100, 101, 102, 103, 104, 105, 106, 107, 108, 109, 110, 111, 112, 113, 114, 115, 116, 117, 118, 119, 120, 121, 122, 123, 124, 125, 126, 127, 128, 129, 130, 131, 132, 133, 134, 135, 136, 137, 138, 139, 140, 141, 142, 143, 144, 145, 146, 147, 148, 149, 150, 151, 152, 153, 154, 155, 156, 157, 158, 159, 160, 161, 162, 163, 164, 165, 166, 167, 168, 169, 170, 171, 172, 173, 174, 175, 176, 177, 178, 179, 180, 181, 182, 183, 184, 185, 186, 187, 188, 189, 190, 191, 192, 193, 194, 195, 196, 197, 198, 199, 200, 201, 202, 203, 204, 205, 206, 207, 208, 209, 210, 211, 212, 213, 214, 215, 216, 217, 218, 219, 220, 221, 222, 223, 224, 225, 226, 227, 228, 229, 230, 231, 232, 233, 234, 235, 236, 237, 238, 239, 240, 241, 242, 243, 244, 245, 246, 247, 248, 249, 250, 251, 252, 253, 254, 255, 256, 257, 258, 259, 260, 261, 262, 263, 264, 265, 266, 267, 268, 269, 270, 271, 272, 273, 274, 275, 276, 277, 278, 279, 280, 281, 282, 283, 284, 285, 286, 287, 288, 289, 290, 291, 292, 293, 294, 295, 296, 297, 298, 299, 300, 301, 302, 303, 304, 305, 306, 307, 308, 309, 310, 311, 312, 313, 314, 315, 316, 317, 318, 319, 320, 321, 322, 323, 324, 325, 326, 327, 328, 329, 330, 331, 332, 333, 334, 335, 336, 337, 338, 339, 340, 341, 342, 343, 344, 345, 346, 347, 348, 349, 350, 351, 352, 353, 354, 355, 356, 357, 358, 359, 360, 361, 362, 363, 364, 365, 366, 367, 368, 369, 370, 371, 372, 373, 374, 375, 376, 377, 378, 379, 380, 381, 382, 383, 384, 385, 386, 387, 388, 389, 390, 391, 392, 393, 394, 395, 396, 397, 398, 399, 400, 401, 402, 403, 404, 405, 406, 407, 408, 409, 410, 411, 412, 413, 414, 415, 416, 417, 418, 419, 420, 421, 422, 423, 424, 425, 426, 427, 428, 429, 430, 431, 432, 433, 434, 435, 436, 437, 438, 439, 440, 441, 442, 443, 444, 445, 446, 447, 448, 449, 450, 451, 452, 453, 454, 455, 456, 457, 458, 459, 460, 461, 462, 463, 464, 465, 466, 467, 468, 469, 470, 471],
      "AcquisitionTime": ["101350.790000", "101352.280000", "101353.770000", "101355.260000", "101356.750000", "101358.240000", "101359.730000", "101401.220000", "101402.710000", "101404.200000", "101405.690000", "101407.180000", "101408.670000", "101410.160000", "101411.650000", "101413.140000", "101414.630000", "101416.120000", "101417.610000", "101419.100000", "101420.590000", "101422.080000", "101423.570000", "101425.060000", "101426.550000", "101428.040000", "101429.530000", "101431.020000", "101432.510000", "101434.000000", "101435.490000", "101436.980000", "101438.470000", "101439.960000", "101441.450000", "101442.940000", "101444.430000", "101445.920000", "101447.410000", "101448.900000", "101450.390000", "101451.880000", "101453.370000", "101454.860000", "101456.350000", "101457.840000", "101459.330000", "101500.820000", "101502.310000", "101503.800000", "101505.290000", "101506.780000", "101508.270000", "101509.760000", "101511.250000", "101512.740000", "101514.230000", "101515.720000", "101517.210000", "101518.700000", "101520.190000", "101521.680000", "101523.170000", "101524.660000", "101526.150000", "101527.640000", "101529.130000", "101530.620000", "101532.110000", "101533.600000", "101535.090000", "101536.580000", "101538.070000", "101539.560000", "101541.050000", "101542.540000", "101544.030000", "101545.520000", "101547.010000", "101548.500000", "101549.990000", "101551.480000", "101552.970000", "101554.460000", "101555.950000", "101557.440000", "101558.930000", "101600.420000", "101601.910000", "101603.400000", "101604.890000", "101606.380000", "101607.870000", "101609.360000", "101610.850000", "101612.340000", "101613.830000", "101615.320000", "101616.810000", "101618.300000", "101619.790000", "101621.280000", "101622.770000", "101624.260000", "101625.750000", "101627.240000", "101628.730000", "101630.220000", "101631.710000", "101633.200000", "101634.690000", "101636.180000", "101637.670000", "101639.160000", "101640.650000", "101642.140000", "101643.630000", "101645.120000", "101646.610000", "101648.100000", "101649.590000", "101651.080000", "101652.570000", "101654.060000", "101655.550000", "101657.040000", "101658.530000", "101700.020000", "101701.510000", "101703.000000", "101704.490000", "101705.980000", "101707.470000", "101708.960000", "101710.450000", "101711.940000", "101713.430000", "101714.920000", "101716.410000", "101717.900000", "101719.390000", "101720.880000", "101722.370000", "101723.860000", "101725.350000", "101726.840000", "101728.330000", "101729.820000", "101731.310000", "101732.800000", "101734.290000", "101735.780000", "101737.270000", "101738.760000", "101740.250000", "101741.740000", "101743.230000", "101744.720000", "101746.210000", "101747.700000", "101749.190000", "101750.680000", "101752.170000", "101753.660000", "101755.150000", "101756.640000", "101758.130000", "101759.620000", "101801.110000", "101802.600000", "101804.090000", "101805.580000", "101807.070000", "101808.560000", "101810.050000", "101811.540000", "101813.030000", "101814.520000", "101816.010000", "101817.500000", "101818.990000", "101820.480000", "101821.970000", "101823.460000", "101824.950000", "101826.440000", "101827.930000", "101829.420000", "101830.910000", "101832.400000", "101833.890000", "101835.380000", "101836.870000", "101838.360000", "101839.850000", "101841.340000", "101842.830000", "101844.320000", "101845.810000", "101847.300000", "101848.790000", "101850.280000", "101851.770000", "101853.260000", "101854.750000", "101856.240000", "101857.730000", "101859.220000", "101900.710000", "101902.200000", "101903.690000", "101905.180000", "101906.670000", "101908.160000", "101909.650000", "101911.140000", "101912.630000", "101914.120000", "101915.610000", "101917.100000", "101918.590000", "101920.080000", "101921.570000", "101923.060000", "101924.550000", "101926.040000", "101927.530000", "101929.020000", "101930.510000", "101932.000000", "101933.490000", "101934.980000", "101936.470000", "101937.960000", "101939.450000", "101940.940000", "101942.430000", "101943.920000", "101945.410000", "101946.900000", "101948.390000", "101949.880000", "101951.370000", "101952.860000", "101954.350000", "101955.840000", "101957.330000", "101958.820000", "102000.310000", "102001.800000", "102003.290000", "102004.780000", "102006.270000", "102007.760000", "102009.250000", "102010.740000", "102012.230000", "102013.720000", "102015.210000", "102016.700000", "102018.190000", "102019.680000", "102021.170000", "102022.660000", "102024.150000", "102025.640000", "102027.130000", "102028.620000", "102030.110000", "102031.600000", "102033.090000", "102034.580000", "102036.070000", "102037.560000", "102039.050000", "102040.540000", "102042.030000", "102043.520000", "102045.010000", "102046.500000", "102047.990000", "102049.480000", "102050.970000", "102052.460000", "102053.950000", "102055.440000", "102056.930000", "102058.420000", "102059.910000", "102101.400000", "102102.890000", "102104.380000", "102105.870000", "102107.360000", "102108.850000", "102110.340000", "102111.830000", "102113.320000", "102114.810000", "102116.300000", "102117.790000", "102119.280000", "102120.770000", "102122.260000", "102123.750000", "102125.240000", "102126.730000", "102128.220000", "102129.710000", "102131.200000", "102132.690000", "102134.180000", "102135.670000", "102137.160000", "102138.650000", "102140.140000", "102141.630000", "102143.120000", "102144.610000", "102146.100000", "102147.590000", "102149.080000", "102150.570000", "102152.060000", "102153.550000", "102155.040000", "102156.530000", "102158.020000", "102159.510000", "102201.000000", "102202.490000", "102203.980000", "102205.470000", "102206.960000", "102208.450000", "102209.940000", "102211.430000", "102212.920000", "102214.410000", "102215.900000", "102217.390000", "102218.880000", "102220.370000", "102221.860000", "102223.350000", "102224.840000", "102226.330000", "102227.820000", "102229.310000", "102230.800000", "102232.290000", "102233.780000", "102235.270000", "102236.760000", "102238.250000", "102239.740000", "102241.230000", "102242.720000", "102244.210000", "102245.700000", "102247.190000", "102248.680000", "102250.170000", "102251.660000", "102253.150000", "102254.640000", "102256.130000", "102257.620000", "102259.110000", "102300.600000", "102302.090000", "102303.580000", "102305.070000", "102306.560000", "102308.050000", "102309.540000", "102311.030000", "102312.520000", "102314.010000", "102315.500000", "102316.990000", "102318.480000", "102319.970000", "102321.460000", "102322.950000", "102324.440000", "102325.930000", "102327.420000", "102328.910000", "102330.400000", "102331.890000", "102333.380000", "102334.870000", "102336.360000", "102337.850000", "102339.340000", "102340.830000", "102342.320000", "102343.810000", "102345.300000", "102346.790000", "102348.280000", "102349.770000", "102351.260000", "102352.750000", "102354.240000", "102355.730000", "102357.220000", "102358.710000", "102400.200000", "102401.690000", "102403.180000", "102404.670000", "102406.160000", "102407.650000", "102409.140000", "102410.630000", "102412.120000", "102413.610000", "102415.100000", "102416.590000", "102418.080000", "102419.570000", "102421.060000", "102422.550000", "102424.040000", "102425.530000", "102427.020000", "102428.510000", "102430.000000", "102431.490000", "102432.980000", "102434.470000", "102435.960000", "102437.450000", "102438.940000", "102440.430000", "102441.920000", "102443.410000", "102444.900000", "102446.390000", "102447.880000", "102449.370000", "102450.860000", "102452.350000", "102453.840000", "102455.330000", "102456.820000", "102458.310000", "102459.800000", "102501.290000", "102502.780000", "102504.270000", "102505.760000", "102507.250000", "102508.740000", "102510.230000", "102511.720000", "102513.210000", "102514.700000", "102516.190000", "102517.680000", "102519.170000", "102520.660000", "102522.150000", "102523.640000", "102525.130000", "102526.620000", "102528.110000", "102529.600000", "102531.090000"],
      "ContentTime": ["101520.922000", "101520.925000", "101520.933000", "101520.936000", "101520.939000", "101520.941000", "101520.944000", "101520.947000", "101520.950000", "101520.953000", "101520.956000", "101520.959000", "101520.961000", "101520.964000", "101520.967000", "101520.970000", "101520.973000", "101520.976000", "101520.978000", "101520.981000", "101520.984000", "101520.987000", "101520.990000", "101520.993000", "101520.996000", "101521.000000", "101521.002000", "101521.005000", "101521.008000", "101521.018000", "101521.021000", "101521.024000", "101521.027000", "101521.030000", "101521.033000", "101521.036000", "101540.888000", "101540.891000", "101540.894000", "101540.896000", "101540.899000", "101540.902000", "101540.905000", "101540.908000", "101540.911000", "101540.914000", "101540.916000", "101540.919000", "101540.922000", "101540.925000", "101540.928000", "101540.930000", "101540.933000", "101540.936000", "101540.939000", "101540.942000", "101540.945000", "101600.888000", "101600.891000", "101600.894000", "101600.896000", "101600.899000", "101600.902000", "101600.905000", "101600.908000", "101600.911000", "101600.929000", "101600.932000", "101600.935000", "101600.938000", "101600.940000", "101600.943000", "101600.946000", "101600.949000", "101600.952000", "101600.955000", "101600.958000", "101640.888000", "101640.891000", "101640.894000", "101640.897000", "101640.899000", "101640.902000", "101640.905000", "101640.908000", "101640.911000", "101640.914000", "101640.916000", "101640.919000", "101640.922000", "101640.925000", "101640.928000", "101640.931000", "101640.934000", "101640.937000", "101640.939000", "101640.942000", "101640.945000", "101640.948000", "101640.951000", "101640.954000", "101640.956000", "101640.959000", "101640.962000", "101640.965000", "101640.968000", "101640.971000", "101640.974000", "101640.976000", "101640.979000", "101720.888000", "101720.891000", "101720.894000", "101720.896000", "101720.899000", "101720.902000", "101720.905000", "101720.908000", "101720.911000", "101720.914000", "101720.917000", "101720.919000", "101720.922000", "101720.925000", "101720.928000", "101720.931000", "101720.934000", "101720.936000", "101720.939000", "101720.942000", "101720.945000", "101720.948000", "101720.951000", "101720.954000", "101720.956000", "101720.959000", "101720.962000", "101800.888000", "101800.891000", "101800.894000", "101800.897000", "101800.899000", "101800.902000", "101800.905000", "101800.908000", "101800.911000", "101800.914000", "101800.917000", "101800.920000", "101800.922000", "101800.925000", "101800.928000", "101800.931000", "101800.934000", "101800.937000", "101800.940000", "101800.942000", "101800.945000", "101800.948000", "101800.951000", "101800.954000", "101800.957000", "101800.960000", "101800.962000", "101840.888000", "101840.891000", "101840.894000", "101840.897000", "101840.900000", "101840.903000", "101840.905000", "101840.908000", "101840.911000", "101840.914000", "101840.917000", "101840.920000", "101840.923000", "101840.926000", "101840.929000", "101840.932000", "101840.935000", "101840.937000", "101840.940000", "101840.943000", "101840.946000", "101840.949000", "101840.952000", "101840.955000", "101840.958000", "101840.961000", "101920.888000", "101920.891000", "101920.894000", "101920.897000", "101920.899000", "101920.902000", "101920.905000", "101920.908000", "101920.911000", "101920.914000", "101920.917000", "101920.920000", "101920.922000", "101920.925000", "101920.928000", "101920.931000", "101920.934000", "101920.937000", "101920.939000", "101920.942000", "101920.945000", "101920.948000", "101920.951000", "101920.961000", "101920.964000", "101920.967000", "101920.970000", "102000.888000", "102000.891000", "102000.894000", "102000.897000", "102000.900000", "102000.902000", "102000.905000", "102000.908000", "102000.911000", "102000.914000", "102000.917000", "102000.920000", "102000.923000", "102000.926000", "102000.928000", "102000.931000", "102000.934000", "102000.937000", "102000.940000", "102000.943000", "102000.945000", "102000.948000", "102000.951000", "102000.954000", "102000.957000", "102000.960000", "102000.963000", "102040.888000", "102040.891000", "102040.894000", "102040.897000", "102040.899000", "102040.902000", "102040.905000", "102040.908000", "102040.911000", "102040.914000", "102040.917000", "102040.920000", "102040.923000", "102040.926000", "102040.928000", "102040.931000", "102040.934000", "102040.937000", "102040.940000", "102040.943000", "102040.946000", "102040.948000", "102040.951000", "102040.954000", "102040.957000", "102040.960000", "102040.963000", "102120.888000", "102120.891000", "102120.894000", "102120.897000", "102120.899000", "102120.902000", "102120.905000", "102120.908000", "102120.911000", "102120.914000", "102120.917000", "102120.920000", "102120.922000", "102120.925000", "102120.928000", "102120.931000", "102120.934000", "102120.937000", "102120.940000", "102120.943000", "102120.945000", "102120.948000", "102120.951000", "102120.954000", "102120.957000", "102120.960000", "102120.963000", "102200.888000", "102200.891000", "102200.894000", "102200.897000", "102200.899000", "102200.902000", "102200.905000", "102200.908000", "102200.911000", "102200.914000", "102200.917000", "102200.920000", "102200.923000", "102200.925000", "102200.928000", "102200.931000", "102200.934000", "102200.937000", "102200.940000", "102200.943000", "102200.946000", "102200.949000", "102200.951000", "102200.954000", "102200.957000", "102200.960000", "102200.963000", "102240.888000", "102240.891000", "102240.894000", "102240.897000", "102240.899000", "102240.902000", "102240.905000", "102240.908000", "102240.911000", "102240.914000", "102240.917000", "102240.920000", "102240.922000", "102240.925000", "102240.928000", "102240.931000", "102240.934000", "102240.937000", "102240.939000", "102240.942000", "102240.945000", "102240.948000", "102240.951000", "102240.954000", "102240.957000", "102240.960000", "102240.962000", "102320.888000", "102320.891000", "102320.894000", "102320.897000", "102320.900000", "102320.902000", "102320.905000", "102320.908000", "102320.912000", "102320.915000", "102320.918000", "102320.921000", "102320.924000", "102320.927000", "102320.929000", "102320.932000", "102320.935000", "102320.938000", "102320.941000", "102320.944000", "102320.947000", "102320.949000", "102320.952000", "102320.955000", "102320.958000", "102320.961000", "102400.888000", "102400.891000", "102400.894000", "102400.897000", "102400.899000", "102400.902000", "102400.905000", "102400.908000", "102400.911000", "102400.914000", "102400.917000", "102400.920000", "102400.922000", "102400.925000", "102400.928000", "102400.931000", "102400.934000", "102400.937000", "102400.940000", "102400.942000", "102400.945000", "102400.948000", "102400.951000", "102400.954000", "102400.957000", "102400.960000", "102400.962000", "102440.888000", "102440.891000", "102440.894000", "102440.897000", "102440.899000", "102440.902000", "102440.905000", "102440.908000", "102440.911000", "102440.914000", "102440.917000", "102440.920000", "102440.922000", "102440.925000", "102440.928000", "102440.931000", "102440.935000", "102440.937000", "102440.940000", "102440.943000", "102440.946000", "102440.949000", "102440.952000", "102440.955000", "102440.957000", "102440.960000", "102440.963000", "102520.888000", "102520.891000", "102520.894000", "102520.897000", "102520.900000", "102520.902000", "102520.905000", "102520.908000", "102520.911000", "102520.914000", "102520.917000", "102520.920000", "102520.923000", "102520.925000", "102520.928000", "102520.931000", "102520.934000", "102520.937000", "102520.940000", "102520.943000", "102520.945000", "102520.948000", "102520.951000", "102520.954000", "102520.969000", "102520.972000", "102520.975000", "102538.157000", "102538.168000", "102538.171000", "102538.173000", "102538.176000", "102538.179000", "102538.182000", "102538.185000", "102538.188000", "102538.190000", "102538.193000", "102538.196000"],
