{
  "AcquisitionMatrixPE": 104,
  "AcquisitionNumber": 1,
  "AcquisitionTime": "09:34:32.490000",
  "BandwidthPerPixelPhaseEncode": 17.17,
  "BaseResolution": 104,
  "BodyPartExamined": "BRAIN",
  "CoilCombinationMethod": "Sum of Squares",
  "ConsistencyInfo": "N4_VE11C_LATEST_20160120",
  "ConversionSoftware": "dcm2niix",
  "ConversionSoftwareVersion": "v1.0.20230411",
  "DerivedVendorReportedEchoSpacing": 0.000560011,
  "DeviceSerialNumber": "167006",
  "DwellTime": 2.1e-06,
  "EchoTime": 0.037,
  "EchoTrainLength": 104,
  "EffectiveEchoSpacing": 0.000560011,
  "FlipAngle": 52,
  "HeudiconvVersion": "0.5.3.post861+ge7d3c7f",
  "ImageComments": "Unaliased MB4/PE3/LB",
  "ImageOrientationPatientDICOM": [0.999977, -0.000333175, -0.00675295, -0.00122173, 0.973439, -0.228942],
  "ImageOrientationText": "Tra>Cor(-13.2)>Sag(-0.4)",
  "ImageType": [
    "ORIGINAL",
    "PRIMARY",
    "M",
    "MB",
    "ND",
    "MOSAIC"
],
  "ImagingFrequency": 123.249734,
  "InPlanePhaseEncodingDirectionDICOM": "COL",
  "InstitutionAddress": "Chemin Queen-Mary 4565,Montreal,District,CA,H3W 1W5",
  "InstitutionName": "IUGM",
  "InstitutionalDepartmentName": "Department",
  "MRAcquisitionType": "2D",
  "MagneticFieldStrength": 3,
  "Manufacturer": "Siemens",
  "ManufacturersModelName": "Prisma_fit",
  "MatrixCoilMode": "SENSE",
  "Modality": "MR",
  "MultibandAccelerationFactor": 4,
  "NonlinearGradientCorrection": false,
  "PartialFourier": 1,
  "PatientPosition": "HFS",
  "PercentPhaseFOV": 100,
  "PercentSampling": 100,
  "PhaseEncodingDirection": "j",
  "PhaseEncodingSteps": 104,
  "PhaseResolution": 1,
  "PixelBandwidth": 2290,
  "ProcedureStepDescription": "video^friends",
  "ProtocolName": "func_task-friends-s07e20b",
  "PulseSequenceDetails": "%CustomerSeq%\\cmrr_mbep2d_bold",
  "ReceiveCoilActiveElements": "HC1-7;NC1,2",
  "ReceiveCoilName": "HeadNeck_64",
  "ReconMatrixPE": 104,
  "RepetitionTime": 1.49,
  "SAR": 0.051842,
  "ScanOptions": "FS",
  "ScanningSequence": "EP",
  "SequenceName": "epfid2d1_104",
  "SequenceVariant": "SK\\SS",
  "SeriesDescription": "func_task-friends-s07e20b",
  "SeriesNumber": 14,
  "ShimSetting": [606, -7241, -8778, 662, 87, -21, 27, 37],
  "SliceThickness": 2,
  "SliceTiming": [0, 0.785, 0.1, 0.8825, 0.1975, 0.98, 0.295, 1.08, 0.3925, 1.1775, 0.49, 1.275, 0.59, 1.3725, 0.6875, 0, 0.785, 0.1, 0.8825, 0.1975, 0.98, 0.295, 1.08, 0.3925, 1.1775, 0.49, 1.275, 0.59, 1.3725, 0.6875, 0, 0.785, 0.1, 0.8825, 0.1975, 0.98, 0.295, 1.08, 0.3925, 1.1775, 0.49, 1.275, 0.59, 1.3725, 0.6875, 0, 0.785, 0.1, 0.8825, 0.1975, 0.98, 0.295, 1.08, 0.3925, 1.1775, 0.49, 1.275, 0.59, 1.3725, 0.6875],
  "SoftwareVersions": "syngo MR E11",
  "SpacingBetweenSlices": 2,
  "StationName": "MRC35049",
  "TaskName": "s07e20b",
  "TotalReadoutTime": 0.0576811,
  "TxRefAmp": 228.024,
  "WipMemBlock": "90085394-f573-40a9-9d68-758da581cb36||Sequence: R017 ve11c/master r/75a17815+; Jun 28 2022 16:32:11 by eja",
  "dcmmeta_affine": [
    [-1.999954342842102, -0.0024434695951640606, -0.013299730606377125, 105.40243530273438],
    [0.0006663498352281749, 1.9468786716461182, -0.4578896164894104, -85.41908264160156],
    [-0.013505900278687477, 0.4578835666179657, 1.9468333721160889, -56.779075622558594],
    [0.0, 0.0, 0.0, 1.0]
],
  "dcmmeta_reorient_transform": [
    [0.0, -1.0, 0.0, 103.0],
    [1.0, 0.0, 0.0, 0.0],
    [0.0, 0.0, 1.0, 0.0],
    [0.0, 0.0, 0.0, 1.0]
],
  "dcmmeta_shape": [104, 104, 60, 488],
  "dcmmeta_slice_dim": 2,
  "dcmmeta_version": 0.6,
  "global": {
    "const": {
      "AcquisitionMatrix": [104, 0, 0, 104],
      "AngioFlag": "N",
      "BitsAllocated": 16,
      "BitsStored": 16,
      "BodyPartExamined": "BRAIN",
      "Columns": 832,
      "EchoNumbers": 1,
      "EchoTime": 37.0,
      "EchoTrainLength": 104,
      "FlipAngle": 52.0,
      "HighBit": 15,
      "ImageOrientationPatient": [0.99997714306715, -0.0003331749113, -0.0067529502991, -0.0012217348464, 0.97343934932073, -0.2289417842116],
      "ImagePositionPatient": [-832.24469463743, -823.53071776203, 161.96869706094],
      "ImageType": [
        "ORIGINAL",
        "PRIMARY",
        "M",
        "MB",
        "ND",
        "MOSAIC"
],
      "ImagedNucleus": "1H",
      "ImagingFrequency": 123.249734,
      "InPlanePhaseEncodingDirection": "COL",
      "MRAcquisitionType": "2D",
      "MagneticFieldStrength": 3.0,
      "Manufacturer": "SIEMENS",
      "ManufacturerModelName": "Prisma_fit",
      "Modality": "MR",
      "NumberOfAverages": 1.0,
      "NumberOfPhaseEncodingSteps": 104,
      "PercentPhaseFieldOfView": 100.0,
      "PercentSampling": 100.0,
      "PerformedProcedureStepStartTime": "090230.749000",
      "PhotometricInterpretation": "MONOCHROME2",
      "PixelBandwidth": 2290.0,
      "PixelRepresentation": 0,
      "PixelSpacing": [2.0, 2.0],
      "ProtocolName": "func_task-friends-s07e20b",
      "RepetitionTime": 1490.0,
      "Rows": 832,
      "SAR": 0.05184199183479,
      "SamplesPerPixel": 1,
      "ScanOptions": "FS",
      "ScanningSequence": "EP",
      "SequenceName": "epfid2d1_104",
      "SequenceVariant": [
        "SK",
        "SS"
],
      "SeriesDescription": "func_task-friends-s07e20b",
      "SeriesNumber": 14,
      "SeriesTime": "093600.913000",
      "SliceLocation": -36.41435847089,
      "SliceThickness": 2.0,
      "SmallestImagePixelValue": 0,
      "SoftwareVersions": "syngo MR E11",
      "SpacingBetweenSlices": 2.0000000193807,
      "SpecificCharacterSet": "ISO_IR 100",
      "StudyID": "1",
      "StudyTime": "090230.512000",
      "TransmitCoilName": "Body",
      "VariableFlipAngleFlag": "N",
      "WindowCenterWidthExplanation": "Algo1",
      "dBdt": 0.0},
    "slices": {}
  },
  "time": {
    "samples": {
      "AcquisitionNumber": [1, 2, 3, 4, 5, 6, 7, 8, 9, 10, 11, 12, 13, 14, 15, 16, 17, 18, 19, 20, 21, 22, 23, 24, 25, 26, 27, 28, 29, 30, 31, 32, 33, 34, 35, 36, 37, 38, 39, 40, 41, 42, 43, 44, 45, 46, 47, 48, 49, 50, 51, 52, 53, 54, 55, 56, 57, 58, 59, 60, 61, 62, 63, 64, 65, 66, 67, 68, 69, 70, 71, 72, 73, 74, 75, 76, 77, 78, 79, 80, 81, 82, 83, 84, 85, 86, 87, 88, 89, 90, 91, 92, 93, 94, 95, 96, 97, 98, 99, 100, 101, 102, 103, 104, 105, 106, 107, 108, 109, 110, 111, 112, 113, 114, 115, 116, 117, 118, 119, 120, 121, 122, 123, 124, 125, 126, 127, 128, 129, 130, 131, 132, 133, 134, 135, 136, 137, 138, 139, 140, 141, 142, 143, 144, 145, 146, 147, 148, 149, 150, 151, 152, 153, 154, 155, 156, 157, 158, 159, 160, 161, 162, 163, 164, 165, 166, 167, 168, 169, 170, 171, 172, 173, 174, 175, 176, 177, 178, 179, 180, 181, 182, 183, 184, 185, 186, 187, 188, 189, 190, 191, 192, 193, 194, 195, 196, 197, 198, 199, 200, 201, 202, 203, 204, 205, 206, 207, 208, 209, 210, 211, 212, 213, 214, 215, 216, 217, 218, 219, 220, 221, 222, 223, 224, 225, 226, 227, 228, 229, 230, 231, 232, 233, 234, 235, 236, 237, 238, 239, 240, 241, 242, 243, 244, 245, 246, 247, 248, 249, 250, 251, 252, 253, 254, 255, 256, 257, 258, 259, 260, 261, 262, 263, 264, 265, 266, 267, 268, 269, 270, 271, 272, 273, 274, 275, 276, 277, 278, 279, 280, 281, 282, 283, 284, 285, 286, 287, 288, 289, 290, 291, 292, 293, 294, 295, 296, 297, 298, 299, 300, 301, 302, 303, 304, 305, 306, 307, 308, 309, 310, 311, 312, 313, 314, 315, 316, 317, 318, 319, 320, 321, 322, 323, 324, 325, 326, 327, 328, 329, 330, 331, 332, 333, 334, 335, 336, 337, 338, 339, 340, 341, 342, 343, 344, 345, 346, 347, 348, 349, 350, 351, 352, 353, 354, 355, 356, 357, 358, 359, 360, 361, 362, 363, 364, 365, 366, 367, 368, 369, 370, 371, 372, 373, 374, 375, 376, 377, 378, 379, 380, 381, 382, 383, 384, 385, 386, 387, 388, 389, 390, 391, 392, 393, 394, 395, 396, 397, 398, 399, 400, 401, 402, 403, 404, 405, 406, 407, 408, 409, 410, 411, 412, 413, 414, 415, 416, 417, 418, 419, 420, 421, 422, 423, 424, 425, 426, 427, 428, 429, 430, 431, 432, 433, 434, 435, 436, 437, 438, 439, 440, 441, 442, 443, 444, 445, 446, 447, 448, 449, 450, 451, 452, 453, 454, 455, 456, 457, 458, 459, 460, 461, 462, 463, 464, 465, 466, 467, 468, 469, 470, 471, 472, 473, 474, 475, 476, 477, 478, 479, 480, 481, 482, 483, 484, 485, 486, 487, 488],
      "AcquisitionTime": ["093432.490000", "093433.980000", "093435.470000", "093436.960000", "093438.450000", "093439.940000", "093441.430000", "093442.920000", "093444.410000", "093445.900000", "093447.390000", "093448.880000", "093450.370000", "093451.860000", "093453.350000", "093454.840000", "093456.330000", "093457.820000", "093459.310000", "093500.800000", "093502.290000", "093503.780000", "093505.270000", "093506.760000", "093508.250000", "093509.740000", "093511.230000", "093512.720000", "093514.210000", "093515.700000", "093517.190000", "093518.680000", "093520.170000", "093521.660000", "093523.150000", "093524.640000", "093526.130000", "093527.620000", "093529.110000", "093530.600000", "093532.090000", "093533.580000", "093535.070000", "093536.560000", "093538.050000", "093539.540000", "093541.030000", "093542.520000", "093544.010000", "093545.500000", "093546.990000", "093548.480000", "093549.970000", "093551.460000", "093552.950000", "093554.440000", "093555.930000", "093557.420000", "093558.910000", "093600.400000", "093601.890000", "093603.380000", "093604.870000", "093606.360000", "093607.850000", "093609.340000", "093610.830000", "093612.320000", "093613.810000", "093615.300000", "093616.790000", "093618.280000", "093619.770000", "093621.260000", "093622.750000", "093624.240000", "093625.730000", "093627.220000", "093628.710000", "093630.200000", "093631.690000", "093633.180000", "093634.670000", "093636.160000", "093637.650000", "093639.140000", "093640.630000", "093642.120000", "093643.610000", "093645.100000", "093646.590000", "093648.080000", "093649.570000", "093651.060000", "093652.550000", "093654.040000", "093655.530000", "093657.020000", "093658.510000", "093700.000000", "093701.490000", "093702.980000", "093704.470000", "093705.960000", "093707.450000", "093708.940000", "093710.430000", "093711.920000", "093713.410000", "093714.900000", "093716.390000", "093717.880000", "093719.370000", "093720.860000", "093722.350000", "093723.840000", "093725.330000", "093726.820000", "093728.310000", "093729.800000", "093731.290000", "093732.780000", "093734.270000", "093735.760000", "093737.250000", "093738.740000", "093740.230000", "093741.720000", "093743.210000", "093744.700000", "093746.190000", "093747.680000", "093749.170000", "093750.660000", "093752.150000", "093753.640000", "093755.130000", "093756.620000", "093758.110000", "093759.600000", "093801.090000", "093802.580000", "093804.070000", "093805.560000", "093807.050000", "093808.540000", "093810.030000", "093811.520000", "093813.010000", "093814.500000", "093815.990000", "093817.480000", "093818.970000", "093820.460000", "093821.950000", "093823.440000", "093824.930000", "093826.420000", "093827.910000", "093829.400000", "093830.890000", "093832.380000", "093833.870000", "093835.360000", "093836.850000", "093838.340000", "093839.830000", "093841.320000", "093842.810000", "093844.300000", "093845.790000", "093847.280000", "093848.770000", "093850.260000", "093851.750000", "093853.240000", "093854.730000", "093856.220000", "093857.710000", "093859.200000", "093900.690000", "093902.180000", "093903.670000", "093905.160000", "093906.650000", "093908.140000", "093909.630000", "093911.120000", "093912.610000", "093914.100000", "093915.590000", "093917.080000", "093918.570000", "093920.060000", "093921.550000", "093923.040000", "093924.530000", "093926.020000", "093927.510000", "093929.000000", "093930.490000", "093931.980000", "093933.470000", "093934.960000", "093936.450000", "093937.940000", "093939.430000", "093940.920000", "093942.410000", "093943.900000", "093945.390000", "093946.880000", "093948.370000", "093949.860000", "093951.350000", "093952.840000", "093954.330000", "093955.820000", "093957.310000", "093958.800000", "094000.290000", "094001.780000", "094003.270000", "094004.760000", "094006.250000", "094007.740000", "094009.230000", "094010.720000", "094012.210000", "094013.700000", "094015.190000", "094016.680000", "094018.170000", "094019.660000", "094021.150000", "094022.640000", "094024.130000", "094025.620000", "094027.110000", "094028.600000", "094030.090000", "094031.580000", "094033.070000", "094034.560000", "094036.050000", "094037.540000", "094039.030000", "094040.520000", "094042.010000", "094043.500000", "094044.990000", "094046.480000", "094047.970000", "094049.460000", "094050.950000", "094052.440000", "094053.930000", "094055.420000", "094056.910000", "094058.400000", "094059.890000", "094101.380000", "094102.870000", "094104.360000", "094105.850000", "094107.340000", "094108.830000", "094110.320000", "094111.810000", "094113.300000", "094114.790000", "094116.280000", "094117.770000", "094119.260000", "094120.750000", "094122.240000", "094123.730000", "094125.220000", "094126.710000", "094128.200000", "094129.690000", "094131.180000", "094132.670000", "094134.160000", "094135.650000", "094137.140000", "094138.630000", "094140.120000", "094141.610000", "094143.100000", "094144.590000", "094146.080000", "094147.570000", "094149.060000", "094150.550000", "094152.040000", "094153.530000", "094155.020000", "094156.510000", "094158.000000", "094159.490000", "094200.980000", "094202.470000", "094203.960000", "094205.450000", "094206.940000", "094208.430000", "094209.920000", "094211.410000", "094212.900000", "094214.390000", "094215.880000", "094217.370000", "094218.860000", "094220.350000", "094221.840000", "094223.330000", "094224.820000", "094226.310000", "094227.800000", "094229.290000", "094230.780000", "094232.270000", "094233.760000", "094235.250000", "094236.740000", "094238.230000", "094239.720000", "094241.210000", "094242.700000", "094244.190000", "094245.680000", "094247.170000", "094248.660000", "094250.150000", "094251.640000", "094253.130000", "094254.620000", "094256.110000", "094257.600000", "094259.090000", "094300.580000", "094302.070000", "094303.560000", "094305.050000", "094306.540000", "094308.030000", "094309.520000", "094311.010000", "094312.500000", "094313.990000", "094315.480000", "094316.970000", "094318.460000", "094319.950000", "094321.440000", "094322.930000", "094324.420000", "094325.910000", "094327.400000", "094328.890000", "094330.380000", "094331.870000", "094333.360000", "094334.850000", "094336.340000", "094337.830000", "094339.320000", "094340.810000", "094342.300000", "094343.790000", "094345.280000", "094346.770000", "094348.260000", "094349.750000", "094351.240000", "094352.730000", "094354.220000", "094355.710000", "094357.200000", "094358.690000", "094400.180000", "094401.670000", "094403.160000", "094404.650000", "094406.140000", "094407.630000", "094409.120000", "094410.610000", "094412.100000", "094413.590000", "094415.080000", "094416.570000", "094418.060000", "094419.550000", "094421.040000", "094422.530000", "094424.020000", "094425.510000", "094427.000000", "094428.490000", "094429.980000", "094431.470000", "094432.960000", "094434.450000", "094435.940000", "094437.430000", "094438.920000", "094440.410000", "094441.900000", "094443.390000", "094444.880000", "094446.370000", "094447.860000", "094449.350000", "094450.840000", "094452.330000", "094453.820000", "094455.310000", "094456.800000", "094458.290000", "094459.780000", "094501.270000", "094502.760000", "094504.250000", "094505.740000", "094507.230000", "094508.720000", "094510.210000", "094511.700000", "094513.190000", "094514.680000", "094516.170000", "094517.660000", "094519.150000", "094520.640000", "094522.130000", "094523.620000", "094525.110000", "094526.600000", "094528.090000", "094529.580000", "094531.070000", "094532.560000", "094534.050000", "094535.540000", "094537.030000", "094538.520000", "094540.010000", "094541.500000", "094542.990000", "094544.480000", "094545.970000", "094547.460000", "094548.950000", "094550.440000", "094551.930000", "094553.420000", "094554.910000", "094556.400000", "094557.890000", "094559.380000", "094600.870000", "094602.360000", "094603.850000", "094605.340000", "094606.830000", "094608.320000", "094609.810000", "094611.300000", "094612.790000", "094614.280000", "094615.770000", "094617.260000", "094618.750000", "094620.240000", "094621.730000", "094623.220000", "094624.710000", "094626.200000", "094627.690000", "094629.180000", "094630.670000", "094632.160000", "094633.650000", "094635.140000", "094636.630000", "094638.120000"],
      "ContentTime": ["093600.916000", "093600.919000", "093600.922000", "093600.925000", "093600.927000", "093600.930000", "093600.933000", "093600.944000", "093600.947000", "093600.950000", "093600.953000", "093600.956000", "093600.959000", "093600.961000", "093600.964000", "093600.967000", "093600.970000", "093600.973000", "093600.976000", "093600.979000", "093600.982000", "093600.984000", "093600.987000", "093600.990000", "093600.993000", "093600.996000", "093601.000000", "093601.007000", "093601.010000", "093601.013000", "093601.016000", "093601.019000", "093601.022000", "093601.025000", "093601.027000", "093601.030000", "093620.888000", "093620.892000", "093620.895000", "093620.898000", "093620.901000", "093620.903000", "093620.912000", "093620.914000", "093620.917000", "093620.920000", "093620.923000", "093620.926000", "093620.929000", "093620.932000", "093620.934000", "093620.937000", "093620.940000", "093620.943000", "093620.953000", "093620.956000", "093620.959000", "093640.888000", "093640.891000", "093640.894000", "093640.896000", "093640.899000", "093640.902000", "093640.905000", "093640.908000", "093640.911000", "093640.914000", "093640.917000", "093640.919000", "093640.922000", "093640.925000", "093640.928000", "093640.931000", "093640.934000", "093640.936000", "093640.939000", "093640.942000", "093720.888000", "093720.891000", "093720.894000", "093720.900000", "093720.903000", "093720.906000", "093720.909000", "093720.912000", "093720.915000", "093720.917000", "093720.920000", "093720.923000", "093720.926000", "093720.929000", "093720.932000", "093720.935000", "093720.938000", "093720.940000", "093720.943000", "093720.946000", "093720.949000", "093720.952000", "093720.955000", "093720.958000", "093720.960000", "093720.963000", "093720.966000", "093720.969000", "093720.972000", "093720.975000", "093720.977000", "093720.980000", "093800.888000", "093800.891000", "093800.894000", "093800.897000", "093800.899000", "093800.902000", "093800.905000", "093800.908000", "093800.911000", "093800.919000", "093800.922000", "093800.925000", "093800.928000", "093800.930000", "093800.933000", "093800.936000", "093800.939000", "093800.942000", "093800.945000", "093800.948000", "093800.951000", "093800.953000", "093800.964000", "093800.967000", "093800.970000", "093800.972000", "093800.975000", "093840.888000", "093840.891000", "093840.894000", "093840.897000", "093840.900000", "093840.902000", "093840.905000", "093840.908000", "093840.911000", "093840.914000", "093840.917000", "093840.920000", "093840.922000", "093840.925000", "093840.928000", "093840.931000", "093840.934000", "093840.937000", "093840.940000", "093840.944000", "093840.946000", "093840.949000", "093840.952000", "093840.955000", "093840.976000", "093840.978000", "093920.888000", "093920.891000", "093920.894000", "093920.897000", "093920.900000", "093920.902000", "093920.905000", "093920.908000", "093920.911000", "093920.914000", "093920.917000", "093920.920000", "093920.923000", "093920.925000", "093920.928000", "093920.931000", "093920.934000", "093920.937000", "093920.940000", "093920.942000", "093920.945000", "093920.948000", "093920.951000", "093920.954000", "093920.957000", "093920.960000", "093920.963000", "094000.888000", "094000.891000", "094000.894000", "094000.896000", "094000.899000", "094000.902000", "094000.905000", "094000.908000", "094000.911000", "094000.914000", "094000.917000", "094000.919000", "094000.922000", "094000.925000", "094000.928000", "094000.931000", "094000.934000", "094000.937000", "094000.951000", "094000.954000", "094000.957000", "094000.960000", "094000.963000", "094000.966000", "094000.969000", "094000.972000", "094000.975000", "094040.888000", "094040.891000", "094040.894000", "094040.897000", "094040.900000", "094040.908000", "094040.911000", "094040.914000", "094040.917000", "094040.920000", "094040.922000", "094040.925000", "094040.928000", "094040.931000", "094040.934000", "094040.937000", "094040.940000", "094040.943000", "094040.946000", "094040.948000", "094040.951000", "094040.954000", "094040.957000", "094040.960000", "094040.963000", "094040.966000", "094040.969000", "094120.888000", "094120.891000", "094120.894000", "094120.897000", "094120.900000", "094120.902000", "094120.905000", "094120.908000", "094120.911000", "094120.914000", "094120.917000", "094120.920000", "094120.923000", "094120.926000", "094120.928000", "094120.931000", "094120.934000", "094120.937000", "094120.940000", "094120.943000", "094120.945000", "094120.961000", "094120.964000", "094120.967000", "094120.970000", "094120.973000", "094120.975000", "094200.888000", "094200.891000", "094200.894000", "094200.897000", "094200.899000", "094200.902000", "094200.911000", "094200.914000", "094200.917000", "094200.920000", "094200.922000", "094200.925000", "094200.928000", "094200.931000", "094200.934000", "094200.937000", "094200.940000", "094200.943000", "094200.946000", "094200.949000", "094200.951000", "094200.954000", "094200.957000", "094200.960000", "094200.963000", "094200.966000", "094200.969000", "094240.888000", "094240.891000", "094240.894000", "094240.897000", "094240.900000", "094240.902000", "094240.905000", "094240.908000", "094240.911000", "094240.914000", "094240.917000", "094240.920000", "094240.923000", "094240.925000", "094240.929000", "094240.932000", "094240.934000", "094240.937000", "094240.940000", "094240.943000", "094240.946000", "094240.949000", "094240.952000", "094240.955000", "094240.958000", "094240.961000", "094320.888000", "094320.891000", "094320.894000", "094320.897000", "094320.900000", "094320.903000", "094320.905000", "094320.908000", "094320.911000", "094320.914000", "094320.917000", "094320.920000", "094320.923000", "094320.926000", "094320.928000", "094320.931000", "094320.934000", "094320.937000", "094320.940000", "094320.943000", "094320.946000", "094320.949000", "094320.951000", "094320.954000", "094320.957000", "094320.960000", "094320.963000", "094400.888000", "094400.891000", "094400.894000", "094400.897000", "094400.899000", "094400.902000", "094400.905000", "094400.908000", "094400.917000", "094400.920000", "094400.923000", "094400.926000", "094400.929000", "094400.932000", "094400.935000", "094400.938000", "094400.940000", "094400.943000", "094400.946000", "094400.949000", "094400.955000", "094400.958000", "094400.961000", "094400.964000", "094400.967000", "094400.970000", "094400.973000", "094440.888000", "094440.891000", "094440.894000", "094440.897000", "094440.900000", "094440.902000", "094440.905000", "094440.908000", "094440.911000", "094440.914000", "094440.917000", "094440.920000", "094440.923000", "094440.926000", "094440.929000", "094440.932000", "094440.935000", "094440.938000", "094440.941000", "094440.944000", "094440.946000", "094440.949000", "094440.952000", "094440.955000", "094440.958000", "094440.961000", "094440.964000", "094520.888000", "094520.891000", "094520.894000", "094520.897000", "094520.900000", "094520.902000", "094520.905000", "094520.908000", "094520.911000", "094520.914000", "094520.917000", "094520.920000", "094520.923000", "094520.926000", "094520.928000", "094520.931000", "094520.934000", "094520.937000", "094520.940000", "094520.943000", "094520.946000", "094520.949000", "094520.952000", "094520.954000", "094520.957000", "094520.960000", "094520.963000", "094600.888000", "094600.891000", "094600.894000", "094600.902000", "094600.905000", "094600.907000", "094600.910000", "094600.913000", "094600.916000", "094600.919000", "094600.922000", "094600.925000", "094600.928000", "094600.931000", "094600.933000", "094600.936000", "094600.939000", "094600.942000", "094600.945000", "094600.948000", "094600.951000", "094600.953000", "094600.956000", "094600.959000", "094600.962000", "094600.965000", "094600.968000", "094640.888000", "094640.891000", "094640.894000", "094640.897000", "094640.900000", "094640.903000", "094640.905000", "094640.908000", "094640.911000", "094640.914000", "094640.917000", "094640.920000", "094640.923000", "094640.926000", "094640.929000", "094640.931000", "094640.934000", "094640.937000", "094640.940000", "094640.943000", "094640.946000", "094640.949000", "094640.952000", "094640.954000", "094640.957000", "094640.960000", "094640.963000", "094645.350000", "094645.353000", "094645.356000"],
