{
  "AcquisitionMatrixPE": 104,
  "AcquisitionNumber": 1,
  "AcquisitionTime": "09:48:22.312500",
  "BandwidthPerPixelPhaseEncode": 17.17,
  "BaseResolution": 104,
  "BodyPartExamined": "BRAIN",
  "CoilCombinationMethod": "Sum of Squares",
  "ConsistencyInfo": "N4_VE11C_LATEST_20160120",
  "ConversionSoftware": "dcm2niix",
  "ConversionSoftwareVersion": "v1.0.20230411",
  "DerivedVendorReportedEchoSpacing": 0.000560011,
  "DeviceSerialNumber": "167006",
  "DwellTime": 2.1e-06,
  "EchoTime": 0.037,
  "EchoTrainLength": 104,
  "EffectiveEchoSpacing": 0.000560011,
  "FlipAngle": 52,
  "HeudiconvVersion": "0.5.3.post861+ge7d3c7f",
  "ImageComments": "Unaliased MB4/PE3/LB",
  "ImageOrientationPatientDICOM": [0.999977, -0.000333175, -0.00675295, -0.00122173, 0.973439, -0.228942],
  "ImageOrientationText": "Tra>Cor(-13.2)>Sag(-0.4)",
  "ImageType": [
    "ORIGINAL",
    "PRIMARY",
    "M",
    "MB",
    "ND",
    "MOSAIC"
],
  "ImagingFrequency": 123.249739,
  "InPlanePhaseEncodingDirectionDICOM": "COL",
  "InstitutionAddress": "Chemin Queen-Mary 4565,Montreal,District,CA,H3W 1W5",
  "InstitutionName": "IUGM",
  "InstitutionalDepartmentName": "Department",
  "MRAcquisitionType": "2D",
  "MagneticFieldStrength": 3,
  "Manufacturer": "Siemens",
  "ManufacturersModelName": "Prisma_fit",
  "MatrixCoilMode": "SENSE",
  "Modality": "MR",
  "MultibandAccelerationFactor": 4,
  "NonlinearGradientCorrection": false,
  "PartialFourier": 1,
  "PatientPosition": "HFS",
  "PercentPhaseFOV": 100,
  "PercentSampling": 100,
  "PhaseEncodingDirection": "j",
  "PhaseEncodingSteps": 104,
  "PhaseResolution": 1,
  "PixelBandwidth": 2290,
  "ProcedureStepDescription": "video^friends",
  "ProtocolName": "func_task-friends-s07e21a",
  "PulseSequenceDetails": "%CustomerSeq%\\cmrr_mbep2d_bold",
  "ReceiveCoilActiveElements": "HC1-7;NC1,2",
  "ReceiveCoilName": "HeadNeck_64",
  "ReconMatrixPE": 104,
  "RepetitionTime": 1.49,
  "SAR": 0.051842,
  "ScanOptions": "FS",
  "ScanningSequence": "EP",
  "SequenceName": "epfid2d1_104",
  "SequenceVariant": "SK\\SS",
  "SeriesDescription": "func_task-friends-s07e21a",
  "SeriesNumber": 16,
  "ShimSetting": [606, -7241, -8778, 662, 87, -21, 27, 37],
  "SliceThickness": 2,
  "SliceTiming": [0, 0.7825, 0.0975, 0.88, 0.195, 0.98, 0.2925, 1.0775, 0.39, 1.175, 0.49, 1.2725, 0.5875, 1.37, 0.685, 0, 0.7825, 0.0975, 0.88, 0.195, 0.98, 0.2925, 1.0775, 0.39, 1.175, 0.49, 1.2725, 0.5875, 1.37, 0.685, 0, 0.7825, 0.0975, 0.88, 0.195, 0.98, 0.2925, 1.0775, 0.39, 1.175, 0.49, 1.2725, 0.5875, 1.37, 0.685, 0, 0.7825, 0.0975, 0.88, 0.195, 0.98, 0.2925, 1.0775, 0.39, 1.175, 0.49, 1.2725, 0.5875, 1.37, 0.685],
  "SoftwareVersions": "syngo MR E11",
  "SpacingBetweenSlices": 2,
  "StationName": "MRC35049",
  "TaskName": "s07e21a",
  "TotalReadoutTime": 0.0576811,
  "TxRefAmp": 228.024,
  "WipMemBlock": "601fe3bb-7e0e-4b41-9e0c-702d3d4653ca||Sequence: R017 ve11c/master r/75a17815+; Jun 28 2022 16:32:11 by eja",
  "dcmmeta_affine": [
    [-1.999954342842102, -0.0024434695951640606, -0.013299730606377125, 105.40243530273438],
    [0.0006663498352281749, 1.9468786716461182, -0.4578896164894104, -85.41908264160156],
    [-0.013505900278687477, 0.4578835666179657, 1.9468333721160889, -56.779075622558594],
    [0.0, 0.0, 0.0, 1.0]
],
  "dcmmeta_reorient_transform": [
    [0.0, -1.0, 0.0, 103.0],
    [1.0, 0.0, 0.0, 0.0],
    [0.0, 0.0, 1.0, 0.0],
    [0.0, 0.0, 0.0, 1.0]
],
  "dcmmeta_shape": [104, 104, 60, 429],
  "dcmmeta_slice_dim": 2,
  "dcmmeta_version": 0.6,
  "global": {
    "const": {
      "AcquisitionMatrix": [104, 0, 0, 104],
      "AngioFlag": "N",
      "BitsAllocated": 16,
      "BitsStored": 16,
      "BodyPartExamined": "BRAIN",
      "Columns": 832,
      "EchoNumbers": 1,
      "EchoTime": 37.0,
      "EchoTrainLength": 104,
      "FlipAngle": 52.0,
      "HighBit": 15,
      "ImageOrientationPatient": [0.99997714306715, -0.0003331749113, -0.0067529502991, -0.0012217348464, 0.97343934932073, -0.2289417842116],
      "ImagePositionPatient": [-832.24469463743, -823.53071776203, 161.96869706094],
      "ImageType": [
        "ORIGINAL",
        "PRIMARY",
        "M",
        "MB",
        "ND",
        "MOSAIC"
],
      "ImagedNucleus": "1H",
      "ImagingFrequency": 123.249739,
      "InPlanePhaseEncodingDirection": "COL",
      "MRAcquisitionType": "2D",
      "MagneticFieldStrength": 3.0,
      "Manufacturer": "SIEMENS",
      "ManufacturerModelName": "Prisma_fit",
      "Modality": "MR",
      "NumberOfAverages": 1.0,
      "NumberOfPhaseEncodingSteps": 104,
      "PercentPhaseFieldOfView": 100.0,
      "PercentSampling": 100.0,
      "PerformedProcedureStepStartTime": "090230.749000",
      "PhotometricInterpretation": "MONOCHROME2",
      "PixelBandwidth": 2290.0,
      "PixelRepresentation": 0,
      "PixelSpacing": [2.0, 2.0],
      "ProtocolName": "func_task-friends-s07e21a",
      "RepetitionTime": 1490.0,
      "Rows": 832,
      "SAR": 0.05184199573094,
      "SamplesPerPixel": 1,
      "ScanOptions": "FS",
      "ScanningSequence": "EP",
      "SequenceName": "epfid2d1_104",
      "SequenceVariant": [
        "SK",
        "SS"
],
      "SeriesDescription": "func_task-friends-s07e21a",
      "SeriesNumber": 16,
      "SeriesTime": "094918.142000",
      "SliceLocation": -36.41435847089,
      "SliceThickness": 2.0,
      "SmallestImagePixelValue": 0,
      "SoftwareVersions": "syngo MR E11",
      "SpacingBetweenSlices": 2.0000000193807,
      "SpecificCharacterSet": "ISO_IR 100",
      "StudyID": "1",
      "StudyTime": "090230.512000",
      "TransmitCoilName": "Body",
      "VariableFlipAngleFlag": "N",
      "WindowCenterWidthExplanation": "Algo1",
      "dBdt": 0.0},
    "slices": {}
  },
  "time": {
    "samples": {
      "AcquisitionNumber": [1, 2, 3, 4, 5, 6, 7, 8, 9, 10, 11, 12, 13, 14, 15, 16, 17, 18, 19, 20, 21, 22, 23, 24, 25, 26, 27, 28, 29, 30, 31, 32, 33, 34, 35, 36, 37, 38, 39, 40, 41, 42, 43, 44, 45, 46, 47, 48, 49, 50, 51, 52, 53, 54, 55, 56, 57, 58, 59, 60, 61, 62, 63, 64, 65, 66, 67, 68, 69, 70, 71, 72, 73, 74, 75, 76, 77, 78, 79, 80, 81, 82, 83, 84, 85, 86, 87, 88, 89, 90, 91, 92, 93, 94, 95, 96, 97, 98, 99, 100, 101, 102, 103, 104, 105, 106, 107, 108, 109, 110, 111, 112, 113, 114, 115, 116, 117, 118, 119, 120, 121, 122, 123, 124, 125, 126, 127, 128, 129, 130, 131, 132, 133, 134, 135, 136, 137, 138, 139, 140, 141, 142, 143, 144, 145, 146, 147, 148, 149, 150, 151, 152, 153, 154, 155, 156, 157, 158, 159, 160, 161, 162, 163, 164, 165, 166, 167, 168, 169, 170, 171, 172, 173, 174, 175, 176, 177, 178, 179, 180, 181, 182, 183, 184, 185, 186, 187, 188, 189, 190, 191, 192, 193, 194, 195, 196, 197, 198, 199, 200, 201, 202, 203, 204, 205, 206, 207, 208, 209, 210, 211, 212, 213, 214, 215, 216, 217, 218, 219, 220, 221, 222, 223, 224, 225, 226, 227, 228, 229, 230, 231, 232, 233, 234, 235, 236, 237, 238, 239, 240, 241, 242, 243, 244, 245, 246, 247, 248, 249, 250, 251, 252, 253, 254, 255, 256, 257, 258, 259, 260, 261, 262, 263, 264, 265, 266, 267, 268, 269, 270, 271, 272, 273, 274, 275, 276, 277, 278, 279, 280, 281, 282, 283, 284, 285, 286, 287, 288, 289, 290, 291, 292, 293, 294, 295, 296, 297, 298, 299, 300, 301, 302, 303, 304, 305, 306, 307, 308, 309, 310, 311, 312, 313, 314, 315, 316, 317, 318, 319, 320, 321, 322, 323, 324, 325, 326, 327, 328, 329, 330, 331, 332, 333, 334, 335, 336, 337, 338, 339, 340, 341, 342, 343, 344, 345, 346, 347, 348, 349, 350, 351, 352, 353, 354, 355, 356, 357, 358, 359, 360, 361, 362, 363, 364, 365, 366, 367, 368, 369, 370, 371, 372, 373, 374, 375, 376, 377, 378, 379, 380, 381, 382, 383, 384, 385, 386, 387, 388, 389, 390, 391, 392, 393, 394, 395, 396, 397, 398, 399, 400, 401, 402, 403, 404, 405, 406, 407, 408, 409, 410, 411, 412, 413, 414, 415, 416, 417, 418, 419, 420, 421, 422, 423, 424, 425, 426, 427, 428, 429],
      "AcquisitionTime": ["094822.312500", "094823.802500", "094825.292500", "094826.782500", "094828.272500", "094829.762500", "094831.252500", "094832.742500", "094834.232500", "094835.722500", "094837.212500", "094838.702500", "094840.192500", "094841.682500", "094843.172500", "094844.662500", "094846.152500", "094847.642500", "094849.132500", "094850.622500", "094852.112500", "094853.602500", "094855.092500", "094856.582500", "094858.072500", "094859.562500", "094901.052500", "094902.542500", "094904.032500", "094905.522500", "094907.012500", "094908.502500", "094909.992500", "094911.482500", "094912.972500", "094914.462500", "094915.952500", "094917.442500", "094918.932500", "094920.422500", "094921.912500", "094923.402500", "094924.892500", "094926.382500", "094927.872500", "094929.362500", "094930.852500", "094932.342500", "094933.832500", "094935.322500", "094936.812500", "094938.302500", "094939.792500", "094941.282500", "094942.772500", "094944.262500", "094945.752500", "094947.242500", "094948.732500", "094950.222500", "094951.712500", "094953.202500", "094954.692500", "094956.182500", "094957.672500", "094959.162500", "095000.652500", "095002.142500", "095003.632500", "095005.122500", "095006.612500", "095008.102500", "095009.592500", "095011.082500", "095012.572500", "095014.062500", "095015.552500", "095017.042500", "095018.532500", "095020.022500", "095021.512500", "095023.002500", "095024.492500", "095025.982500", "095027.472500", "095028.962500", "095030.452500", "095031.942500", "095033.432500", "095034.922500", "095036.412500", "095037.902500", "095039.392500", "095040.882500", "095042.372500", "095043.862500", "095045.352500", "095046.842500", "095048.332500", "095049.822500", "095051.312500", "095052.802500", "095054.292500", "095055.782500", "095057.272500", "095058.762500", "095100.252500", "095101.742500", "095103.232500", "095104.722500", "095106.212500", "095107.702500", "095109.192500", "095110.682500", "095112.172500", "095113.662500", "095115.152500", "095116.642500", "095118.132500", "095119.622500", "095121.112500", "095122.602500", "095124.092500", "095125.582500", "095127.072500", "095128.562500", "095130.052500", "095131.542500", "095133.032500", "095134.522500", "095136.012500", "095137.502500", "095138.992500", "095140.482500", "095141.972500", "095143.462500", "095144.952500", "095146.442500", "095147.932500", "095149.422500", "095150.912500", "095152.402500", "095153.892500", "095155.382500", "095156.872500", "095158.362500", "095159.852500", "095201.342500", "095202.832500", "095204.322500", "095205.812500", "095207.302500", "095208.792500", "095210.282500", "095211.772500", "095213.262500", "095214.752500", "095216.242500", "095217.732500", "095219.222500", "095220.712500", "095222.202500", "095223.692500", "095225.182500", "095226.672500", "095228.162500", "095229.652500", "095231.142500", "095232.632500", "095234.122500", "095235.612500", "095237.102500", "095238.592500", "095240.082500", "095241.572500", "095243.062500", "095244.552500", "095246.042500", "095247.532500", "095249.022500", "095250.512500", "095252.002500", "095253.492500", "095254.982500", "095256.472500", "095257.962500", "095259.452500", "095300.942500", "095302.432500", "095303.922500", "095305.412500", "095306.902500", "095308.392500", "095309.882500", "095311.372500", "095312.862500", "095314.352500", "095315.842500", "095317.332500", "095318.822500", "095320.312500", "095321.802500", "095323.292500", "095324.782500", "095326.272500", "095327.762500", "095329.252500", "095330.742500", "095332.232500", "095333.722500", "095335.212500", "095336.702500", "095338.192500", "095339.682500", "095341.172500", "095342.662500", "095344.152500", "095345.642500", "095347.132500", "095348.622500", "095350.112500", "095351.602500", "095353.092500", "095354.582500", "095356.072500", "095357.562500", "095359.052500", "095400.542500", "095402.032500", "095403.522500", "095405.012500", "095406.502500", "095407.992500", "095409.482500", "095410.972500", "095412.462500", "095413.952500", "095415.442500", "095416.932500", "095418.422500", "095419.912500", "095421.402500", "095422.892500", "095424.382500", "095425.872500", "095427.362500", "095428.852500", "095430.342500", "095431.832500", "095433.322500", "095434.812500", "095436.302500", "095437.792500", "095439.282500", "095440.772500", "095442.262500", "095443.752500", "095445.242500", "095446.732500", "095448.222500", "095449.712500", "095451.202500", "095452.692500", "095454.182500", "095455.672500", "095457.162500", "095458.652500", "095500.142500", "095501.632500", "095503.122500", "095504.612500", "095506.102500", "095507.592500", "095509.082500", "095510.572500", "095512.062500", "095513.552500", "095515.042500", "095516.532500", "095518.022500", "095519.512500", "095521.002500", "095522.492500", "095523.982500", "095525.472500", "095526.962500", "095528.452500", "095529.942500", "095531.432500", "095532.922500", "095534.412500", "095535.902500", "095537.392500", "095538.882500", "095540.372500", "095541.862500", "095543.352500", "095544.842500", "095546.332500", "095547.822500", "095549.312500", "095550.802500", "095552.292500", "095553.782500", "095555.272500", "095556.762500", "095558.252500", "095559.742500", "095601.232500", "095602.722500", "095604.212500", "095605.702500", "095607.192500", "095608.682500", "095610.172500", "095611.662500", "095613.152500", "095614.642500", "095616.132500", "095617.622500", "095619.112500", "095620.602500", "095622.092500", "095623.582500", "095625.072500", "095626.562500", "095628.052500", "095629.542500", "095631.032500", "095632.522500", "095634.012500", "095635.502500", "095636.992500", "095638.482500", "095639.972500", "095641.462500", "095642.952500", "095644.442500", "095645.932500", "095647.422500", "095648.912500", "095650.402500", "095651.892500", "095653.382500", "095654.872500", "095656.362500", "095657.852500", "095659.342500", "095700.832500", "095702.322500", "095703.812500", "095705.302500", "095706.792500", "095708.282500", "095709.772500", "095711.262500", "095712.752500", "095714.242500", "095715.732500", "095717.222500", "095718.712500", "095720.202500", "095721.692500", "095723.182500", "095724.672500", "095726.162500", "095727.652500", "095729.142500", "095730.632500", "095732.122500", "095733.612500", "095735.102500", "095736.592500", "095738.082500", "095739.572500", "095741.062500", "095742.552500", "095744.042500", "095745.532500", "095747.022500", "095748.512500", "095750.002500", "095751.492500", "095752.982500", "095754.472500", "095755.962500", "095757.452500", "095758.942500", "095800.432500", "095801.922500", "095803.412500", "095804.902500", "095806.392500", "095807.882500", "095809.372500", "095810.862500", "095812.352500", "095813.842500", "095815.332500", "095816.822500", "095818.312500", "095819.802500", "095821.292500", "095822.782500", "095824.272500", "095825.762500", "095827.252500", "095828.742500", "095830.232500", "095831.722500", "095833.212500", "095834.702500", "095836.192500", "095837.682500", "095839.172500", "095840.662500", "095842.152500", "095843.642500", "095845.132500", "095846.622500", "095848.112500", "095849.602500", "095851.092500", "095852.582500", "095854.072500", "095855.562500", "095857.052500", "095858.542500", "095900.032500"],
      "ContentTime": ["094918.144000", "094918.148000", "094918.151000", "094938.115000", "094938.118000", "094938.121000", "094938.124000", "094938.127000", "094938.129000", "094938.145000", "094938.154000", "094938.157000", "094938.160000", "094938.163000", "094938.165000", "094938.168000", "094938.171000", "094938.174000", "094938.177000", "094938.180000", "094938.183000", "094938.186000", "094938.189000", "094958.115000", "094958.118000", "094958.130000", "094958.133000", "094958.135000", "094958.138000", "094958.141000", "094958.144000", "094958.147000", "094958.150000", "094958.152000", "094958.155000", "094958.158000", "094958.161000", "094958.164000", "094958.167000", "094958.170000", "094958.173000", "094958.175000", "094958.178000", "095018.115000", "095018.118000", "095018.121000", "095018.124000", "095018.127000", "095018.129000", "095018.132000", "095018.135000", "095018.138000", "095018.141000", "095018.144000", "095018.146000", "095018.149000", "095018.152000", "095018.155000", "095018.158000", "095018.171000", "095018.174000", "095018.177000", "095018.180000", "095038.115000", "095038.118000", "095038.122000", "095038.124000", "095038.127000", "095038.130000", "095038.133000", "095038.136000", "095038.140000", "095038.143000", "095038.146000", "095038.149000", "095038.151000", "095038.154000", "095038.157000", "095038.160000", "095038.164000", "095038.167000", "095038.170000", "095038.173000", "095038.176000", "095118.115000", "095118.118000", "095118.121000", "095118.124000", "095118.127000", "095118.130000", "095118.133000", "095118.135000", "095118.138000", "095118.141000", "095118.144000", "095118.147000", "095118.150000", "095118.153000", "095118.155000", "095118.158000", "095118.161000", "095118.164000", "095118.173000", "095118.176000", "095118.179000", "095118.182000", "095118.185000", "095118.188000", "095118.190000", "095118.193000", "095118.196000", "095118.199000", "095118.202000", "095118.205000", "095158.115000", "095158.118000", "095158.121000", "095158.124000", "095158.127000", "095158.130000", "095158.132000", "095158.135000", "095158.138000", "095158.141000", "095158.144000", "095158.147000", "095158.149000", "095158.152000", "095158.155000", "095158.158000", "095158.161000", "095158.164000", "095158.167000", "095158.170000", "095158.172000", "095158.175000", "095158.224000", "095158.227000", "095158.230000", "095158.233000", "095158.236000", "095238.115000", "095238.118000", "095238.121000", "095238.124000", "095238.127000", "095238.129000", "095238.132000", "095238.135000", "095238.138000", "095238.141000", "095238.144000", "095238.147000", "095238.150000", "095238.153000", "095238.156000", "095238.159000", "095238.169000", "095238.172000", "095238.175000", "095238.178000", "095238.181000", "095238.183000", "095238.186000", "095238.189000", "095238.192000", "095238.195000", "095318.115000", "095318.118000", "095318.121000", "095318.124000", "095318.127000", "095318.130000", "095318.135000", "095318.139000", "095318.142000", "095318.145000", "095318.148000", "095318.151000", "095318.154000", "095318.157000", "095318.160000", "095318.163000", "095318.166000", "095318.169000", "095318.172000", "095318.175000", "095318.178000", "095318.181000", "095318.184000", "095318.187000", "095318.190000", "095318.193000", "095318.196000", "095358.115000", "095358.118000", "095358.121000", "095358.124000", "095358.133000", "095358.136000", "095358.139000", "095358.142000", "095358.149000", "095358.152000", "095358.155000", "095358.157000", "095358.160000", "095358.163000", "095358.166000", "095358.169000", "095358.172000", "095358.175000", "095358.177000", "095358.180000", "095358.183000", "095358.186000", "095358.189000", "095358.192000", "095358.195000", "095358.198000", "095358.200000", "095438.115000", "095438.118000", "095438.121000", "095438.124000", "095438.127000", "095438.130000", "095438.142000", "095438.145000", "095438.148000", "095438.151000", "095438.154000", "095438.156000", "095438.159000", "095438.162000", "095438.165000", "095438.168000", "095438.171000", "095438.174000", "095438.184000", "095438.187000", "095438.190000", "095438.193000", "095438.196000", "095438.199000", "095438.201000", "095438.204000", "095438.207000", "095518.115000", "095518.118000", "095518.121000", "095518.124000", "095518.127000", "095518.130000", "095518.133000", "095518.135000", "095518.138000", "095518.141000", "095518.144000", "095518.147000", "095518.150000", "095518.153000", "095518.156000", "095518.159000", "095518.161000", "095518.164000", "095518.167000", "095518.170000", "095518.173000", "095518.176000", "095518.179000", "095518.182000", "095518.184000", "095518.187000", "095518.190000", "095558.115000", "095558.118000", "095558.121000", "095558.124000", "095558.127000", "095558.130000", "095558.132000", "095558.135000", "095558.138000", "095558.141000", "095558.144000", "095558.147000", "095558.150000", "095558.153000", "095558.155000", "095558.158000", "095558.161000", "095558.164000", "095558.167000", "095558.170000", "095558.173000", "095558.176000", "095558.179000", "095558.181000", "095558.184000", "095558.190000", "095558.193000", "095638.115000", "095638.118000", "095638.121000", "095638.124000", "095638.127000", "095638.130000", "095638.133000", "095638.135000", "095638.138000", "095638.141000", "095638.144000", "095638.147000", "095638.150000", "095638.153000", "095638.155000", "095638.158000", "095638.161000", "095638.164000", "095638.167000", "095638.170000", "095638.173000", "095638.176000", "095638.179000", "095638.181000", "095638.184000", "095638.187000", "095638.190000", "095718.115000", "095718.118000", "095718.121000", "095718.124000", "095718.127000", "095718.130000", "095718.133000", "095718.145000", "095718.148000", "095718.151000", "095718.154000", "095718.157000", "095718.160000", "095718.163000", "095718.166000", "095718.168000", "095718.171000", "095718.174000", "095718.177000", "095718.180000", "095718.183000", "095718.186000", "095718.190000", "095718.193000", "095718.196000", "095718.199000", "095758.115000", "095758.118000", "095758.121000", "095758.124000", "095758.127000", "095758.130000", "095758.133000", "095758.135000", "095758.138000", "095758.141000", "095758.144000", "095758.147000", "095758.150000", "095758.153000", "095758.156000", "095758.159000", "095758.161000", "095758.164000", "095758.167000", "095758.170000", "095758.173000", "095758.176000", "095758.179000", "095758.182000", "095758.184000", "095758.187000", "095758.190000", "095818.115000", "095818.118000", "095818.121000", "095818.124000", "095818.127000", "095818.130000", "095818.132000", "095818.135000", "095818.138000", "095818.141000", "095818.144000", "095818.147000", "095818.150000", "095818.153000", "095858.115000", "095858.118000", "095858.121000", "095858.124000", "095858.127000", "095858.130000", "095858.133000", "095858.136000", "095858.139000", "095858.142000", "095858.145000", "095858.148000", "095858.151000", "095858.153000", "095858.156000", "095858.159000", "095858.162000", "095858.165000", "095858.168000", "095858.188000", "095858.191000", "095858.193000", "095858.196000", "095858.199000", "095858.202000", "095858.205000", "095907.130000", "095907.133000", "095907.136000", "095907.139000", "095907.142000", "095907.144000", "095907.147000"],
      "InstanceCreationTime": ["094918.144000", "094918.148000", "094918.151000", "094938.115000", "094938.118000", "094938.121000", "094938.124000", "094938.127000", "094938.129000", "094938.145000", "094938.154000", "094938.157000", "094938.160000", "094938.163000", "094938.165000", "094938.168000", "094938.171000", "094938.174000", "094938.177000", "094938.180000", "094938.183000", "094938.186000", "094938.189000", "094958.115000", "094958.118000", "094958.130000", "094958.133000", "094958.135000", "094958.138000", "094958.141000", "094958.144000", "094958.147000", "094958.150000", "094958.152000", "094958.155000", "094958.158000", "094958.161000", "094958.164000", "094958.167000", "094958.170000", "094958.173000", "094958.175000", "094958.178000", "095018.115000", "095018.118000", "095018.121000", "095018.124000", "095018.127000", "095018.129000", "095018.132000", "095018.135000", "095018.138000", "095018.141000", "095018.144000", "095018.146000", "095018.149000", "095018.152000", "095018.155000", "095018.158000", "095018.171000", "095018.174000", "095018.177000", "095018.180000", "095038.115000", "095038.118000", "095038.122000", "095038.124000", "095038.127000", "095038.130000", "095038.133000", "095038.136000", "095038.140000", "095038.143000", "095038.146000", "095038.149000", "095038.151000", "095038.154000", "095038.157000", "095038.160000", "095038.164000", "095038.167000", "095038.170000", "095038.173000", "095038.176000", "095118.115000", "095118.118000", "095118.121000", "095118.124000", "095118.127000", "095118.130000", "095118.133000", "095118.135000", "095118.138000", "095118.141000", "095118.144000", "095118.147000", "095118.150000", "095118.153000", "095118.155000", "095118.158000", "095118.161000", "095118.164000", "095118.173000", "095118.176000", "095118.179000", "095118.182000", "095118.185000", "095118.188000", "095118.190000", "095118.193000", "095118.196000", "095118.199000", "095118.202000", "095118.205000", "095158.115000", "095158.118000", "095158.121000", "095158.124000", "095158.127000", "095158.130000", "095158.132000", "095158.135000", "095158.138000", "095158.141000", "095158.144000", "095158.147000", "095158.149000", "095158.152000", "095158.155000", "095158.158000", "095158.161000", "095158.164000", "095158.167000", "095158.170000", "095158.172000", "095158.175000", "095158.224000", "095158.227000", "095158.230000", "095158.233000", "095158.236000", "095238.115000", "095238.118000", "095238.121000", "095238.124000", "095238.127000", "095238.129000", "095238.132000", "095238.135000", "095238.138000", "095238.141000", "095238.144000", "095238.147000", "095238.150000", "095238.153000", "095238.156000", "095238.159000", "095238.169000", "095238.172000", "095238.175000", "095238.178000", "095238.181000", "095238.183000", "095238.186000", "095238.189000", "095238.192000", "095238.195000", "095318.115000", "095318.118000", "095318.121000", "095318.124000", "095318.127000", "095318.130000", "095318.135000", "095318.139000", "095318.142000", "095318.145000", "095318.148000", "095318.151000", "095318.154000", "095318.157000", "095318.160000", "095318.163000", "095318.166000", "095318.169000", "095318.172000", "095318.175000", "095318.178000", "095318.181000", "095318.184000", "095318.187000", "095318.190000", "095318.193000", "095318.196000", "095358.115000", "095358.118000", "095358.121000", "095358.124000", "095358.133000", "095358.136000", "095358.139000", "095358.142000", "095358.149000", "095358.152000", "095358.155000", "095358.157000", "095358.160000", "095358.163000", "095358.166000", "095358.169000", "095358.172000", "095358.175000", "095358.177000", "095358.180000", "095358.183000", "095358.186000", "095358.189000", "095358.192000", "095358.195000", "095358.198000", "095358.200000", "095438.115000", "095438.118000", "095438.121000", "095438.124000", "095438.127000", "095438.130000", "095438.142000", "095438.145000", "095438.148000", "095438.151000", "095438.154000", "095438.156000", "095438.159000", "095438.162000", "095438.165000", "095438.168000", "095438.171000", "095438.174000", "095438.184000", "095438.187000", "095438.190000", "095438.193000", "095438.196000", "095438.199000", "095438.201000", "095438.204000", "095438.207000", "095518.115000", "095518.118000", "095518.121000", "095518.124000", "095518.127000", "095518.130000", "095518.133000", "095518.135000", "095518.138000", "095518.141000", "095518.144000", "095518.147000", "095518.150000", "095518.153000", "095518.156000", "095518.159000", "095518.161000", "095518.164000", "095518.167000", "095518.170000", "095518.173000", "095518.176000", "095518.179000", "095518.182000", "095518.184000", "095518.187000", "095518.190000", "095558.115000", "095558.118000", "095558.121000", "095558.124000", "095558.127000", "095558.130000", "095558.132000", "095558.135000", "095558.138000", "095558.141000", "095558.144000", "095558.147000", "095558.150000", "095558.153000", "095558.155000", "095558.158000", "095558.161000", "095558.164000", "095558.167000", "095558.170000", "095558.173000", "095558.176000", "095558.179000", "095558.181000", "095558.184000", "095558.190000", "095558.193000", "095638.115000", "095638.118000", "095638.121000", "095638.124000", "095638.127000", "095638.130000", "095638.133000", "095638.135000", "095638.138000", "095638.141000", "095638.144000", "095638.147000", "095638.150000", "095638.153000", "095638.155000", "095638.158000", "095638.161000", "095638.164000", "095638.167000", "095638.170000", "095638.173000", "095638.176000", "095638.179000", "095638.181000", "095638.184000", "095638.187000", "095638.190000", "095718.115000", "095718.118000", "095718.121000", "095718.124000", "095718.127000", "095718.130000", "095718.133000", "095718.145000", "095718.148000", "095718.151000", "095718.154000", "095718.157000", "095718.160000", "095718.163000", "095718.166000", "095718.168000", "095718.171000", "095718.174000", "095718.177000", "095718.180000", "095718.183000", "095718.186000", "095718.190000", "095718.193000", "095718.196000", "095718.199000", "095758.115000", "095758.118000", "095758.121000", "095758.124000", "095758.127000", "095758.130000", "095758.133000", "095758.135000", "095758.138000", "095758.141000", "095758.144000", "095758.147000", "095758.150000", "095758.153000", "095758.156000", "095758.159000", "095758.161000", "095758.164000", "095758.167000", "095758.170000", "095758.173000", "095758.176000", "095758.179000", "095758.182000", "095758.184000", "095758.187000", "095758.190000", "095818.115000", "095818.118000", "095818.121000", "095818.124000", "095818.127000", "095818.130000", "095818.132000", "095818.135000", "095818.138000", "095818.141000", "095818.144000", "095818.147000", "095818.150000", "095818.153000", "095858.115000", "095858.118000", "095858.121000", "095858.124000", "095858.127000", "095858.130000", "095858.133000", "095858.136000", "095858.139000", "095858.142000", "095858.145000", "095858.148000", "095858.151000", "095858.153000", "095858.156000", "095858.159000", "095858.162000", "095858.165000", "095858.168000", "095858.188000", "095858.191000", "095858.193000", "095858.196000", "095858.199000", "095858.202000", "095858.205000", "095907.130000", "095907.133000", "095907.136000", "095907.139000", "095907.142000", "095907.144000", "095907.147000"],
