{
  "AcquisitionMatrixPE": 104,
  "AcquisitionNumber": 1,
  "AcquisitionTime": "09:21:32.600000",
  "BandwidthPerPixelPhaseEncode": 17.17,
  "BaseResolution": 104,
  "BodyPartExamined": "BRAIN",
  "CoilCombinationMethod": "Sum of Squares",
  "ConsistencyInfo": "N4_VE11C_LATEST_20160120",
  "ConversionSoftware": "dcm2niix",
  "ConversionSoftwareVersion": "v1.0.20230411",
  "DerivedVendorReportedEchoSpacing": 0.000560011,
  "DeviceSerialNumber": "167006",
  "DwellTime": 2.1e-06,
  "EchoTime": 0.037,
  "EchoTrainLength": 104,
  "EffectiveEchoSpacing": 0.000560011,
  "FlipAngle": 52,
  "HeudiconvVersion": "0.5.3.post861+ge7d3c7f",
  "ImageComments": "Unaliased MB4/PE3/LB",
  "ImageOrientationPatientDICOM": [0.999977, -0.000333175, -0.00675295, -0.00122173, 0.973439, -0.228942],
  "ImageOrientationText": "Tra>Cor(-13.2)>Sag(-0.4)",
  "ImageType": [
    "ORIGINAL",
    "PRIMARY",
    "M",
    "MB",
    "ND",
    "MOSAIC"
],
  "ImagingFrequency": 123.249724,
  "InPlanePhaseEncodingDirectionDICOM": "COL",
  "InstitutionAddress": "Chemin Queen-Mary 4565,Montreal,District,CA,H3W 1W5",
  "InstitutionName": "IUGM",
  "InstitutionalDepartmentName": "Department",
  "MRAcquisitionType": "2D",
  "MagneticFieldStrength": 3,
  "Manufacturer": "Siemens",
  "ManufacturersModelName": "Prisma_fit",
  "MatrixCoilMode": "SENSE",
  "Modality": "MR",
  "MultibandAccelerationFactor": 4,
  "NonlinearGradientCorrection": false,
  "PartialFourier": 1,
  "PatientPosition": "HFS",
  "PercentPhaseFOV": 100,
  "PercentSampling": 100,
  "PhaseEncodingDirection": "j",
  "PhaseEncodingSteps": 104,
  "PhaseResolution": 1,
  "PixelBandwidth": 2290,
  "ProcedureStepDescription": "video^friends",
  "ProtocolName": "func_task-friends-s07e20a",
  "PulseSequenceDetails": "%CustomerSeq%\\cmrr_mbep2d_bold",
  "ReceiveCoilActiveElements": "HC1-7;NC1,2",
  "ReceiveCoilName": "HeadNeck_64",
  "ReconMatrixPE": 104,
  "RepetitionTime": 1.49,
  "SAR": 0.051842,
  "ScanOptions": "FS",
  "ScanningSequence": "EP",
  "SequenceName": "epfid2d1_104",
  "SequenceVariant": "SK\\SS",
  "SeriesDescription": "func_task-friends-s07e20a",
  "SeriesNumber": 12,
  "ShimSetting": [606, -7241, -8778, 662, 87, -21, 27, 37],
  "SliceThickness": 2,
  "SliceTiming": [0, 0.7825, 0.0975, 0.88, 0.195, 0.9775, 0.2925, 1.0775, 0.39, 1.175, 0.49, 1.2725, 0.5875, 1.37, 0.685, 0, 0.7825, 0.0975, 0.88, 0.195, 0.9775, 0.2925, 1.0775, 0.39, 1.175, 0.49, 1.2725, 0.5875, 1.37, 0.685, 0, 0.7825, 0.0975, 0.88, 0.195, 0.9775, 0.2925, 1.0775, 0.39, 1.175, 0.49, 1.2725, 0.5875, 1.37, 0.685, 0, 0.7825, 0.0975, 0.88, 0.195, 0.9775, 0.2925, 1.0775, 0.39, 1.175, 0.49, 1.2725, 0.5875, 1.37, 0.685],
  "SoftwareVersions": "syngo MR E11",
  "SpacingBetweenSlices": 2,
  "StationName": "MRC35049",
  "TaskName": "s07e20a",
  "TotalReadoutTime": 0.0576811,
  "TxRefAmp": 228.024,
  "WipMemBlock": "c9c8feac-6650-4a20-92e2-ee8be248e41b||Sequence: R017 ve11c/master r/75a17815+; Jun 28 2022 16:32:11 by eja",
  "dcmmeta_affine": [
    [-1.999954342842102, -0.0024434695951640606, -0.013299730606377125, 105.40243530273438],
    [0.0006663498352281749, 1.9468786716461182, -0.4578896164894104, -85.41908264160156],
    [-0.013505900278687477, 0.4578835666179657, 1.9468333721160889, -56.779075622558594],
    [0.0, 0.0, 0.0, 1.0]
],
  "dcmmeta_reorient_transform": [
    [0.0, -1.0, 0.0, 103.0],
    [1.0, 0.0, 0.0, 0.0],
    [0.0, 0.0, 1.0, 0.0],
    [0.0, 0.0, 0.0, 1.0]
],
  "dcmmeta_shape": [104, 104, 60, 454],
  "dcmmeta_slice_dim": 2,
  "dcmmeta_version": 0.6,
  "global": {
    "const": {
      "AcquisitionMatrix": [104, 0, 0, 104],
      "AngioFlag": "N",
      "BitsAllocated": 16,
      "BitsStored": 16,
      "BodyPartExamined": "BRAIN",
      "Columns": 832,
      "EchoNumbers": 1,
      "EchoTime": 37.0,
      "EchoTrainLength": 104,
      "FlipAngle": 52.0,
      "HighBit": 15,
      "ImageOrientationPatient": [0.99997714306715, -0.0003331749113, -0.0067529502991, -0.0012217348464, 0.97343934932073, -0.2289417842116],
      "ImagePositionPatient": [-832.24469463743, -823.53071776203, 161.96869706094],
      "ImageType": [
        "ORIGINAL",
        "PRIMARY",
        "M",
        "MB",
        "ND",
        "MOSAIC"
],
      "ImagedNucleus": "1H",
      "ImagingFrequency": 123.249724,
      "InPlanePhaseEncodingDirection": "COL",
      "MRAcquisitionType": "2D",
      "MagneticFieldStrength": 3.0,
      "Manufacturer": "SIEMENS",
      "ManufacturerModelName": "Prisma_fit",
      "Modality": "MR",
      "NumberOfAverages": 1.0,
      "NumberOfPhaseEncodingSteps": 104,
      "PercentPhaseFieldOfView": 100.0,
      "PercentSampling": 100.0,
      "PerformedProcedureStepStartTime": "090230.749000",
      "PhotometricInterpretation": "MONOCHROME2",
      "PixelBandwidth": 2290.0,
      "PixelRepresentation": 0,
      "PixelSpacing": [2.0, 2.0],
      "ProtocolName": "func_task-friends-s07e20a",
      "RepetitionTime": 1490.0,
      "Rows": 832,
      "SAR": 0.05184199456372,
      "SamplesPerPixel": 1,
      "ScanOptions": "FS",
      "ScanningSequence": "EP",
      "SequenceName": "epfid2d1_104",
      "SequenceVariant": [
        "SK",
        "SS"
],
      "SeriesDescription": "func_task-friends-s07e20a",
      "SeriesNumber": 12,
      "SeriesTime": "092300.850000",
      "SliceLocation": -36.41435847089,
      "SliceThickness": 2.0,
      "SmallestImagePixelValue": 0,
      "SoftwareVersions": "syngo MR E11",
      "SpacingBetweenSlices": 2.0000000193807,
      "SpecificCharacterSet": "ISO_IR 100",
      "StudyID": "1",
      "StudyTime": "090230.512000",
      "TransmitCoilName": "Body",
      "VariableFlipAngleFlag": "N",
      "WindowCenterWidthExplanation": "Algo1",
      "dBdt": 0.0},
    "slices": {}
  },
  "time": {
    "samples": {
      "AcquisitionNumber": [1, 2, 3, 4, 5, 6, 7, 8, 9, 10, 11, 12, 13, 14, 15, 16, 17, 18, 19, 20, 21, 22, 23, 24, 25, 26, 27, 28, 29, 30, 31, 32, 33, 34, 35, 36, 37, 38, 39, 40, 41, 42, 43, 44, 45, 46, 47, 48, 49, 50, 51, 52, 53, 54, 55, 56, 57, 58, 59, 60, 61, 62, 63, 64, 65, 66, 67, 68, 69, 70, 71, 72, 73, 74, 75, 76, 77, 78, 79, 80, 81, 82, 83, 84, 85, 86, 87, 88, 89, 90, 91, 92, 93, 94, 95, 96, 97, 98, 99, 100, 101, 102, 103, 104, 105, 106, 107, 108, 109, 110, 111, 112, 113, 114, 115, 116, 117, 118, 119, 120, 121, 122, 123, 124, 125, 126, 127, 128, 129, 130, 131, 132, 133, 134, 135, 136, 137, 138, 139, 140, 141, 142, 143, 144, 145, 146, 147, 148, 149, 150, 151, 152, 153, 154, 155, 156, 157, 158, 159, 160, 161, 162, 163, 164, 165, 166, 167, 168, 169, 170, 171, 172, 173, 174, 175, 176, 177, 178, 179, 180, 181, 182, 183, 184, 185, 186, 187, 188, 189, 190, 191, 192, 193, 194, 195, 196, 197, 198, 199, 200, 201, 202, 203, 204, 205, 206, 207, 208, 209, 210, 211, 212, 213, 214, 215, 216, 217, 218, 219, 220, 221, 222, 223, 224, 225, 226, 227, 228, 229, 230, 231, 232, 233, 234, 235, 236, 237, 238, 239, 240, 241, 242, 243, 244, 245, 246, 247, 248, 249, 250, 251, 252, 253, 254, 255, 256, 257, 258, 259, 260, 261, 262, 263, 264, 265, 266, 267, 268, 269, 270, 271, 272, 273, 274, 275, 276, 277, 278, 279, 280, 281, 282, 283, 284, 285, 286, 287, 288, 289, 290, 291, 292, 293, 294, 295, 296, 297, 298, 299, 300, 301, 302, 303, 304, 305, 306, 307, 308, 309, 310, 311, 312, 313, 314, 315, 316, 317, 318, 319, 320, 321, 322, 323, 324, 325, 326, 327, 328, 329, 330, 331, 332, 333, 334, 335, 336, 337, 338, 339, 340, 341, 342, 343, 344, 345, 346, 347, 348, 349, 350, 351, 352, 353, 354, 355, 356, 357, 358, 359, 360, 361, 362, 363, 364, 365, 366, 367, 368, 369, 370, 371, 372, 373, 374, 375, 376, 377, 378, 379, 380, 381, 382, 383, 384, 385, 386, 387, 388, 389, 390, 391, 392, 393, 394, 395, 396, 397, 398, 399, 400, 401, 402, 403, 404, 405, 406, 407, 408, 409, 410, 411, 412, 413, 414, 415, 416, 417, 418, 419, 420, 421, 422, 423, 424, 425, 426, 427, 428, 429, 430, 431, 432, 433, 434, 435, 436, 437, 438, 439, 440, 441, 442, 443, 444, 445, 446, 447, 448, 449, 450, 451, 452, 453, 454],
      "AcquisitionTime": ["092132.600000", "092134.090000", "092135.580000", "092137.070000", "092138.560000", "092140.050000", "092141.540000", "092143.030000", "092144.520000", "092146.010000", "092147.500000", "092148.990000", "092150.480000", "092151.970000", "092153.460000", "092154.950000", "092156.440000", "092157.930000", "092159.420000", "092200.910000", "092202.400000", "092203.890000", "092205.380000", "092206.870000", "092208.360000", "092209.850000", "092211.340000", "092212.830000", "092214.320000", "092215.810000", "092217.300000", "092218.790000", "092220.280000", "092221.770000", "092223.260000", "092224.750000", "092226.240000", "092227.730000", "092229.220000", "092230.710000", "092232.200000", "092233.690000", "092235.180000", "092236.670000", "092238.160000", "092239.650000", "092241.140000", "092242.630000", "092244.120000", "092245.610000", "092247.100000", "092248.590000", "092250.080000", "092251.570000", "092253.060000", "092254.550000", "092256.040000", "092257.530000", "092259.020000", "092300.510000", "092302.000000", "092303.490000", "092304.980000", "092306.470000", "092307.960000", "092309.450000", "092310.940000", "092312.430000", "092313.920000", "092315.410000", "092316.900000", "092318.390000", "092319.880000", "092321.370000", "092322.860000", "092324.350000", "092325.840000", "092327.330000", "092328.820000", "092330.310000", "092331.800000", "092333.290000", "092334.780000", "092336.270000", "092337.760000", "092339.250000", "092340.740000", "092342.230000", "092343.720000", "092345.210000", "092346.700000", "092348.190000", "092349.680000", "092351.170000", "092352.660000", "092354.150000", "092355.640000", "092357.130000", "092358.620000", "092400.110000", "092401.600000", "092403.090000", "092404.580000", "092406.070000", "092407.560000", "092409.050000", "092410.540000", "092412.030000", "092413.520000", "092415.010000", "092416.500000", "092417.990000", "092419.480000", "092420.970000", "092422.460000", "092423.950000", "092425.440000", "092426.930000", "092428.420000", "092429.910000", "092431.400000", "092432.890000", "092434.380000", "092435.870000", "092437.360000", "092438.850000", "092440.340000", "092441.830000", "092443.320000", "092444.810000", "092446.300000", "092447.790000", "092449.280000", "092450.770000", "092452.260000", "092453.750000", "092455.240000", "092456.730000", "092458.220000", "092459.710000", "092501.200000", "092502.690000", "092504.180000", "092505.670000", "092507.160000", "092508.650000", "092510.140000", "092511.630000", "092513.120000", "092514.610000", "092516.100000", "092517.590000", "092519.080000", "092520.570000", "092522.060000", "092523.550000", "092525.040000", "092526.530000", "092528.020000", "092529.510000", "092531.000000", "092532.490000", "092533.980000", "092535.470000", "092536.960000", "092538.450000", "092539.940000", "092541.430000", "092542.920000", "092544.410000", "092545.900000", "092547.390000", "092548.880000", "092550.370000", "092551.860000", "092553.350000", "092554.840000", "092556.330000", "092557.820000", "092559.310000", "092600.800000", "092602.290000", "092603.780000", "092605.270000", "092606.760000", "092608.250000", "092609.740000", "092611.230000", "092612.720000", "092614.210000", "092615.700000", "092617.190000", "092618.680000", "092620.170000", "092621.660000", "092623.150000", "092624.640000", "092626.130000", "092627.620000", "092629.110000", "092630.600000", "092632.090000", "092633.580000", "092635.070000", "092636.560000", "092638.050000", "092639.540000", "092641.030000", "092642.520000", "092644.010000", "092645.500000", "092646.990000", "092648.480000", "092649.970000", "092651.460000", "092652.950000", "092654.440000", "092655.930000", "092657.420000", "092658.910000", "092700.400000", "092701.890000", "092703.380000", "092704.870000", "092706.360000", "092707.850000", "092709.340000", "092710.830000", "092712.320000", "092713.810000", "092715.300000", "092716.790000", "092718.280000", "092719.770000", "092721.260000", "092722.750000", "092724.240000", "092725.730000", "092727.220000", "092728.710000", "092730.200000", "092731.690000", "092733.180000", "092734.670000", "092736.160000", "092737.650000", "092739.140000", "092740.630000", "092742.120000", "092743.610000", "092745.100000", "092746.590000", "092748.080000", "092749.570000", "092751.060000", "092752.550000", "092754.040000", "092755.530000", "092757.020000", "092758.510000", "092800.000000", "092801.490000", "092802.980000", "092804.470000", "092805.960000", "092807.450000", "092808.940000", "092810.430000", "092811.920000", "092813.410000", "092814.900000", "092816.390000", "092817.880000", "092819.370000", "092820.860000", "092822.350000", "092823.840000", "092825.330000", "092826.820000", "092828.310000", "092829.800000", "092831.290000", "092832.780000", "092834.270000", "092835.760000", "092837.250000", "092838.740000", "092840.230000", "092841.720000", "092843.210000", "092844.700000", "092846.190000", "092847.680000", "092849.170000", "092850.660000", "092852.150000", "092853.640000", "092855.130000", "092856.620000", "092858.110000", "092859.600000", "092901.090000", "092902.580000", "092904.070000", "092905.560000", "092907.050000", "092908.540000", "092910.030000", "092911.520000", "092913.010000", "092914.500000", "092915.990000", "092917.480000", "092918.970000", "092920.460000", "092921.950000", "092923.440000", "092924.930000", "092926.420000", "092927.910000", "092929.400000", "092930.890000", "092932.380000", "092933.870000", "092935.360000", "092936.850000", "092938.340000", "092939.830000", "092941.320000", "092942.810000", "092944.300000", "092945.790000", "092947.280000", "092948.770000", "092950.260000", "092951.750000", "092953.240000", "092954.730000", "092956.220000", "092957.710000", "092959.200000", "093000.690000", "093002.180000", "093003.670000", "093005.160000", "093006.650000", "093008.140000", "093009.630000", "093011.120000", "093012.610000", "093014.100000", "093015.590000", "093017.080000", "093018.570000", "093020.060000", "093021.550000", "093023.040000", "093024.530000", "093026.020000", "093027.510000", "093029.000000", "093030.490000", "093031.980000", "093033.470000", "093034.960000", "093036.450000", "093037.940000", "093039.430000", "093040.920000", "093042.410000", "093043.900000", "093045.390000", "093046.880000", "093048.370000", "093049.860000", "093051.350000", "093052.840000", "093054.330000", "093055.820000", "093057.310000", "093058.800000", "093100.290000", "093101.780000", "093103.270000", "093104.760000", "093106.250000", "093107.740000", "093109.230000", "093110.720000", "093112.210000", "093113.700000", "093115.190000", "093116.680000", "093118.170000", "093119.660000", "093121.150000", "093122.640000", "093124.130000", "093125.620000", "093127.110000", "093128.600000", "093130.090000", "093131.580000", "093133.070000", "093134.560000", "093136.050000", "093137.540000", "093139.030000", "093140.520000", "093142.010000", "093143.500000", "093144.990000", "093146.480000", "093147.970000", "093149.460000", "093150.950000", "093152.440000", "093153.930000", "093155.420000", "093156.910000", "093158.400000", "093159.890000", "093201.380000", "093202.870000", "093204.360000", "093205.850000", "093207.340000", "093208.830000", "093210.320000", "093211.810000", "093213.300000", "093214.790000", "093216.280000", "093217.770000", "093219.260000", "093220.750000", "093222.240000", "093223.730000", "093225.220000", "093226.710000", "093228.200000", "093229.690000", "093231.180000", "093232.670000", "093234.160000", "093235.650000", "093237.140000", "093238.630000", "093240.120000", "093241.610000", "093243.100000", "093244.590000", "093246.080000", "093247.570000"],
      "ContentTime": ["092300.853000", "092300.856000", "092300.859000", "092300.862000", "092300.865000", "092300.868000", "092300.881000", "092300.889000", "092300.892000", "092300.895000", "092300.898000", "092300.901000", "092300.904000", "092300.907000", "092300.910000", "092300.913000", "092300.915000", "092300.918000", "092300.921000", "092300.924000", "092300.927000", "092300.930000", "092300.933000", "092300.936000", "092300.939000", "092300.941000", "092320.818000", "092320.821000", "092320.824000", "092320.827000", "092320.830000", "092320.832000", "092320.835000", "092320.838000", "092320.846000", "092320.857000", "092320.859000", "092320.862000", "092320.865000", "092320.868000", "092320.871000", "092320.874000", "092320.877000", "092320.880000", "092320.883000", "092320.891000", "092320.893000", "092340.818000", "092340.821000", "092340.824000", "092340.827000", "092340.847000", "092340.853000", "092340.856000", "092340.858000", "092340.861000", "092340.864000", "092340.867000", "092340.870000", "092340.873000", "092340.876000", "092340.879000", "092340.882000", "092340.884000", "092340.887000", "092340.890000", "092340.893000", "092400.818000", "092400.825000", "092400.828000", "092400.831000", "092400.833000", "092400.836000", "092400.839000", "092400.842000", "092400.845000", "092400.848000", "092400.851000", "092400.854000", "092400.856000", "092400.859000", "092400.862000", "092400.865000", "092400.868000", "092400.871000", "092400.874000", "092400.876000", "092420.818000", "092420.821000", "092420.824000", "092420.827000", "092420.830000", "092420.833000", "092420.835000", "092420.838000", "092420.841000", "092420.844000", "092420.847000", "092420.850000", "092420.859000", "092420.862000", "092420.865000", "092420.868000", "092420.871000", "092420.874000", "092420.877000", "092420.880000", "092500.818000", "092500.821000", "092500.824000", "092500.827000", "092500.833000", "092500.835000", "092500.838000", "092500.841000", "092500.844000", "092500.847000", "092500.850000", "092500.853000", "092500.856000", "092500.859000", "092500.862000", "092500.864000", "092500.867000", "092500.870000", "092500.873000", "092500.876000", "092500.879000", "092500.882000", "092500.885000", "092500.888000", "092500.890000", "092500.893000", "092500.896000", "092500.899000", "092500.902000", "092540.818000", "092540.827000", "092540.830000", "092540.833000", "092540.836000", "092540.839000", "092540.842000", "092540.844000", "092540.847000", "092540.850000", "092540.853000", "092540.856000", "092540.859000", "092540.862000", "092540.865000", "092540.868000", "092540.871000", "092540.874000", "092540.877000", "092540.879000", "092540.882000", "092540.885000", "092540.888000", "092540.891000", "092540.894000", "092540.897000", "092540.900000", "092620.818000", "092620.821000", "092620.824000", "092620.827000", "092620.830000", "092620.833000", "092620.836000", "092620.838000", "092620.841000", "092620.844000", "092620.847000", "092620.850000", "092620.853000", "092620.856000", "092620.859000", "092620.862000", "092620.865000", "092620.868000", "092620.871000", "092620.874000", "092620.877000", "092620.879000", "092620.882000", "092620.885000", "092620.888000", "092620.891000", "092700.818000", "092700.821000", "092700.824000", "092700.827000", "092700.830000", "092700.832000", "092700.835000", "092700.838000", "092700.841000", "092700.844000", "092700.847000", "092700.850000", "092700.853000", "092700.856000", "092700.876000", "092700.879000", "092700.882000", "092700.885000", "092700.888000", "092700.890000", "092700.893000", "092700.896000", "092700.899000", "092700.902000", "092700.905000", "092700.908000", "092700.911000", "092740.818000", "092740.821000", "092740.824000", "092740.827000", "092740.830000", "092740.833000", "092740.836000", "092740.839000", "092740.842000", "092740.845000", "092740.848000", "092740.851000", "092740.854000", "092740.857000", "092740.860000", "092740.863000", "092740.866000", "092740.869000", "092740.872000", "092740.875000", "092740.877000", "092740.880000", "092740.883000", "092740.886000", "092740.889000", "092740.892000", "092740.895000", "092800.818000", "092800.821000", "092800.824000", "092800.827000", "092800.841000", "092800.844000", "092800.847000", "092800.850000", "092800.852000", "092800.855000", "092800.858000", "092800.861000", "092800.864000", "092800.867000", "092840.818000", "092840.828000", "092840.831000", "092840.834000", "092840.837000", "092840.840000", "092840.843000", "092840.846000", "092840.849000", "092840.852000", "092840.855000", "092840.858000", "092840.861000", "092840.864000", "092840.867000", "092840.870000", "092840.873000", "092840.876000", "092840.879000", "092840.882000", "092840.884000", "092840.887000", "092840.890000", "092840.893000", "092840.896000", "092840.899000", "092920.818000", "092920.821000", "092920.824000", "092920.827000", "092920.830000", "092920.833000", "092920.836000", "092920.838000", "092920.841000", "092920.844000", "092920.847000", "092920.850000", "092920.853000", "092920.856000", "092920.859000", "092920.862000", "092920.865000", "092920.868000", "092920.870000", "092920.873000", "092920.876000", "092920.879000", "092920.882000", "092920.885000", "092920.888000", "092920.891000", "092920.894000", "093000.818000", "093000.821000", "093000.824000", "093000.827000", "093000.830000", "093000.839000", "093000.842000", "093000.845000", "093000.848000", "093000.850000", "093000.853000", "093000.856000", "093000.859000", "093000.862000", "093000.865000", "093000.868000", "093000.871000", "093000.874000", "093000.877000", "093000.880000", "093000.883000", "093000.886000", "093000.889000", "093000.892000", "093000.894000", "093000.897000", "093000.900000", "093040.818000", "093040.821000", "093040.824000", "093040.827000", "093040.830000", "093040.833000", "093040.846000", "093040.849000", "093040.852000", "093040.855000", "093040.858000", "093040.861000", "093040.863000", "093040.866000", "093040.869000", "093040.872000", "093040.875000", "093040.878000", "093040.881000", "093040.884000", "093040.887000", "093040.890000", "093040.893000", "093040.896000", "093040.899000", "093040.903000", "093040.906000", "093120.818000", "093120.821000", "093120.824000", "093120.827000", "093120.830000", "093120.833000", "093120.836000", "093120.839000", "093120.841000", "093120.844000", "093120.847000", "093120.850000", "093120.859000", "093120.862000", "093120.865000", "093120.868000", "093120.871000", "093120.874000", "093120.877000", "093120.880000", "093120.883000", "093120.885000", "093120.888000", "093120.891000", "093120.894000", "093120.897000", "093120.900000", "093200.818000", "093200.821000", "093200.824000", "093200.827000", "093200.830000", "093200.833000", "093200.836000", "093200.839000", "093200.842000", "093200.845000", "093200.847000", "093200.850000", "093200.853000", "093200.863000", "093200.866000", "093200.869000", "093200.872000", "093200.875000", "093200.878000", "093200.880000", "093200.883000", "093200.886000", "093200.889000", "093200.892000", "093200.895000", "093200.898000", "093200.901000", "093240.818000", "093240.821000", "093240.824000", "093240.827000", "093240.830000", "093240.833000", "093240.836000", "093240.839000", "093240.842000", "093240.845000", "093240.849000", "093240.852000", "093240.855000", "093240.871000", "093240.874000", "093240.877000", "093240.880000", "093240.883000", "093240.886000", "093240.889000", "093240.892000", "093240.894000", "093240.897000", "093240.900000", "093240.903000", "093240.906000", "093254.330000", "093254.333000", "093254.336000", "093254.339000", "093254.342000", "093254.345000", "093254.348000", "093254.351000", "093254.354000", "093254.357000"],
