{
  "AcquisitionMatrixPE": 104,
  "AcquisitionNumber": 1,
  "AcquisitionTime": "13:18:57.375000",
  "BandwidthPerPixelPhaseEncode": 17.17,
  "BaseResolution": 104,
  "BodyPartExamined": "BRAIN",
  "CoilString": "HC1-7;NC1_2",
  "ConsistencyInfo": "N4_VE11C_LATEST_20160120",
  "ConversionSoftware": "dcm2niix",
  "ConversionSoftwareVersion": "v1.0.20190902",
  "DerivedVendorReportedEchoSpacing": 0.000560011,
  "DeviceSerialNumber": "167006",
  "DwellTime": 2.1e-06,
  "EchoTime": 0.037,
  "EchoTrainLength": 104,
  "EffectiveEchoSpacing": 0.000560011,
  "FlipAngle": 52,
  "ImageComments": "Unaliased_MB4_PE3_LB",
  "ImageOrientationPatientDICOM": [0.997825, 0.00559217, -0.0656877, -0.0198561, 0.97562, -0.218565],
  "ImageType": [
    "ORIGINAL",
    "PRIMARY",
    "M",
    "MB",
    "ND",
    "MOSAIC"
],
  "ImagingFrequency": 123.259,
  "InPlanePhaseEncodingDirectionDICOM": "COL",
  "InstitutionAddress": "Chemin_Queen-Mary_4565_Montreal_District_CA_H3W_1W5",
  "InstitutionName": "IUGM",
  "InstitutionalDepartmentName": "Department",
  "MRAcquisitionType": "2D",
  "MagneticFieldStrength": 3,
  "Manufacturer": "Siemens",
  "ManufacturersModelName": "Prisma_fit",
  "Modality": "MR",
  "MultibandAccelerationFactor": 4,
  "PartialFourier": 1,
  "PatientPosition": "HFS",
  "PercentPhaseFOV": 100,
  "PhaseEncodingDirection": "j",
  "PhaseEncodingSteps": 104,
  "PhaseResolution": 1,
  "PixelBandwidth": 2290,
  "ProcedureStepDescription": "video_friends",
  "ProtocolName": "func_task-friends-s04e23a",
  "PulseSequenceDetails": "%CustomerSeq%_cmrr_mbep2d_bold",
  "ReceiveCoilActiveElements": "HC1-7;NC1,2",
  "ReceiveCoilName": "HeadNeck_64",
  "ReconMatrixPE": 104,
  "RepetitionTime": 1.49,
  "SAR": 0.0287957,
  "ScanOptions": "FS",
  "ScanningSequence": "EP",
  "SequenceName": "epfid2d1_104",
  "SequenceVariant": "SK_SS",
  "SeriesDescription": "func_task-friends-s04e23a",
  "SeriesNumber": 9,
  "ShimSetting": [606, -7262, -8804, 625, -28, -292, 29, 44],
  "SliceThickness": 2,
  "SliceTiming": [0, 0.785, 0.1, 0.8825, 0.1975, 0.98, 0.295, 1.08, 0.3925, 1.1775, 0.49, 1.275, 0.59, 1.3725, 0.6875, 0, 0.785, 0.1, 0.8825, 0.1975, 0.98, 0.295, 1.08, 0.3925, 1.1775, 0.49, 1.275, 0.59, 1.3725, 0.6875, 0, 0.785, 0.1, 0.8825, 0.1975, 0.98, 0.295, 1.08, 0.3925, 1.1775, 0.49, 1.275, 0.59, 1.3725, 0.6875, 0, 0.785, 0.1, 0.8825, 0.1975, 0.98, 0.295, 1.08, 0.3925, 1.1775, 0.49, 1.275, 0.59, 1.3725, 0.6875],
  "SoftwareVersions": "syngo_MR_E11",
  "SpacingBetweenSlices": 2,
  "StationName": "MRC35049",
  "TaskName": "s04e23a",
  "TotalReadoutTime": 0.0576811,
  "TxRefAmp": 215.17,
  "WipMemBlock": "d1efd8f2-d948-4631-af30-068211333a5f||Sequence: R016 ve11c/master r/e634e98; Dec 19 2017 11:00:25 by eja",
  "dcmmeta_affine": [
    [-1.9956490993499756, -0.03971216455101967, -0.12572798132896423, 104.0451889038086],
    [-0.011184348724782467, 1.9512405395507812, -0.43878820538520813, -82.92626953125],
    [-0.13137538731098175, 0.43713054060935974, 1.9472178220748901, -40.518898010253906],
    [0.0, 0.0, 0.0, 1.0]
],
  "dcmmeta_reorient_transform": [
    [0.0, -1.0, 0.0, 103.0],
    [1.0, 0.0, 0.0, 0.0],
    [0.0, 0.0, 1.0, 0.0],
    [0.0, 0.0, 0.0, 1.0]
],
  "dcmmeta_shape": [104, 104, 60, 505],
  "dcmmeta_slice_dim": 2,
  "dcmmeta_version": 0.6,
  "global": {
    "const": {
      "AcquisitionMatrix": [104, 0, 0, 104],
      "AngioFlag": "N",
      "BitsAllocated": 16,
      "BitsStored": 16,
      "BodyPartExamined": "BRAIN",
      "Columns": 832,
      "EchoNumbers": 1,
      "EchoTime": 37.0,
      "EchoTrainLength": 104,
      "FlipAngle": 52.0,
      "HighBit": 15,
      "ImageOrientationPatient": [0.99782456120868, 0.00559217441653, -0.0656876901254, -0.0198560823817, 0.97562029395919, -0.2185652717323],
      "ImagePositionPatient": [-811.91589209511, -832.37419055872, 211.44170347765],
      "ImageType": [
        "ORIGINAL",
        "PRIMARY",
        "M",
        "MB",
        "ND",
        "MOSAIC"
],
      "ImagedNucleus": "1H",
      "ImagingFrequency": 123.258976,
      "InPlanePhaseEncodingDirection": "COL",
      "MRAcquisitionType": "2D",
      "MagneticFieldStrength": 3.0,
      "Manufacturer": "SIEMENS",
      "ManufacturerModelName": "Prisma_fit",
      "Modality": "MR",
      "NumberOfAverages": 1.0,
      "NumberOfPhaseEncodingSteps": 104,
      "PercentPhaseFieldOfView": 100.0,
      "PercentSampling": 100.0,
      "PerformedProcedureStepStartTime": "112924.637000",
      "PhotometricInterpretation": "MONOCHROME2",
      "PixelBandwidth": 2290.0,
      "PixelRepresentation": 0,
      "PixelSpacing": [2.0, 2.0],
      "ProtocolName": "func_task-friends-s04e23a",
      "RepetitionTime": 1490.0,
      "Rows": 832,
      "SAR": 0.02879566897818,
      "SamplesPerPixel": 1,
      "ScanOptions": "FS",
      "ScanningSequence": "EP",
      "SequenceName": "epfid2d1_104",
      "SequenceVariant": [
        "SK",
        "SS"
],
      "SeriesDescription": "func_task-friends-s04e23a",
      "SeriesNumber": 9,
      "SeriesTime": "132014.657000",
      "SliceLocation": -27.796724008291,
      "SliceThickness": 2.0,
      "SmallestImagePixelValue": 0,
      "SoftwareVersions": "syngo MR E11",
      "SpacingBetweenSlices": 2.0000000214388,
      "SpecificCharacterSet": "ISO_IR 100",
      "StudyID": "1",
      "StudyTime": "112924.584000",
      "TransmitCoilName": "Body",
      "VariableFlipAngleFlag": "N",
      "WindowCenterWidthExplanation": "Algo1",
      "dBdt": 0.0},
    "slices": {}
  },
  "time": {
    "samples": {
      "AcquisitionNumber": [1, 2, 3, 4, 5, 6, 7, 8, 9, 10, 11, 12, 13, 14, 15, 16, 17, 18, 19, 20, 21, 22, 23, 24, 25, 26, 27, 28, 29, 30, 31, 32, 33, 34, 35, 36, 37, 38, 39, 40, 41, 42, 43, 44, 45, 46, 47, 48, 49, 50, 51, 52, 53, 54, 55, 56, 57, 58, 59, 60, 61, 62, 63, 64, 65, 66, 67, 68, 69, 70, 71, 72, 73, 74, 75, 76, 77, 78, 79, 80, 81, 82, 83, 84, 85, 86, 87, 88, 89, 90, 91, 92, 93, 94, 95, 96, 97, 98, 99, 100, 101, 102, 103, 104, 105, 106, 107, 108, 109, 110, 111, 112, 113, 114, 115, 116, 117, 118, 119, 120, 121, 122, 123, 124, 125, 126, 127, 128, 129, 130, 131, 132, 133, 134, 135, 136, 137, 138, 139, 140, 141, 142, 143, 144, 145, 146, 147, 148, 149, 150, 151, 152, 153, 154, 155, 156, 157, 158, 159, 160, 161, 162, 163, 164, 165, 166, 167, 168, 169, 170, 171, 172, 173, 174, 175, 176, 177, 178, 179, 180, 181, 182, 183, 184, 185, 186, 187, 188, 189, 190, 191, 192, 193, 194, 195, 196, 197, 198, 199, 200, 201, 202, 203, 204, 205, 206, 207, 208, 209, 210, 211, 212, 213, 214, 215, 216, 217, 218, 219, 220, 221, 222, 223, 224, 225, 226, 227, 228, 229, 230, 231, 232, 233, 234, 235, 236, 237, 238, 239, 240, 241, 242, 243, 244, 245, 246, 247, 248, 249, 250, 251, 252, 253, 254, 255, 256, 257, 258, 259, 260, 261, 262, 263, 264, 265, 266, 267, 268, 269, 270, 271, 272, 273, 274, 275, 276, 277, 278, 279, 280, 281, 282, 283, 284, 285, 286, 287, 288, 289, 290, 291, 292, 293, 294, 295, 296, 297, 298, 299, 300, 301, 302, 303, 304, 305, 306, 307, 308, 309, 310, 311, 312, 313, 314, 315, 316, 317, 318, 319, 320, 321, 322, 323, 324, 325, 326, 327, 328, 329, 330, 331, 332, 333, 334, 335, 336, 337, 338, 339, 340, 341, 342, 343, 344, 345, 346, 347, 348, 349, 350, 351, 352, 353, 354, 355, 356, 357, 358, 359, 360, 361, 362, 363, 364, 365, 366, 367, 368, 369, 370, 371, 372, 373, 374, 375, 376, 377, 378, 379, 380, 381, 382, 383, 384, 385, 386, 387, 388, 389, 390, 391, 392, 393, 394, 395, 396, 397, 398, 399, 400, 401, 402, 403, 404, 405, 406, 407, 408, 409, 410, 411, 412, 413, 414, 415, 416, 417, 418, 419, 420, 421, 422, 423, 424, 425, 426, 427, 428, 429, 430, 431, 432, 433, 434, 435, 436, 437, 438, 439, 440, 441, 442, 443, 444, 445, 446, 447, 448, 449, 450, 451, 452, 453, 454, 455, 456, 457, 458, 459, 460, 461, 462, 463, 464, 465, 466, 467, 468, 469, 470, 471, 472, 473, 474, 475, 476, 477, 478, 479, 480, 481, 482, 483, 484, 485, 486, 487, 488, 489, 490, 491, 492, 493, 494, 495, 496, 497, 498, 499, 500, 501, 502, 503, 504, 505],
      "AcquisitionTime": ["131857.375000", "131858.865000", "131900.355000", "131901.845000", "131903.335000", "131904.825000", "131906.315000", "131907.805000", "131909.295000", "131910.785000", "131912.275000", "131913.765000", "131915.255000", "131916.745000", "131918.235000", "131919.725000", "131921.215000", "131922.705000", "131924.195000", "131925.685000", "131927.175000", "131928.665000", "131930.155000", "131931.645000", "131933.135000", "131934.625000", "131936.115000", "131937.605000", "131939.095000", "131940.585000", "131942.075000", "131943.565000", "131945.055000", "131946.545000", "131948.035000", "131949.525000", "131951.015000", "131952.505000", "131953.995000", "131955.485000", "131956.975000", "131958.465000", "131959.955000", "132001.445000", "132002.935000", "132004.425000", "132005.915000", "132007.405000", "132008.895000", "132010.385000", "132011.875000", "132013.365000", "132014.855000", "132016.345000", "132017.835000", "132019.325000", "132020.815000", "132022.305000", "132023.795000", "132025.285000", "132026.775000", "132028.265000", "132029.755000", "132031.245000", "132032.735000", "132034.225000", "132035.715000", "132037.205000", "132038.695000", "132040.185000", "132041.675000", "132043.165000", "132044.655000", "132046.145000", "132047.635000", "132049.125000", "132050.615000", "132052.105000", "132053.595000", "132055.085000", "132056.575000", "132058.065000", "132059.555000", "132101.045000", "132102.535000", "132104.025000", "132105.515000", "132107.005000", "132108.495000", "132109.985000", "132111.475000", "132112.965000", "132114.455000", "132115.945000", "132117.435000", "132118.925000", "132120.415000", "132121.905000", "132123.395000", "132124.885000", "132126.375000", "132127.865000", "132129.355000", "132130.845000", "132132.335000", "132133.825000", "132135.315000", "132136.805000", "132138.295000", "132139.785000", "132141.275000", "132142.765000", "132144.255000", "132145.745000", "132147.235000", "132148.725000", "132150.215000", "132151.705000", "132153.195000", "132154.685000", "132156.175000", "132157.665000", "132159.155000", "132200.645000", "132202.135000", "132203.625000", "132205.115000", "132206.605000", "132208.095000", "132209.585000", "132211.075000", "132212.565000", "132214.055000", "132215.545000", "132217.035000", "132218.525000", "132220.015000", "132221.505000", "132222.995000", "132224.485000", "132225.975000", "132227.465000", "132228.955000", "132230.445000", "132231.935000", "132233.425000", "132234.915000", "132236.405000", "132237.895000", "132239.385000", "132240.875000", "132242.365000", "132243.855000", "132245.345000", "132246.835000", "132248.325000", "132249.815000", "132251.305000", "132252.795000", "132254.285000", "132255.775000", "132257.265000", "132258.755000", "132300.245000", "132301.735000", "132303.225000", "132304.715000", "132306.205000", "132307.695000", "132309.185000", "132310.675000", "132312.165000", "132313.655000", "132315.145000", "132316.635000", "132318.125000", "132319.615000", "132321.105000", "132322.595000", "132324.085000", "132325.575000", "132327.065000", "132328.555000", "132330.045000", "132331.535000", "132333.025000", "132334.515000", "132336.005000", "132337.495000", "132338.985000", "132340.475000", "132341.965000", "132343.455000", "132344.945000", "132346.435000", "132347.925000", "132349.415000", "132350.905000", "132352.395000", "132353.885000", "132355.375000", "132356.865000", "132358.355000", "132359.845000", "132401.335000", "132402.825000", "132404.315000", "132405.805000", "132407.295000", "132408.785000", "132410.275000", "132411.765000", "132413.255000", "132414.745000", "132416.235000", "132417.725000", "132419.215000", "132420.705000", "132422.195000", "132423.685000", "132425.175000", "132426.665000", "132428.155000", "132429.645000", "132431.135000", "132432.625000", "132434.115000", "132435.605000", "132437.095000", "132438.585000", "132440.075000", "132441.565000", "132443.055000", "132444.545000", "132446.035000", "132447.525000", "132449.015000", "132450.505000", "132451.995000", "132453.485000", "132454.975000", "132456.465000", "132457.955000", "132459.445000", "132500.935000", "132502.425000", "132503.915000", "132505.405000", "132506.895000", "132508.385000", "132509.875000", "132511.365000", "132512.855000", "132514.345000", "132515.835000", "132517.325000", "132518.815000", "132520.305000", "132521.795000", "132523.285000", "132524.775000", "132526.265000", "132527.755000", "132529.245000", "132530.735000", "132532.225000", "132533.715000", "132535.205000", "132536.695000", "132538.185000", "132539.675000", "132541.165000", "132542.655000", "132544.145000", "132545.635000", "132547.125000", "132548.615000", "132550.105000", "132551.595000", "132553.085000", "132554.575000", "132556.065000", "132557.555000", "132559.045000", "132600.535000", "132602.025000", "132603.515000", "132605.005000", "132606.495000", "132607.985000", "132609.475000", "132610.965000", "132612.455000", "132613.945000", "132615.435000", "132616.925000", "132618.415000", "132619.905000", "132621.395000", "132622.885000", "132624.375000", "132625.865000", "132627.355000", "132628.845000", "132630.335000", "132631.825000", "132633.315000", "132634.805000", "132636.295000", "132637.785000", "132639.275000", "132640.765000", "132642.255000", "132643.745000", "132645.235000", "132646.725000", "132648.215000", "132649.705000", "132651.195000", "132652.685000", "132654.175000", "132655.665000", "132657.155000", "132658.645000", "132700.135000", "132701.625000", "132703.115000", "132704.605000", "132706.095000", "132707.585000", "132709.075000", "132710.565000", "132712.055000", "132713.545000", "132715.035000", "132716.525000", "132718.015000", "132719.505000", "132720.995000", "132722.485000", "132723.975000", "132725.465000", "132726.955000", "132728.445000", "132729.935000", "132731.425000", "132732.915000", "132734.405000", "132735.895000", "132737.385000", "132738.875000", "132740.365000", "132741.855000", "132743.345000", "132744.835000", "132746.325000", "132747.815000", "132749.305000", "132750.795000", "132752.285000", "132753.775000", "132755.265000", "132756.755000", "132758.245000", "132759.735000", "132801.225000", "132802.715000", "132804.205000", "132805.695000", "132807.185000", "132808.675000", "132810.165000", "132811.655000", "132813.145000", "132814.635000", "132816.125000", "132817.615000", "132819.105000", "132820.595000", "132822.085000", "132823.575000", "132825.065000", "132826.555000", "132828.045000", "132829.535000", "132831.025000", "132832.515000", "132834.005000", "132835.495000", "132836.985000", "132838.475000", "132839.965000", "132841.455000", "132842.945000", "132844.435000", "132845.925000", "132847.415000", "132848.905000", "132850.395000", "132851.885000", "132853.375000", "132854.865000", "132856.355000", "132857.845000", "132859.335000", "132900.825000", "132902.315000", "132903.805000", "132905.295000", "132906.785000", "132908.275000", "132909.765000", "132911.255000", "132912.745000", "132914.235000", "132915.725000", "132917.215000", "132918.705000", "132920.195000", "132921.685000", "132923.175000", "132924.665000", "132926.155000", "132927.645000", "132929.135000", "132930.625000", "132932.115000", "132933.605000", "132935.095000", "132936.585000", "132938.075000", "132939.565000", "132941.055000", "132942.545000", "132944.035000", "132945.525000", "132947.015000", "132948.505000", "132949.995000", "132951.485000", "132952.975000", "132954.465000", "132955.955000", "132957.445000", "132958.935000", "133000.425000", "133001.915000", "133003.405000", "133004.895000", "133006.385000", "133007.875000", "133009.365000", "133010.855000", "133012.345000", "133013.835000", "133015.325000", "133016.815000", "133018.305000", "133019.795000", "133021.285000", "133022.775000", "133024.265000", "133025.755000", "133027.245000", "133028.735000", "133030.225000", "133031.715000", "133033.205000", "133034.695000", "133036.185000", "133037.675000", "133039.165000", "133040.655000", "133042.145000", "133043.635000", "133045.125000", "133046.615000", "133048.105000", "133049.595000", "133051.085000", "133052.575000", "133054.065000", "133055.555000", "133057.045000", "133058.535000", "133100.025000", "133101.515000", "133103.005000", "133104.495000", "133105.985000", "133107.475000", "133108.965000", "133110.455000", "133111.945000", "133113.435000", "133114.925000", "133116.415000", "133117.905000", "133119.395000", "133120.885000", "133122.375000", "133123.865000", "133125.355000", "133126.845000", "133128.335000"],
      "ContentTime": ["132014.660000", "132014.663000", "132014.666000", "132014.669000", "132014.677000", "132014.680000", "132014.683000", "132014.688000", "132014.691000", "132014.706000", "132014.709000", "132014.712000", "132014.715000", "132014.718000", "132014.721000", "132014.724000", "132014.727000", "132014.730000", "132014.732000", "132014.735000", "132014.738000", "132014.741000", "132014.744000", "132034.633000", "132034.636000", "132034.639000", "132034.642000", "132034.645000", "132034.648000", "132034.651000", "132034.654000", "132034.657000", "132034.659000", "132034.662000", "132034.665000", "132034.668000", "132034.671000", "132034.674000", "132034.677000", "132034.680000", "132034.683000", "132034.686000", "132034.689000", "132054.633000", "132054.636000", "132054.639000", "132054.642000", "132054.645000", "132054.648000", "132054.650000", "132054.654000", "132054.656000", "132054.672000", "132054.675000", "132054.678000", "132054.681000", "132054.689000", "132054.691000", "132054.695000", "132054.697000", "132054.700000", "132054.703000", "132054.706000", "132114.633000", "132114.636000", "132114.639000", "132114.642000", "132114.645000", "132114.648000", "132114.650000", "132114.654000", "132114.656000", "132114.659000", "132114.662000", "132114.665000", "132114.668000", "132114.671000", "132114.674000", "132114.677000", "132114.680000", "132114.683000", "132114.686000", "132114.689000", "132134.633000", "132134.636000", "132134.639000", "132134.642000", "132134.645000", "132134.648000", "132134.651000", "132134.654000", "132134.657000", "132134.660000", "132134.663000", "132134.666000", "132134.668000", "132134.671000", "132134.674000", "132134.677000", "132134.680000", "132134.683000", "132134.686000", "132134.689000", "132214.632000", "132214.635000", "132214.638000", "132214.641000", "132214.644000", "132214.647000", "132214.650000", "132214.653000", "132214.655000", "132214.659000", "132214.661000", "132214.665000", "132214.667000", "132214.670000", "132214.673000", "132214.676000", "132214.679000", "132214.682000", "132214.685000", "132214.688000", "132214.691000", "132214.694000", "132214.697000", "132214.700000", "132214.703000", "132214.706000", "132214.708000", "132214.712000", "132254.633000", "132254.636000", "132254.639000", "132254.642000", "132254.645000", "132254.648000", "132254.651000", "132254.654000", "132254.657000", "132254.660000", "132254.663000", "132254.666000", "132254.669000", "132254.672000", "132254.675000", "132254.678000", "132254.681000", "132254.684000", "132254.687000", "132254.690000", "132254.692000", "132254.695000", "132254.698000", "132254.701000", "132254.704000", "132254.707000", "132254.710000", "132334.633000", "132334.636000", "132334.639000", "132334.642000", "132334.651000", "132334.654000", "132334.657000", "132334.659000", "132334.663000", "132334.666000", "132334.668000", "132334.671000", "132334.674000", "132334.677000", "132334.680000", "132334.683000", "132334.686000", "132334.689000", "132334.692000", "132334.695000", "132334.698000", "132334.702000", "132334.705000", "132334.708000", "132334.711000", "132334.714000", "132334.716000", "132414.632000", "132414.635000", "132414.638000", "132414.641000", "132414.644000", "132414.647000", "132414.650000", "132414.653000", "132414.656000", "132414.659000", "132414.662000", "132414.665000", "132414.668000", "132414.671000", "132414.674000", "132414.677000", "132414.680000", "132414.683000", "132414.686000", "132414.689000", "132414.692000", "132414.695000", "132414.698000", "132414.701000", "132414.703000", "132414.706000", "132414.709000", "132454.632000", "132454.635000", "132454.638000", "132454.641000", "132454.644000", "132454.647000", "132454.650000", "132454.653000", "132454.656000", "132454.659000", "132454.662000", "132454.665000", "132454.668000", "132454.671000", "132454.674000", "132454.677000", "132454.680000", "132454.683000", "132454.686000", "132454.689000", "132454.692000", "132454.694000", "132454.697000", "132454.700000", "132454.703000", "132454.706000", "132454.709000", "132534.633000", "132534.636000", "132534.639000", "132534.642000", "132534.645000", "132534.648000", "132534.651000", "132534.654000", "132534.657000", "132534.660000", "132534.662000", "132534.666000", "132534.668000", "132534.671000", "132534.674000", "132534.689000", "132534.692000", "132534.695000", "132534.698000", "132534.701000", "132534.704000", "132534.707000", "132534.710000", "132534.713000", "132534.716000", "132534.719000", "132614.633000", "132614.636000", "132614.639000", "132614.642000", "132614.645000", "132614.648000", "132614.651000", "132614.654000", "132614.657000", "132614.660000", "132614.662000", "132614.666000", "132614.668000", "132614.671000", "132614.674000", "132614.677000", "132614.680000", "132614.683000", "132614.686000", "132614.689000", "132614.692000", "132614.695000", "132614.698000", "132614.701000", "132614.704000", "132614.707000", "132614.709000", "132654.632000", "132654.635000", "132654.638000", "132654.641000", "132654.644000", "132654.647000", "132654.650000", "132654.653000", "132654.656000", "132654.659000", "132654.662000", "132654.665000", "132654.668000", "132654.671000", "132654.674000", "132654.677000", "132654.680000", "132654.683000", "132654.686000", "132654.689000", "132654.691000", "132654.694000", "132654.697000", "132654.700000", "132654.703000", "132654.706000", "132654.709000", "132734.633000", "132734.636000", "132734.639000", "132734.642000", "132734.645000", "132734.648000", "132734.651000", "132734.654000", "132734.657000", "132734.660000", "132734.663000", "132734.666000", "132734.669000", "132734.672000", "132734.675000", "132734.677000", "132734.681000", "132734.684000", "132734.687000", "132734.689000", "132734.692000", "132734.695000", "132734.698000", "132734.701000", "132734.704000", "132734.707000", "132734.710000", "132814.633000", "132814.636000", "132814.639000", "132814.642000", "132814.645000", "132814.648000", "132814.651000", "132814.654000", "132814.657000", "132814.660000", "132814.663000", "132814.666000", "132814.669000", "132814.672000", "132814.675000", "132814.678000", "132814.681000", "132814.684000", "132814.687000", "132814.689000", "132814.692000", "132814.695000", "132814.698000", "132814.701000", "132814.704000", "132814.707000", "132814.710000", "132854.632000", "132854.635000", "132854.638000", "132854.641000", "132854.651000", "132854.654000", "132854.657000", "132854.660000", "132854.663000", "132854.666000", "132854.668000", "132854.671000", "132854.674000", "132854.677000", "132854.680000", "132854.683000", "132854.686000", "132854.689000", "132854.692000", "132854.695000", "132854.698000", "132854.701000", "132854.704000", "132854.707000", "132854.710000", "132854.713000", "132854.716000", "132934.632000", "132934.635000", "132934.638000", "132934.641000", "132934.644000", "132934.647000", "132934.650000", "132934.653000", "132934.656000", "132934.659000", "132934.662000", "132934.665000", "132934.668000", "132934.671000", "132934.674000", "132934.677000", "132934.680000", "132934.683000", "132934.686000", "132934.689000", "132934.692000", "132934.695000", "132934.698000", "132934.701000", "132934.705000", "132934.708000", "133014.633000", "133014.636000", "133014.639000", "133014.642000", "133014.645000", "133014.648000", "133014.651000", "133014.670000", "133014.673000", "133014.676000", "133014.678000", "133014.681000", "133014.684000", "133014.687000", "133014.690000", "133014.693000", "133014.718000", "133014.721000", "133014.724000", "133014.726000", "133014.730000", "133014.732000", "133014.735000", "133014.738000", "133014.742000", "133014.744000", "133014.747000", "133054.633000", "133054.636000", "133054.639000", "133054.642000", "133054.645000", "133054.648000", "133054.651000", "133054.654000", "133054.657000", "133054.660000", "133054.663000", "133054.666000", "133054.669000", "133054.672000", "133054.675000", "133054.678000", "133054.681000", "133054.684000", "133054.686000", "133054.690000", "133054.693000", "133054.695000", "133054.698000", "133054.701000", "133054.704000", "133054.707000", "133054.710000", "133130.980000", "133130.983000", "133130.986000", "133130.989000", "133130.992000", "133130.995000", "133130.998000", "133131.002000", "133131.005000", "133131.008000", "133131.011000", "133131.014000", "133131.017000", "133131.020000", "133131.023000", "133131.026000", "133131.029000", "133131.032000", "133131.035000", "133131.037000", "133131.040000", "133131.043000", "133131.046000", "133131.049000", "133131.052000"],
