{
  "AcquisitionMatrixPE": 104,
  "AcquisitionNumber": 1,
  "AcquisitionTime": "13:47:2.465000",
  "BandwidthPerPixelPhaseEncode": 17.17,
  "BaseResolution": 104,
  "BodyPartExamined": "BRAIN",
  "CoilString": "HC1-7;NC1_2",
  "ConsistencyInfo": "N4_VE11C_LATEST_20160120",
  "ConversionSoftware": "dcm2niix",
  "ConversionSoftwareVersion": "v1.0.20190902",
  "DerivedVendorReportedEchoSpacing": 0.000560011,
  "DeviceSerialNumber": "167006",
  "DwellTime": 2.1e-06,
  "EchoTime": 0.037,
  "EchoTrainLength": 104,
  "EffectiveEchoSpacing": 0.000560011,
  "FlipAngle": 52,
  "ImageComments": "Unaliased_MB4_PE3_LB",
  "ImageOrientationPatientDICOM": [0.997825, 0.00559217, -0.0656877, -0.0198561, 0.97562, -0.218565],
  "ImageType": [
    "ORIGINAL",
    "PRIMARY",
    "M",
    "MB",
    "ND",
    "MOSAIC"
],
  "ImagingFrequency": 123.259,
  "InPlanePhaseEncodingDirectionDICOM": "COL",
  "InstitutionAddress": "Chemin_Queen-Mary_4565_Montreal_District_CA_H3W_1W5",
  "InstitutionName": "IUGM",
  "InstitutionalDepartmentName": "Department",
  "MRAcquisitionType": "2D",
  "MagneticFieldStrength": 3,
  "Manufacturer": "Siemens",
  "ManufacturersModelName": "Prisma_fit",
  "Modality": "MR",
  "MultibandAccelerationFactor": 4,
  "PartialFourier": 1,
  "PatientPosition": "HFS",
  "PercentPhaseFOV": 100,
  "PhaseEncodingDirection": "j",
  "PhaseEncodingSteps": 104,
  "PhaseResolution": 1,
  "PixelBandwidth": 2290,
  "ProcedureStepDescription": "video_friends",
  "ProtocolName": "func_task-friends-s04e23c",
  "PulseSequenceDetails": "%CustomerSeq%_cmrr_mbep2d_bold",
  "ReceiveCoilActiveElements": "HC1-7;NC1,2",
  "ReceiveCoilName": "HeadNeck_64",
  "ReconMatrixPE": 104,
  "RepetitionTime": 1.49,
  "SAR": 0.0287954,
  "ScanOptions": "FS",
  "ScanningSequence": "EP",
  "SequenceName": "epfid2d1_104",
  "SequenceVariant": "SK_SS",
  "SeriesDescription": "func_task-friends-s04e23c",
  "SeriesNumber": 13,
  "ShimSetting": [606, -7262, -8804, 625, -28, -292, 29, 44],
  "SliceThickness": 2,
  "SliceTiming": [0, 0.7825, 0.0975, 0.88, 0.195, 0.98, 0.2925, 1.0775, 0.39, 1.175, 0.49, 1.2725, 0.5875, 1.37, 0.685, 0, 0.7825, 0.0975, 0.88, 0.195, 0.98, 0.2925, 1.0775, 0.39, 1.175, 0.49, 1.2725, 0.5875, 1.37, 0.685, 0, 0.7825, 0.0975, 0.88, 0.195, 0.98, 0.2925, 1.0775, 0.39, 1.175, 0.49, 1.2725, 0.5875, 1.37, 0.685, 0, 0.7825, 0.0975, 0.88, 0.195, 0.98, 0.2925, 1.0775, 0.39, 1.175, 0.49, 1.2725, 0.5875, 1.37, 0.685],
  "SoftwareVersions": "syngo_MR_E11",
  "SpacingBetweenSlices": 2,
  "StationName": "MRC35049",
  "TaskName": "s04e23c",
  "TotalReadoutTime": 0.0576811,
  "TxRefAmp": 215.17,
  "WipMemBlock": "2c64b2a9-2781-4144-aa79-c572b56ae786||Sequence: R016 ve11c/master r/e634e98; Dec 19 2017 11:00:25 by eja",
  "dcmmeta_affine": [
    [-1.9956490993499756, -0.03971216455101967, -0.12572798132896423, 104.0451889038086],
    [-0.011184348724782467, 1.9512405395507812, -0.43878820538520813, -82.92626953125],
    [-0.13137538731098175, 0.43713054060935974, 1.9472178220748901, -40.518898010253906],
    [0.0, 0.0, 0.0, 1.0]
],
  "dcmmeta_reorient_transform": [
    [0.0, -1.0, 0.0, 103.0],
    [1.0, 0.0, 0.0, 0.0],
    [0.0, 0.0, 1.0, 0.0],
    [0.0, 0.0, 0.0, 1.0]
],
  "dcmmeta_shape": [104, 104, 60, 504],
  "dcmmeta_slice_dim": 2,
  "dcmmeta_version": 0.6,
  "global": {
    "const": {
      "AcquisitionMatrix": [104, 0, 0, 104],
      "AngioFlag": "N",
      "BitsAllocated": 16,
      "BitsStored": 16,
      "BodyPartExamined": "BRAIN",
      "Columns": 832,
      "EchoNumbers": 1,
      "EchoTime": 37.0,
      "EchoTrainLength": 104,
      "FlipAngle": 52.0,
      "HighBit": 15,
      "ImageOrientationPatient": [0.99782456120868, 0.00559217441653, -0.0656876901254, -0.0198560823817, 0.97562029395919, -0.2185652717323],
      "ImagePositionPatient": [-811.91589209511, -832.37419055872, 211.44170347765],
      "ImageType": [
        "ORIGINAL",
        "PRIMARY",
        "M",
        "MB",
        "ND",
        "MOSAIC"
],
      "ImagedNucleus": "1H",
      "ImagingFrequency": 123.258991,
      "InPlanePhaseEncodingDirection": "COL",
      "MRAcquisitionType": "2D",
      "MagneticFieldStrength": 3.0,
      "Manufacturer": "SIEMENS",
      "ManufacturerModelName": "Prisma_fit",
      "Modality": "MR",
      "NumberOfAverages": 1.0,
      "NumberOfPhaseEncodingSteps": 104,
      "PercentPhaseFieldOfView": 100.0,
      "PercentSampling": 100.0,
      "PerformedProcedureStepStartTime": "112924.637000",
      "PhotometricInterpretation": "MONOCHROME2",
      "PixelBandwidth": 2290.0,
      "PixelRepresentation": 0,
      "PixelSpacing": [2.0, 2.0],
      "ProtocolName": "func_task-friends-s04e23c",
      "RepetitionTime": 1490.0,
      "Rows": 832,
      "SAR": 0.0287954438307,
      "SamplesPerPixel": 1,
      "ScanOptions": "FS",
      "ScanningSequence": "EP",
      "SequenceName": "epfid2d1_104",
      "SequenceVariant": [
        "SK",
        "SS"
],
      "SeriesDescription": "func_task-friends-s04e23c",
      "SeriesNumber": 13,
      "SeriesTime": "134833.913000",
      "SliceLocation": -27.796724008291,
      "SliceThickness": 2.0,
      "SmallestImagePixelValue": 0,
      "SoftwareVersions": "syngo MR E11",
      "SpacingBetweenSlices": 2.0000000214388,
      "SpecificCharacterSet": "ISO_IR 100",
      "StudyID": "1",
      "StudyTime": "112924.584000",
      "TransmitCoilName": "Body",
      "VariableFlipAngleFlag": "N",
      "WindowCenterWidthExplanation": "Algo1",
      "dBdt": 0.0},
    "slices": {}
  },
  "time": {
    "samples": {
      "AcquisitionNumber": [1, 2, 3, 4, 5, 6, 7, 8, 9, 10, 11, 12, 13, 14, 15, 16, 17, 18, 19, 20, 21, 22, 23, 24, 25, 26, 27, 28, 29, 30, 31, 32, 33, 34, 35, 36, 37, 38, 39, 40, 41, 42, 43, 44, 45, 46, 47, 48, 49, 50, 51, 52, 53, 54, 55, 56, 57, 58, 59, 60, 61, 62, 63, 64, 65, 66, 67, 68, 69, 70, 71, 72, 73, 74, 75, 76, 77, 78, 79, 80, 81, 82, 83, 84, 85, 86, 87, 88, 89, 90, 91, 92, 93, 94, 95, 96, 97, 98, 99, 100, 101, 102, 103, 104, 105, 106, 107, 108, 109, 110, 111, 112, 113, 114, 115, 116, 117, 118, 119, 120, 121, 122, 123, 124, 125, 126, 127, 128, 129, 130, 131, 132, 133, 134, 135, 136, 137, 138, 139, 140, 141, 142, 143, 144, 145, 146, 147, 148, 149, 150, 151, 152, 153, 154, 155, 156, 157, 158, 159, 160, 161, 162, 163, 164, 165, 166, 167, 168, 169, 170, 171, 172, 173, 174, 175, 176, 177, 178, 179, 180, 181, 182, 183, 184, 185, 186, 187, 188, 189, 190, 191, 192, 193, 194, 195, 196, 197, 198, 199, 200, 201, 202, 203, 204, 205, 206, 207, 208, 209, 210, 211, 212, 213, 214, 215, 216, 217, 218, 219, 220, 221, 222, 223, 224, 225, 226, 227, 228, 229, 230, 231, 232, 233, 234, 235, 236, 237, 238, 239, 240, 241, 242, 243, 244, 245, 246, 247, 248, 249, 250, 251, 252, 253, 254, 255, 256, 257, 258, 259, 260, 261, 262, 263, 264, 265, 266, 267, 268, 269, 270, 271, 272, 273, 274, 275, 276, 277, 278, 279, 280, 281, 282, 283, 284, 285, 286, 287, 288, 289, 290, 291, 292, 293, 294, 295, 296, 297, 298, 299, 300, 301, 302, 303, 304, 305, 306, 307, 308, 309, 310, 311, 312, 313, 314, 315, 316, 317, 318, 319, 320, 321, 322, 323, 324, 325, 326, 327, 328, 329, 330, 331, 332, 333, 334, 335, 336, 337, 338, 339, 340, 341, 342, 343, 344, 345, 346, 347, 348, 349, 350, 351, 352, 353, 354, 355, 356, 357, 358, 359, 360, 361, 362, 363, 364, 365, 366, 367, 368, 369, 370, 371, 372, 373, 374, 375, 376, 377, 378, 379, 380, 381, 382, 383, 384, 385, 386, 387, 388, 389, 390, 391, 392, 393, 394, 395, 396, 397, 398, 399, 400, 401, 402, 403, 404, 405, 406, 407, 408, 409, 410, 411, 412, 413, 414, 415, 416, 417, 418, 419, 420, 421, 422, 423, 424, 425, 426, 427, 428, 429, 430, 431, 432, 433, 434, 435, 436, 437, 438, 439, 440, 441, 442, 443, 444, 445, 446, 447, 448, 449, 450, 451, 452, 453, 454, 455, 456, 457, 458, 459, 460, 461, 462, 463, 464, 465, 466, 467, 468, 469, 470, 471, 472, 473, 474, 475, 476, 477, 478, 479, 480, 481, 482, 483, 484, 485, 486, 487, 488, 489, 490, 491, 492, 493, 494, 495, 496, 497, 498, 499, 500, 501, 502, 503, 504],
      "AcquisitionTime": ["134702.465000", "134703.955000", "134705.445000", "134706.935000", "134708.425000", "134709.915000", "134711.405000", "134712.895000", "134714.385000", "134715.875000", "134717.365000", "134718.855000", "134720.345000", "134721.835000", "134723.325000", "134724.815000", "134726.305000", "134727.795000", "134729.285000", "134730.775000", "134732.265000", "134733.755000", "134735.245000", "134736.735000", "134738.225000", "134739.715000", "134741.205000", "134742.695000", "134744.185000", "134745.675000", "134747.165000", "134748.655000", "134750.145000", "134751.635000", "134753.125000", "134754.615000", "134756.105000", "134757.595000", "134759.085000", "134800.575000", "134802.065000", "134803.555000", "134805.045000", "134806.535000", "134808.025000", "134809.515000", "134811.005000", "134812.495000", "134813.985000", "134815.475000", "134816.965000", "134818.455000", "134819.945000", "134821.435000", "134822.925000", "134824.415000", "134825.905000", "134827.395000", "134828.885000", "134830.375000", "134831.865000", "134833.355000", "134834.845000", "134836.335000", "134837.825000", "134839.315000", "134840.805000", "134842.295000", "134843.785000", "134845.275000", "134846.765000", "134848.255000", "134849.745000", "134851.235000", "134852.725000", "134854.215000", "134855.705000", "134857.195000", "134858.685000", "134900.175000", "134901.665000", "134903.155000", "134904.645000", "134906.135000", "134907.625000", "134909.115000", "134910.605000", "134912.095000", "134913.585000", "134915.075000", "134916.565000", "134918.055000", "134919.545000", "134921.035000", "134922.525000", "134924.015000", "134925.505000", "134926.995000", "134928.485000", "134929.975000", "134931.465000", "134932.955000", "134934.445000", "134935.935000", "134937.425000", "134938.915000", "134940.405000", "134941.895000", "134943.385000", "134944.875000", "134946.365000", "134947.855000", "134949.345000", "134950.835000", "134952.325000", "134953.815000", "134955.305000", "134956.795000", "134958.285000", "134959.775000", "135001.265000", "135002.755000", "135004.245000", "135005.735000", "135007.225000", "135008.715000", "135010.205000", "135011.695000", "135013.185000", "135014.675000", "135016.165000", "135017.655000", "135019.145000", "135020.635000", "135022.125000", "135023.615000", "135025.105000", "135026.595000", "135028.085000", "135029.575000", "135031.065000", "135032.555000", "135034.045000", "135035.535000", "135037.025000", "135038.515000", "135040.005000", "135041.495000", "135042.985000", "135044.475000", "135045.965000", "135047.455000", "135048.945000", "135050.435000", "135051.925000", "135053.415000", "135054.905000", "135056.395000", "135057.885000", "135059.375000", "135100.865000", "135102.355000", "135103.845000", "135105.335000", "135106.825000", "135108.315000", "135109.805000", "135111.295000", "135112.785000", "135114.275000", "135115.765000", "135117.255000", "135118.745000", "135120.235000", "135121.725000", "135123.215000", "135124.705000", "135126.195000", "135127.685000", "135129.175000", "135130.665000", "135132.155000", "135133.645000", "135135.135000", "135136.625000", "135138.115000", "135139.605000", "135141.095000", "135142.585000", "135144.075000", "135145.565000", "135147.055000", "135148.545000", "135150.035000", "135151.525000", "135153.015000", "135154.505000", "135155.995000", "135157.485000", "135158.975000", "135200.465000", "135201.955000", "135203.445000", "135204.935000", "135206.425000", "135207.915000", "135209.405000", "135210.895000", "135212.385000", "135213.875000", "135215.365000", "135216.855000", "135218.345000", "135219.835000", "135221.325000", "135222.815000", "135224.305000", "135225.795000", "135227.285000", "135228.775000", "135230.265000", "135231.755000", "135233.245000", "135234.735000", "135236.225000", "135237.715000", "135239.205000", "135240.695000", "135242.185000", "135243.675000", "135245.165000", "135246.655000", "135248.145000", "135249.635000", "135251.125000", "135252.615000", "135254.105000", "135255.595000", "135257.085000", "135258.575000", "135300.065000", "135301.555000", "135303.045000", "135304.535000", "135306.025000", "135307.515000", "135309.005000", "135310.495000", "135311.985000", "135313.475000", "135314.965000", "135316.455000", "135317.945000", "135319.435000", "135320.925000", "135322.415000", "135323.905000", "135325.395000", "135326.885000", "135328.375000", "135329.865000", "135331.355000", "135332.845000", "135334.335000", "135335.825000", "135337.315000", "135338.805000", "135340.295000", "135341.785000", "135343.275000", "135344.765000", "135346.255000", "135347.745000", "135349.235000", "135350.725000", "135352.215000", "135353.705000", "135355.195000", "135356.685000", "135358.175000", "135359.665000", "135401.155000", "135402.645000", "135404.135000", "135405.625000", "135407.115000", "135408.605000", "135410.095000", "135411.585000", "135413.075000", "135414.565000", "135416.055000", "135417.545000", "135419.035000", "135420.525000", "135422.015000", "135423.505000", "135424.995000", "135426.485000", "135427.975000", "135429.465000", "135430.955000", "135432.445000", "135433.935000", "135435.425000", "135436.915000", "135438.405000", "135439.895000", "135441.385000", "135442.875000", "135444.365000", "135445.855000", "135447.345000", "135448.835000", "135450.325000", "135451.815000", "135453.305000", "135454.795000", "135456.285000", "135457.775000", "135459.265000", "135500.755000", "135502.245000", "135503.735000", "135505.225000", "135506.715000", "135508.205000", "135509.695000", "135511.185000", "135512.675000", "135514.165000", "135515.655000", "135517.145000", "135518.635000", "135520.125000", "135521.615000", "135523.105000", "135524.595000", "135526.085000", "135527.575000", "135529.065000", "135530.555000", "135532.045000", "135533.535000", "135535.025000", "135536.515000", "135538.005000", "135539.495000", "135540.985000", "135542.475000", "135543.965000", "135545.455000", "135546.945000", "135548.435000", "135549.925000", "135551.415000", "135552.905000", "135554.395000", "135555.885000", "135557.375000", "135558.865000", "135600.355000", "135601.845000", "135603.335000", "135604.825000", "135606.315000", "135607.805000", "135609.295000", "135610.785000", "135612.275000", "135613.765000", "135615.255000", "135616.745000", "135618.235000", "135619.725000", "135621.215000", "135622.705000", "135624.195000", "135625.685000", "135627.175000", "135628.665000", "135630.155000", "135631.645000", "135633.135000", "135634.625000", "135636.115000", "135637.605000", "135639.095000", "135640.585000", "135642.075000", "135643.565000", "135645.055000", "135646.545000", "135648.035000", "135649.525000", "135651.015000", "135652.505000", "135653.995000", "135655.485000", "135656.975000", "135658.465000", "135659.955000", "135701.445000", "135702.935000", "135704.425000", "135705.915000", "135707.405000", "135708.895000", "135710.385000", "135711.875000", "135713.365000", "135714.855000", "135716.345000", "135717.835000", "135719.325000", "135720.815000", "135722.305000", "135723.795000", "135725.285000", "135726.775000", "135728.265000", "135729.755000", "135731.245000", "135732.735000", "135734.225000", "135735.715000", "135737.205000", "135738.695000", "135740.185000", "135741.675000", "135743.165000", "135744.655000", "135746.145000", "135747.635000", "135749.125000", "135750.615000", "135752.105000", "135753.595000", "135755.085000", "135756.575000", "135758.065000", "135759.555000", "135801.045000", "135802.535000", "135804.025000", "135805.515000", "135807.005000", "135808.495000", "135809.985000", "135811.475000", "135812.965000", "135814.455000", "135815.945000", "135817.435000", "135818.925000", "135820.415000", "135821.905000", "135823.395000", "135824.885000", "135826.375000", "135827.865000", "135829.355000", "135830.845000", "135832.335000", "135833.825000", "135835.315000", "135836.805000", "135838.295000", "135839.785000", "135841.275000", "135842.765000", "135844.255000", "135845.745000", "135847.235000", "135848.725000", "135850.215000", "135851.705000", "135853.195000", "135854.685000", "135856.175000", "135857.665000", "135859.155000", "135900.645000", "135902.135000", "135903.625000", "135905.115000", "135906.605000", "135908.095000", "135909.585000", "135911.075000", "135912.565000", "135914.055000", "135915.545000", "135917.035000", "135918.525000", "135920.015000", "135921.505000", "135922.995000", "135924.485000", "135925.975000", "135927.465000", "135928.955000", "135930.445000", "135931.935000"],
      "ContentTime": ["134833.915000", "134833.919000", "134833.921000", "134833.924000", "134833.927000", "134833.930000", "134833.933000", "134833.936000", "134833.939000", "134833.942000", "134833.947000", "134833.950000", "134833.954000", "134833.956000", "134833.959000", "134833.962000", "134833.965000", "134833.968000", "134833.971000", "134833.977000", "134833.980000", "134833.983000", "134833.986000", "134833.989000", "134833.992000", "134833.995000", "134833.998000", "134834.002000", "134834.005000", "134834.008000", "134834.011000", "134834.014000", "134834.017000", "134834.020000", "134834.022000", "134834.025000", "134834.028000", "134834.031000", "134834.034000", "134853.885000", "134853.888000", "134853.891000", "134853.894000", "134853.897000", "134853.900000", "134853.902000", "134853.909000", "134853.912000", "134853.915000", "134853.918000", "134853.920000", "134853.923000", "134853.926000", "134853.929000", "134853.932000", "134853.935000", "134853.938000", "134853.941000", "134853.944000", "134913.885000", "134913.888000", "134913.891000", "134913.894000", "134913.903000", "134913.905000", "134913.908000", "134913.911000", "134913.914000", "134913.917000", "134913.920000", "134913.923000", "134913.926000", "134913.929000", "134913.932000", "134913.935000", "134913.938000", "134913.941000", "134913.944000", "134913.947000", "134933.885000", "134933.888000", "134933.891000", "134933.894000", "134933.897000", "134933.900000", "134933.903000", "134933.906000", "134933.909000", "134933.911000", "134933.915000", "134933.917000", "134933.920000", "134933.923000", "134933.926000", "134933.929000", "134933.932000", "134933.935000", "134933.938000", "134933.941000", "134933.944000", "135013.884000", "135013.887000", "135013.890000", "135013.893000", "135013.896000", "135013.899000", "135013.902000", "135013.905000", "135013.908000", "135013.911000", "135013.914000", "135013.917000", "135013.919000", "135013.922000", "135013.925000", "135013.928000", "135013.931000", "135013.934000", "135013.937000", "135013.940000", "135013.943000", "135013.946000", "135013.949000", "135013.952000", "135013.955000", "135013.958000", "135013.961000", "135013.964000", "135053.885000", "135053.888000", "135053.891000", "135053.894000", "135053.897000", "135053.900000", "135053.903000", "135053.906000", "135053.909000", "135053.912000", "135053.915000", "135053.918000", "135053.921000", "135053.924000", "135053.926000", "135053.930000", "135053.932000", "135053.935000", "135053.948000", "135053.951000", "135053.954000", "135053.957000", "135053.960000", "135053.963000", "135053.966000", "135053.968000", "135053.971000", "135133.885000", "135133.888000", "135133.898000", "135133.908000", "135133.911000", "135133.914000", "135133.917000", "135133.920000", "135133.923000", "135133.925000", "135133.928000", "135133.931000", "135133.934000", "135133.937000", "135133.940000", "135133.943000", "135133.946000", "135133.949000", "135133.952000", "135133.955000", "135133.958000", "135133.961000", "135133.964000", "135133.967000", "135133.970000", "135133.973000", "135133.976000", "135213.884000", "135213.887000", "135213.890000", "135213.893000", "135213.896000", "135213.899000", "135213.902000", "135213.905000", "135213.908000", "135213.911000", "135213.914000", "135213.917000", "135213.920000", "135213.923000", "135213.926000", "135213.929000", "135213.932000", "135213.936000", "135213.939000", "135213.942000", "135213.945000", "135213.948000", "135213.951000", "135213.954000", "135213.957000", "135213.960000", "135253.885000", "135253.888000", "135253.891000", "135253.894000", "135253.897000", "135253.900000", "135253.903000", "135253.906000", "135253.909000", "135253.922000", "135253.925000", "135253.928000", "135253.931000", "135253.934000", "135253.937000", "135253.940000", "135253.943000", "135253.945000", "135253.948000", "135253.951000", "135253.954000", "135253.957000", "135253.960000", "135253.963000", "135253.966000", "135253.969000", "135253.972000", "135333.885000", "135333.888000", "135333.891000", "135333.894000", "135333.897000", "135333.900000", "135333.903000", "135333.906000", "135333.909000", "135333.912000", "135333.915000", "135333.918000", "135333.921000", "135333.924000", "135333.927000", "135333.929000", "135333.932000", "135333.935000", "135333.938000", "135333.941000", "135333.944000", "135333.947000", "135333.960000", "135333.963000", "135333.966000", "135333.969000", "135333.972000", "135413.885000", "135413.888000", "135413.891000", "135413.894000", "135413.897000", "135413.900000", "135413.903000", "135413.906000", "135413.909000", "135413.912000", "135413.915000", "135413.918000", "135413.920000", "135413.924000", "135413.927000", "135413.929000", "135413.932000", "135413.935000", "135413.938000", "135413.941000", "135413.944000", "135413.947000", "135413.950000", "135413.953000", "135413.956000", "135413.959000", "135413.962000", "135453.884000", "135453.887000", "135453.890000", "135453.893000", "135453.896000", "135453.899000", "135453.902000", "135453.905000", "135453.908000", "135453.911000", "135453.914000", "135453.917000", "135453.920000", "135453.923000", "135453.926000", "135453.928000", "135453.931000", "135453.934000", "135453.937000", "135453.940000", "135453.943000", "135453.946000", "135453.949000", "135453.952000", "135453.955000", "135453.958000", "135453.961000", "135533.885000", "135533.888000", "135533.891000", "135533.894000", "135533.897000", "135533.900000", "135533.903000", "135533.906000", "135533.909000", "135533.912000", "135533.915000", "135533.918000", "135533.921000", "135533.924000", "135533.926000", "135533.930000", "135533.932000", "135533.935000", "135533.938000", "135533.955000", "135533.957000", "135533.960000", "135533.963000", "135533.966000", "135533.969000", "135533.972000", "135533.975000", "135613.885000", "135613.888000", "135613.891000", "135613.894000", "135613.897000", "135613.900000", "135613.903000", "135613.906000", "135613.909000", "135613.912000", "135613.915000", "135613.918000", "135613.921000", "135613.924000", "135613.926000", "135613.929000", "135613.932000", "135613.936000", "135613.939000", "135613.943000", "135613.946000", "135613.950000", "135613.953000", "135613.956000", "135613.959000", "135613.962000", "135653.884000", "135653.887000", "135653.890000", "135653.893000", "135653.896000", "135653.899000", "135653.902000", "135653.905000", "135653.908000", "135653.911000", "135653.914000", "135653.917000", "135653.920000", "135653.923000", "135653.926000", "135653.929000", "135653.932000", "135653.935000", "135653.938000", "135653.941000", "135653.944000", "135653.947000", "135653.950000", "135653.952000", "135653.955000", "135653.958000", "135653.961000", "135733.885000", "135733.895000", "135733.898000", "135733.901000", "135733.903000", "135733.906000", "135733.909000", "135733.912000", "135733.915000", "135733.918000", "135733.921000", "135733.924000", "135733.927000", "135733.930000", "135733.933000", "135733.936000", "135733.939000", "135733.942000", "135733.945000", "135733.948000", "135733.951000", "135733.954000", "135733.957000", "135733.960000", "135733.963000", "135733.966000", "135733.969000", "135813.885000", "135813.888000", "135813.891000", "135813.894000", "135813.897000", "135813.900000", "135813.903000", "135813.906000", "135813.909000", "135813.912000", "135813.915000", "135813.918000", "135813.921000", "135813.924000", "135813.927000", "135813.930000", "135813.933000", "135813.935000", "135813.938000", "135813.941000", "135813.944000", "135813.947000", "135813.950000", "135813.953000", "135813.956000", "135813.959000", "135813.962000", "135853.885000", "135853.888000", "135853.891000", "135853.894000", "135853.897000", "135853.900000", "135853.903000", "135853.906000", "135853.909000", "135853.912000", "135853.915000", "135853.918000", "135853.921000", "135853.924000", "135853.927000", "135853.930000", "135853.933000", "135853.936000", "135853.939000", "135853.942000", "135853.945000", "135853.948000", "135853.951000", "135853.962000", "135853.965000", "135853.968000", "135853.971000", "135933.660000", "135933.664000", "135933.667000", "135933.669000", "135933.673000", "135933.675000", "135933.678000", "135933.681000", "135933.684000", "135933.687000", "135933.690000", "135933.693000", "135933.696000", "135933.699000", "135933.702000", "135933.705000", "135933.708000", "135933.711000", "135933.714000", "135933.717000", "135933.720000", "135933.723000", "135933.726000", "135933.729000", "135933.732000", "135933.735000", "135933.738000"],
