{
  "AcquisitionMatrixPE": 104,
  "AcquisitionNumber": 1,
  "AcquisitionTime": "14:00:0.540000",
  "BandwidthPerPixelPhaseEncode": 17.17,
  "BaseResolution": 104,
  "BodyPartExamined": "BRAIN",
  "CoilString": "HC1-7;NC1_2",
  "ConsistencyInfo": "N4_VE11C_LATEST_20160120",
  "ConversionSoftware": "dcm2niix",
  "ConversionSoftwareVersion": "v1.0.20190902",
  "DerivedVendorReportedEchoSpacing": 0.000560011,
  "DeviceSerialNumber": "167006",
  "DwellTime": 2.1e-06,
  "EchoTime": 0.037,
  "EchoTrainLength": 104,
  "EffectiveEchoSpacing": 0.000560011,
  "FlipAngle": 52,
  "ImageComments": "Unaliased_MB4_PE3_LB",
  "ImageOrientationPatientDICOM": [0.997825, 0.00559217, -0.0656877, -0.0198561, 0.97562, -0.218565],
  "ImageType": [
    "ORIGINAL",
    "PRIMARY",
    "M",
    "MB",
    "ND",
    "MOSAIC"
],
  "ImagingFrequency": 123.259,
  "InPlanePhaseEncodingDirectionDICOM": "COL",
  "InstitutionAddress": "Chemin_Queen-Mary_4565_Montreal_District_CA_H3W_1W5",
  "InstitutionName": "IUGM",
  "InstitutionalDepartmentName": "Department",
  "MRAcquisitionType": "2D",
  "MagneticFieldStrength": 3,
  "Manufacturer": "Siemens",
  "ManufacturersModelName": "Prisma_fit",
  "Modality": "MR",
  "MultibandAccelerationFactor": 4,
  "PartialFourier": 1,
  "PatientPosition": "HFS",
  "PercentPhaseFOV": 100,
  "PhaseEncodingDirection": "j",
  "PhaseEncodingSteps": 104,
  "PhaseResolution": 1,
  "PixelBandwidth": 2290,
  "ProcedureStepDescription": "video_friends",
  "ProtocolName": "func_task-friends-s04e23d",
  "PulseSequenceDetails": "%CustomerSeq%_cmrr_mbep2d_bold",
  "ReceiveCoilActiveElements": "HC1-7;NC1,2",
  "ReceiveCoilName": "HeadNeck_64",
  "ReconMatrixPE": 104,
  "RepetitionTime": 1.49,
  "SAR": 0.0287954,
  "ScanOptions": "FS",
  "ScanningSequence": "EP",
  "SequenceName": "epfid2d1_104",
  "SequenceVariant": "SK_SS",
  "SeriesDescription": "func_task-friends-s04e23d",
  "SeriesNumber": 15,
  "ShimSetting": [606, -7262, -8804, 625, -28, -292, 29, 44],
  "SliceThickness": 2,
  "SliceTiming": [0, 0.7825, 0.0975, 0.8825, 0.195, 0.98, 0.2925, 1.0775, 0.3925, 1.175, 0.49, 1.2725, 0.5875, 1.3725, 0.685, 0, 0.7825, 0.0975, 0.8825, 0.195, 0.98, 0.2925, 1.0775, 0.3925, 1.175, 0.49, 1.2725, 0.5875, 1.3725, 0.685, 0, 0.7825, 0.0975, 0.8825, 0.195, 0.98, 0.2925, 1.0775, 0.3925, 1.175, 0.49, 1.2725, 0.5875, 1.3725, 0.685, 0, 0.7825, 0.0975, 0.8825, 0.195, 0.98, 0.2925, 1.0775, 0.3925, 1.175, 0.49, 1.2725, 0.5875, 1.3725, 0.685],
  "SoftwareVersions": "syngo_MR_E11",
  "SpacingBetweenSlices": 2,
  "StationName": "MRC35049",
  "TaskName": "s04e23d",
  "TotalReadoutTime": 0.0576811,
  "TxRefAmp": 215.17,
  "WipMemBlock": "ef8f60d4-f4a5-44f1-ba65-8ab0269ce3c0||Sequence: R016 ve11c/master r/e634e98; Dec 19 2017 11:00:25 by eja",
  "dcmmeta_affine": [
    [-1.9956490993499756, -0.03971216455101967, -0.12572798132896423, 104.0451889038086],
    [-0.011184348724782467, 1.9512405395507812, -0.43878820538520813, -82.92626953125],
    [-0.13137538731098175, 0.43713054060935974, 1.9472178220748901, -40.518898010253906],
    [0.0, 0.0, 0.0, 1.0]
],
  "dcmmeta_reorient_transform": [
    [0.0, -1.0, 0.0, 103.0],
    [1.0, 0.0, 0.0, 0.0],
    [0.0, 0.0, 1.0, 0.0],
    [0.0, 0.0, 0.0, 1.0]
],
  "dcmmeta_shape": [104, 104, 60, 504],
  "dcmmeta_slice_dim": 2,
  "dcmmeta_version": 0.6,
  "global": {
    "const": {
      "AcquisitionMatrix": [104, 0, 0, 104],
      "AngioFlag": "N",
      "BitsAllocated": 16,
      "BitsStored": 16,
      "BodyPartExamined": "BRAIN",
      "Columns": 832,
      "EchoNumbers": 1,
      "EchoTime": 37.0,
      "EchoTrainLength": 104,
      "FlipAngle": 52.0,
      "HighBit": 15,
      "ImageOrientationPatient": [0.99782456120868, 0.00559217441653, -0.0656876901254, -0.0198560823817, 0.97562029395919, -0.2185652717323],
      "ImagePositionPatient": [-811.91589209511, -832.37419055872, 211.44170347765],
      "ImageType": [
        "ORIGINAL",
        "PRIMARY",
        "M",
        "MB",
        "ND",
        "MOSAIC"
],
      "ImagedNucleus": "1H",
      "ImagingFrequency": 123.258995,
      "InPlanePhaseEncodingDirection": "COL",
      "MRAcquisitionType": "2D",
      "MagneticFieldStrength": 3.0,
      "Manufacturer": "SIEMENS",
      "ManufacturerModelName": "Prisma_fit",
      "Modality": "MR",
      "NumberOfAverages": 1.0,
      "NumberOfPhaseEncodingSteps": 104,
      "PercentPhaseFieldOfView": 100.0,
      "PercentSampling": 100.0,
      "PerformedProcedureStepStartTime": "112924.637000",
      "PhotometricInterpretation": "MONOCHROME2",
      "PixelBandwidth": 2290.0,
      "PixelRepresentation": 0,
      "PixelSpacing": [2.0, 2.0],
      "ProtocolName": "func_task-friends-s04e23d",
      "RepetitionTime": 1490.0,
      "Rows": 832,
      "SAR": 0.0287954438307,
      "SamplesPerPixel": 1,
      "ScanOptions": "FS",
      "ScanningSequence": "EP",
      "SequenceName": "epfid2d1_104",
      "SequenceVariant": [
        "SK",
        "SS"
],
      "SeriesDescription": "func_task-friends-s04e23d",
      "SeriesNumber": 15,
      "SeriesTime": "140114.658000",
      "SliceLocation": -27.796724008291,
      "SliceThickness": 2.0,
      "SmallestImagePixelValue": 0,
      "SoftwareVersions": "syngo MR E11",
      "SpacingBetweenSlices": 2.0000000214388,
      "SpecificCharacterSet": "ISO_IR 100",
      "StudyID": "1",
      "StudyTime": "112924.584000",
      "TransmitCoilName": "Body",
      "VariableFlipAngleFlag": "N",
      "WindowCenterWidthExplanation": "Algo1",
      "dBdt": 0.0},
    "slices": {}
  },
  "time": {
    "samples": {
      "AcquisitionNumber": [1, 2, 3, 4, 5, 6, 7, 8, 9, 10, 11, 12, 13, 14, 15, 16, 17, 18, 19, 20, 21, 22, 23, 24, 25, 26, 27, 28, 29, 30, 31, 32, 33, 34, 35, 36, 37, 38, 39, 40, 41, 42, 43, 44, 45, 46, 47, 48, 49, 50, 51, 52, 53, 54, 55, 56, 57, 58, 59, 60, 61, 62, 63, 64, 65, 66, 67, 68, 69, 70, 71, 72, 73, 74, 75, 76, 77, 78, 79, 80, 81, 82, 83, 84, 85, 86, 87, 88, 89, 90, 91, 92, 93, 94, 95, 96, 97, 98, 99, 100, 101, 102, 103, 104, 105, 106, 107, 108, 109, 110, 111, 112, 113, 114, 115, 116, 117, 118, 119, 120, 121, 122, 123, 124, 125, 126, 127, 128, 129, 130, 131, 132, 133, 134, 135, 136, 137, 138, 139, 140, 141, 142, 143, 144, 145, 146, 147, 148, 149, 150, 151, 152, 153, 154, 155, 156, 157, 158, 159, 160, 161, 162, 163, 164, 165, 166, 167, 168, 169, 170, 171, 172, 173, 174, 175, 176, 177, 178, 179, 180, 181, 182, 183, 184, 185, 186, 187, 188, 189, 190, 191, 192, 193, 194, 195, 196, 197, 198, 199, 200, 201, 202, 203, 204, 205, 206, 207, 208, 209, 210, 211, 212, 213, 214, 215, 216, 217, 218, 219, 220, 221, 222, 223, 224, 225, 226, 227, 228, 229, 230, 231, 232, 233, 234, 235, 236, 237, 238, 239, 240, 241, 242, 243, 244, 245, 246, 247, 248, 249, 250, 251, 252, 253, 254, 255, 256, 257, 258, 259, 260, 261, 262, 263, 264, 265, 266, 267, 268, 269, 270, 271, 272, 273, 274, 275, 276, 277, 278, 279, 280, 281, 282, 283, 284, 285, 286, 287, 288, 289, 290, 291, 292, 293, 294, 295, 296, 297, 298, 299, 300, 301, 302, 303, 304, 305, 306, 307, 308, 309, 310, 311, 312, 313, 314, 315, 316, 317, 318, 319, 320, 321, 322, 323, 324, 325, 326, 327, 328, 329, 330, 331, 332, 333, 334, 335, 336, 337, 338, 339, 340, 341, 342, 343, 344, 345, 346, 347, 348, 349, 350, 351, 352, 353, 354, 355, 356, 357, 358, 359, 360, 361, 362, 363, 364, 365, 366, 367, 368, 369, 370, 371, 372, 373, 374, 375, 376, 377, 378, 379, 380, 381, 382, 383, 384, 385, 386, 387, 388, 389, 390, 391, 392, 393, 394, 395, 396, 397, 398, 399, 400, 401, 402, 403, 404, 405, 406, 407, 408, 409, 410, 411, 412, 413, 414, 415, 416, 417, 418, 419, 420, 421, 422, 423, 424, 425, 426, 427, 428, 429, 430, 431, 432, 433, 434, 435, 436, 437, 438, 439, 440, 441, 442, 443, 444, 445, 446, 447, 448, 449, 450, 451, 452, 453, 454, 455, 456, 457, 458, 459, 460, 461, 462, 463, 464, 465, 466, 467, 468, 469, 470, 471, 472, 473, 474, 475, 476, 477, 478, 479, 480, 481, 482, 483, 484, 485, 486, 487, 488, 489, 490, 491, 492, 493, 494, 495, 496, 497, 498, 499, 500, 501, 502, 503, 504],
      "AcquisitionTime": ["140000.540000", "140002.030000", "140003.520000", "140005.010000", "140006.500000", "140007.990000", "140009.480000", "140010.970000", "140012.460000", "140013.950000", "140015.440000", "140016.930000", "140018.420000", "140019.910000", "140021.400000", "140022.890000", "140024.380000", "140025.870000", "140027.360000", "140028.850000", "140030.340000", "140031.830000", "140033.320000", "140034.810000", "140036.300000", "140037.790000", "140039.280000", "140040.770000", "140042.260000", "140043.750000", "140045.240000", "140046.730000", "140048.220000", "140049.710000", "140051.200000", "140052.690000", "140054.180000", "140055.670000", "140057.160000", "140058.650000", "140100.140000", "140101.630000", "140103.120000", "140104.610000", "140106.100000", "140107.590000", "140109.080000", "140110.570000", "140112.060000", "140113.550000", "140115.040000", "140116.530000", "140118.020000", "140119.510000", "140121.000000", "140122.490000", "140123.980000", "140125.470000", "140126.960000", "140128.450000", "140129.940000", "140131.430000", "140132.920000", "140134.410000", "140135.900000", "140137.390000", "140138.880000", "140140.370000", "140141.860000", "140143.350000", "140144.840000", "140146.330000", "140147.820000", "140149.310000", "140150.800000", "140152.290000", "140153.780000", "140155.270000", "140156.760000", "140158.250000", "140159.740000", "140201.230000", "140202.720000", "140204.210000", "140205.700000", "140207.190000", "140208.680000", "140210.170000", "140211.660000", "140213.150000", "140214.640000", "140216.130000", "140217.620000", "140219.110000", "140220.600000", "140222.090000", "140223.580000", "140225.070000", "140226.560000", "140228.050000", "140229.540000", "140231.030000", "140232.520000", "140234.010000", "140235.500000", "140236.990000", "140238.480000", "140239.970000", "140241.460000", "140242.950000", "140244.440000", "140245.930000", "140247.420000", "140248.910000", "140250.400000", "140251.890000", "140253.380000", "140254.870000", "140256.360000", "140257.850000", "140259.340000", "140300.830000", "140302.320000", "140303.810000", "140305.300000", "140306.790000", "140308.280000", "140309.770000", "140311.260000", "140312.750000", "140314.240000", "140315.730000", "140317.220000", "140318.710000", "140320.200000", "140321.690000", "140323.180000", "140324.670000", "140326.160000", "140327.650000", "140329.140000", "140330.630000", "140332.120000", "140333.610000", "140335.100000", "140336.590000", "140338.080000", "140339.570000", "140341.060000", "140342.550000", "140344.040000", "140345.530000", "140347.020000", "140348.510000", "140350.000000", "140351.490000", "140352.980000", "140354.470000", "140355.960000", "140357.450000", "140358.940000", "140400.430000", "140401.920000", "140403.410000", "140404.900000", "140406.390000", "140407.880000", "140409.370000", "140410.860000", "140412.350000", "140413.840000", "140415.330000", "140416.820000", "140418.310000", "140419.800000", "140421.290000", "140422.780000", "140424.270000", "140425.760000", "140427.250000", "140428.740000", "140430.230000", "140431.720000", "140433.210000", "140434.700000", "140436.190000", "140437.680000", "140439.170000", "140440.660000", "140442.150000", "140443.640000", "140445.130000", "140446.620000", "140448.110000", "140449.600000", "140451.090000", "140452.580000", "140454.070000", "140455.560000", "140457.050000", "140458.540000", "140500.030000", "140501.520000", "140503.010000", "140504.500000", "140505.990000", "140507.480000", "140508.970000", "140510.460000", "140511.950000", "140513.440000", "140514.930000", "140516.420000", "140517.910000", "140519.400000", "140520.890000", "140522.380000", "140523.870000", "140525.360000", "140526.850000", "140528.340000", "140529.830000", "140531.320000", "140532.810000", "140534.300000", "140535.790000", "140537.280000", "140538.770000", "140540.260000", "140541.750000", "140543.240000", "140544.730000", "140546.220000", "140547.710000", "140549.200000", "140550.690000", "140552.180000", "140553.670000", "140555.160000", "140556.650000", "140558.140000", "140559.630000", "140601.120000", "140602.610000", "140604.100000", "140605.590000", "140607.080000", "140608.570000", "140610.060000", "140611.550000", "140613.040000", "140614.530000", "140616.020000", "140617.510000", "140619.000000", "140620.490000", "140621.980000", "140623.470000", "140624.960000", "140626.450000", "140627.940000", "140629.430000", "140630.920000", "140632.410000", "140633.900000", "140635.390000", "140636.880000", "140638.370000", "140639.860000", "140641.350000", "140642.840000", "140644.330000", "140645.820000", "140647.310000", "140648.800000", "140650.290000", "140651.780000", "140653.270000", "140654.760000", "140656.250000", "140657.740000", "140659.230000", "140700.720000", "140702.210000", "140703.700000", "140705.190000", "140706.680000", "140708.170000", "140709.660000", "140711.150000", "140712.640000", "140714.130000", "140715.620000", "140717.110000", "140718.600000", "140720.090000", "140721.580000", "140723.070000", "140724.560000", "140726.050000", "140727.540000", "140729.030000", "140730.520000", "140732.010000", "140733.500000", "140734.990000", "140736.480000", "140737.970000", "140739.460000", "140740.950000", "140742.440000", "140743.930000", "140745.420000", "140746.910000", "140748.400000", "140749.890000", "140751.380000", "140752.870000", "140754.360000", "140755.850000", "140757.340000", "140758.830000", "140800.320000", "140801.810000", "140803.300000", "140804.790000", "140806.280000", "140807.770000", "140809.260000", "140810.750000", "140812.240000", "140813.730000", "140815.220000", "140816.710000", "140818.200000", "140819.690000", "140821.180000", "140822.670000", "140824.160000", "140825.650000", "140827.140000", "140828.630000", "140830.120000", "140831.610000", "140833.100000", "140834.590000", "140836.080000", "140837.570000", "140839.060000", "140840.550000", "140842.040000", "140843.530000", "140845.020000", "140846.510000", "140848.000000", "140849.490000", "140850.980000", "140852.470000", "140853.960000", "140855.450000", "140856.940000", "140858.430000", "140859.920000", "140901.410000", "140902.900000", "140904.390000", "140905.880000", "140907.370000", "140908.860000", "140910.350000", "140911.840000", "140913.330000", "140914.820000", "140916.310000", "140917.800000", "140919.290000", "140920.780000", "140922.270000", "140923.760000", "140925.250000", "140926.740000", "140928.230000", "140929.720000", "140931.210000", "140932.700000", "140934.190000", "140935.680000", "140937.170000", "140938.660000", "140940.150000", "140941.640000", "140943.130000", "140944.620000", "140946.110000", "140947.600000", "140949.090000", "140950.580000", "140952.070000", "140953.560000", "140955.050000", "140956.540000", "140958.030000", "140959.520000", "141001.010000", "141002.500000", "141003.990000", "141005.480000", "141006.970000", "141008.460000", "141009.950000", "141011.440000", "141012.930000", "141014.420000", "141015.910000", "141017.400000", "141018.890000", "141020.380000", "141021.870000", "141023.360000", "141024.850000", "141026.340000", "141027.830000", "141029.320000", "141030.810000", "141032.300000", "141033.790000", "141035.280000", "141036.770000", "141038.260000", "141039.750000", "141041.240000", "141042.730000", "141044.220000", "141045.710000", "141047.200000", "141048.690000", "141050.180000", "141051.670000", "141053.160000", "141054.650000", "141056.140000", "141057.630000", "141059.120000", "141100.610000", "141102.100000", "141103.590000", "141105.080000", "141106.570000", "141108.060000", "141109.550000", "141111.040000", "141112.530000", "141114.020000", "141115.510000", "141117.000000", "141118.490000", "141119.980000", "141121.470000", "141122.960000", "141124.450000", "141125.940000", "141127.430000", "141128.920000", "141130.410000", "141131.900000", "141133.390000", "141134.880000", "141136.370000", "141137.860000", "141139.350000", "141140.840000", "141142.330000", "141143.820000", "141145.310000", "141146.800000", "141148.290000", "141149.780000", "141151.270000", "141152.760000", "141154.250000", "141155.740000", "141157.230000", "141158.720000", "141200.210000", "141201.700000", "141203.190000", "141204.680000", "141206.170000", "141207.660000", "141209.150000", "141210.640000", "141212.130000", "141213.620000", "141215.110000", "141216.600000", "141218.090000", "141219.580000", "141221.070000", "141222.560000", "141224.050000", "141225.540000", "141227.030000", "141228.520000", "141230.010000"],
      "ContentTime": ["140114.661000", "140114.664000", "140114.667000", "140114.670000", "140114.674000", "140114.676000", "140114.679000", "140114.682000", "140114.685000", "140114.688000", "140114.696000", "140114.699000", "140114.702000", "140114.705000", "140114.710000", "140114.713000", "140114.716000", "140114.719000", "140114.722000", "140114.724000", "140134.632000", "140134.635000", "140134.643000", "140134.646000", "140134.649000", "140134.652000", "140134.655000", "140134.658000", "140134.660000", "140134.663000", "140134.666000", "140134.669000", "140134.672000", "140134.675000", "140134.678000", "140134.681000", "140134.684000", "140134.687000", "140134.690000", "140134.693000", "140154.632000", "140154.635000", "140154.638000", "140154.641000", "140154.644000", "140154.647000", "140154.649000", "140154.653000", "140154.655000", "140154.658000", "140154.661000", "140154.664000", "140154.667000", "140154.670000", "140154.682000", "140154.685000", "140154.688000", "140154.690000", "140154.693000", "140154.696000", "140214.633000", "140214.636000", "140214.639000", "140214.642000", "140214.645000", "140214.648000", "140214.651000", "140214.654000", "140214.657000", "140214.660000", "140214.662000", "140214.666000", "140214.668000", "140214.671000", "140214.674000", "140214.677000", "140214.680000", "140214.683000", "140214.686000", "140214.690000", "140234.633000", "140234.636000", "140234.639000", "140234.642000", "140234.645000", "140234.648000", "140234.651000", "140234.654000", "140234.657000", "140234.660000", "140234.663000", "140234.665000", "140234.668000", "140234.671000", "140234.674000", "140234.677000", "140234.680000", "140234.683000", "140234.686000", "140234.689000", "140234.692000", "140254.633000", "140254.636000", "140254.639000", "140254.642000", "140254.645000", "140254.648000", "140254.651000", "140254.654000", "140254.657000", "140254.660000", "140254.663000", "140254.666000", "140254.669000", "140254.672000", "140254.675000", "140334.632000", "140334.635000", "140334.638000", "140334.641000", "140334.644000", "140334.647000", "140334.653000", "140334.656000", "140334.659000", "140334.662000", "140334.665000", "140334.668000", "140334.670000", "140334.674000", "140334.676000", "140334.679000", "140334.682000", "140334.685000", "140334.688000", "140334.691000", "140334.694000", "140334.697000", "140334.700000", "140334.703000", "140334.706000", "140334.709000", "140334.712000", "140414.632000", "140414.635000", "140414.638000", "140414.641000", "140414.644000", "140414.647000", "140414.650000", "140414.653000", "140414.656000", "140414.659000", "140414.662000", "140414.665000", "140414.668000", "140414.671000", "140414.675000", "140414.677000", "140414.680000", "140414.683000", "140414.687000", "140414.689000", "140414.692000", "140414.695000", "140414.698000", "140414.701000", "140414.704000", "140414.707000", "140454.633000", "140454.636000", "140454.639000", "140454.642000", "140454.645000", "140454.648000", "140454.651000", "140454.654000", "140454.657000", "140454.660000", "140454.663000", "140454.666000", "140454.669000", "140454.672000", "140454.675000", "140454.678000", "140454.680000", "140454.683000", "140454.687000", "140454.689000", "140454.692000", "140454.695000", "140454.698000", "140454.701000", "140454.704000", "140454.707000", "140454.710000", "140534.633000", "140534.636000", "140534.639000", "140534.642000", "140534.657000", "140534.660000", "140534.663000", "140534.666000", "140534.669000", "140534.672000", "140534.675000", "140534.678000", "140534.681000", "140534.684000", "140534.687000", "140534.689000", "140534.692000", "140534.696000", "140534.699000", "140534.702000", "140534.704000", "140534.707000", "140534.721000", "140534.724000", "140534.727000", "140534.730000", "140534.733000", "140614.632000", "140614.635000", "140614.638000", "140614.641000", "140614.644000", "140614.647000", "140614.650000", "140614.653000", "140614.656000", "140614.659000", "140614.662000", "140614.665000", "140614.668000", "140614.671000", "140614.673000", "140614.676000", "140614.679000", "140614.682000", "140614.685000", "140614.688000", "140614.691000", "140614.694000", "140614.697000", "140614.700000", "140614.703000", "140614.706000", "140614.709000", "140654.633000", "140654.636000", "140654.639000", "140654.642000", "140654.645000", "140654.648000", "140654.651000", "140654.654000", "140654.657000", "140654.660000", "140654.663000", "140654.666000", "140654.669000", "140654.672000", "140654.674000", "140654.678000", "140654.680000", "140654.683000", "140654.686000", "140654.689000", "140654.692000", "140654.695000", "140654.698000", "140654.701000", "140654.704000", "140654.707000", "140654.710000", "140734.633000", "140734.637000", "140734.640000", "140734.644000", "140734.647000", "140734.651000", "140734.654000", "140734.657000", "140734.660000", "140734.664000", "140734.667000", "140734.671000", "140734.674000", "140734.677000", "140734.680000", "140734.683000", "140734.686000", "140734.689000", "140734.693000", "140734.696000", "140734.700000", "140734.703000", "140734.707000", "140734.710000", "140734.714000", "140734.717000", "140734.720000", "140814.632000", "140814.635000", "140814.638000", "140814.641000", "140814.644000", "140814.647000", "140814.650000", "140814.653000", "140814.656000", "140814.659000", "140814.662000", "140814.665000", "140814.676000", "140814.679000", "140814.682000", "140814.685000", "140814.688000", "140814.692000", "140814.695000", "140814.698000", "140814.701000", "140814.704000", "140814.707000", "140814.710000", "140814.713000", "140814.716000", "140854.632000", "140854.635000", "140854.638000", "140854.641000", "140854.644000", "140854.647000", "140854.650000", "140854.653000", "140854.656000", "140854.659000", "140854.662000", "140854.665000", "140854.668000", "140854.671000", "140854.673000", "140854.677000", "140854.680000", "140854.682000", "140854.685000", "140854.689000", "140854.692000", "140854.694000", "140854.697000", "140854.700000", "140854.703000", "140854.706000", "140854.709000", "140934.633000", "140934.636000", "140934.639000", "140934.642000", "140934.645000", "140934.648000", "140934.651000", "140934.654000", "140934.657000", "140934.660000", "140934.663000", "140934.666000", "140934.669000", "140934.672000", "140934.675000", "140934.678000", "140934.681000", "140934.684000", "140934.687000", "140934.690000", "140934.693000", "140934.696000", "140934.699000", "140934.702000", "140934.705000", "140934.707000", "140934.711000", "141014.633000", "141014.636000", "141014.639000", "141014.642000", "141014.645000", "141014.648000", "141014.651000", "141014.654000", "141014.657000", "141014.660000", "141014.663000", "141014.666000", "141014.669000", "141014.672000", "141014.675000", "141014.677000", "141014.680000", "141014.684000", "141014.687000", "141014.689000", "141014.692000", "141014.695000", "141014.698000", "141014.701000", "141014.704000", "141014.707000", "141014.710000", "141054.632000", "141054.635000", "141054.638000", "141054.641000", "141054.644000", "141054.647000", "141054.650000", "141054.653000", "141054.656000", "141054.659000", "141054.662000", "141054.665000", "141054.668000", "141054.671000", "141054.673000", "141054.676000", "141054.679000", "141054.682000", "141054.685000", "141054.689000", "141054.693000", "141054.695000", "141054.698000", "141054.701000", "141054.704000", "141054.707000", "141054.710000", "141134.633000", "141134.636000", "141134.639000", "141134.642000", "141134.645000", "141134.648000", "141134.651000", "141134.654000", "141134.657000", "141134.660000", "141134.663000", "141134.666000", "141134.669000", "141134.672000", "141134.675000", "141134.678000", "141134.681000", "141134.684000", "141134.687000", "141134.690000", "141134.693000", "141134.696000", "141134.699000", "141134.702000", "141134.705000", "141134.708000", "141134.710000", "141214.633000", "141214.636000", "141214.646000", "141214.649000", "141214.652000", "141214.655000", "141214.658000", "141214.661000", "141214.664000", "141214.667000", "141214.670000", "141214.673000", "141214.676000", "141214.679000", "141214.682000", "141214.685000", "141214.688000", "141214.691000", "141214.694000", "141214.697000", "141214.700000", "141214.703000", "141214.706000", "141214.709000", "141214.712000", "141214.715000", "141214.718000", "141232.503000", "141232.506000", "141232.510000", "141232.513000", "141232.516000", "141232.519000", "141232.522000", "141232.525000", "141232.528000", "141232.531000", "141232.534000", "141232.537000"],
