{
  "AcquisitionMatrixPE": 104,
  "AcquisitionNumber": 1,
  "AcquisitionTime": "19:18:28.347500",
  "BandwidthPerPixelPhaseEncode": 17.17,
  "BaseResolution": 104,
  "BodyPartExamined": "BRAIN",
  "CoilCombinationMethod": "Sum of Squares",
  "ConsistencyInfo": "N4_VE11C_LATEST_20160120",
  "ConversionSoftware": "dcm2niix",
  "ConversionSoftwareVersion": "v1.0.20211006",
  "DerivedVendorReportedEchoSpacing": 0.000560011,
  "DeviceSerialNumber": "167006",
  "DwellTime": 2.1e-06,
  "EchoTime": 0.037,
  "EchoTrainLength": 104,
  "EffectiveEchoSpacing": 0.000560011,
  "FlipAngle": 52,
  "HeudiconvVersion": "0.11.3.post9+gc939bf8",
  "ImageComments": "Unaliased MB4/PE3/LB",
  "ImageOrientationPatientDICOM": [0.999895, -0.0119107, -0.00819754, 0.0078533, 0.923402, -0.383754],
  "ImageOrientationText": "Tra>Cor(-22.6)>Sag(-0.7)",
  "ImageType": [
    "ORIGINAL",
    "PRIMARY",
    "M",
    "MB",
    "ND",
    "MOSAIC"
],
  "ImagingFrequency": 123.259,
  "InPlanePhaseEncodingDirectionDICOM": "COL",
  "InstitutionAddress": "Chemin Queen-Mary 4565,Montreal,District,CA,H3W 1W5",
  "InstitutionName": "IUGM",
  "InstitutionalDepartmentName": "Department",
  "MRAcquisitionType": "2D",
  "MagneticFieldStrength": 3,
  "Manufacturer": "Siemens",
  "ManufacturersModelName": "Prisma_fit",
  "MatrixCoilMode": "SENSE",
  "Modality": "MR",
  "MultibandAccelerationFactor": 4,
  "PartialFourier": 1,
  "PatientPosition": "HFS",
  "PercentPhaseFOV": 100,
  "PercentSampling": 100,
  "PhaseEncodingDirection": "j",
  "PhaseEncodingSteps": 104,
  "PhaseResolution": 1,
  "PixelBandwidth": 2290,
  "ProcedureStepDescription": "video^friends",
  "ProtocolName": "func_task-friends-s06e15d",
  "PulseSequenceDetails": "%CustomerSeq%\\cmrr_mbep2d_bold",
  "ReceiveCoilActiveElements": "HC1-7;NC1,2",
  "ReceiveCoilName": "HeadNeck_64",
  "ReconMatrixPE": 104,
  "RepetitionTime": 1.49,
  "SAR": 0.0650645,
  "ScanOptions": "FS",
  "ScanningSequence": "EP",
  "SequenceName": "epfid2d1_104",
  "SequenceVariant": "SK\\SS",
  "SeriesDescription": "func_task-friends-s06e15d",
  "SeriesNumber": 16,
  "ShimSetting": [620, -7263, -8837, 406, 35, -390, -21, 32],
  "SliceThickness": 2,
  "SliceTiming": [0, 0.7825, 0.0975, 0.88, 0.195, 0.98, 0.2925, 1.0775, 0.39, 1.175, 0.49, 1.2725, 0.5875, 1.37, 0.685, 0, 0.7825, 0.0975, 0.88, 0.195, 0.98, 0.2925, 1.0775, 0.39, 1.175, 0.49, 1.2725, 0.5875, 1.37, 0.685, 0, 0.7825, 0.0975, 0.88, 0.195, 0.98, 0.2925, 1.0775, 0.39, 1.175, 0.49, 1.2725, 0.5875, 1.37, 0.685, 0, 0.7825, 0.0975, 0.88, 0.195, 0.98, 0.2925, 1.0775, 0.39, 1.175, 0.49, 1.2725, 0.5875, 1.37, 0.685],
  "SoftwareVersions": "syngo MR E11",
  "SpacingBetweenSlices": 2,
  "StationName": "MRC35049",
  "TaskName": "s06e15d",
  "TotalReadoutTime": 0.0576811,
  "TxRefAmp": 280.245,
  "WipMemBlock": "3dcc1347-6873-4970-ab9d-7536005c25ab||Sequence: R017 ve11c/master r/75a17815+; Jun 28 2022 16:32:11 by eja",
  "dcmmeta_affine": [
    [-1.999790906906128, 0.015706608071923256, -0.024280786514282227, 99.18914794921875],
    [0.02382132224738598, 1.8468035459518433, -0.7672998905181885, -70.26776885986328],
    [-0.01639508083462715, 0.767508864402771, 1.8467975854873657, -67.77093505859375],
    [0.0, 0.0, 0.0, 1.0]
],
  "dcmmeta_reorient_transform": [
    [0.0, -1.0, 0.0, 103.0],
    [1.0, 0.0, 0.0, 0.0],
    [0.0, 0.0, 1.0, 0.0],
    [0.0, 0.0, 0.0, 1.0]
],
  "dcmmeta_shape": [104, 104, 60, 490],
  "dcmmeta_slice_dim": 2,
  "dcmmeta_version": 0.6,
  "global": {
    "const": {
      "AcquisitionMatrix": [104, 0, 0, 104],
      "AngioFlag": "N",
      "BitsAllocated": 16,
      "BitsStored": 16,
      "BodyPartExamined": "BRAIN",
      "Columns": 832,
      "EchoNumbers": 1,
      "EchoTime": 37.0,
      "EchoTrainLength": 104,
      "FlipAngle": 52.0,
      "HighBit": 15,
      "ImageOrientationPatient": [0.99989546277192, -0.0119106614124, -0.0081975406582, 0.00785330435879, 0.92340178499248, -0.3837544385194],
      "ImagePositionPatient": [-834.44803330808, -783.51853565604, 296.62351689061],
      "ImageType": [
        "ORIGINAL",
        "PRIMARY",
        "M",
        "MB",
        "ND",
        "MOSAIC"
],
      "ImagedNucleus": "1H",
      "ImagingFrequency": 123.258818,
      "InPlanePhaseEncodingDirection": "COL",
      "MRAcquisitionType": "2D",
      "MagneticFieldStrength": 3.0,
      "Manufacturer": "SIEMENS",
      "ManufacturerModelName": "Prisma_fit",
      "Modality": "MR",
      "NumberOfAverages": 1.0,
      "NumberOfPhaseEncodingSteps": 104,
      "PercentPhaseFieldOfView": 100.0,
      "PercentSampling": 100.0,
      "PerformedProcedureStepStartTime": "183531.296000",
      "PhotometricInterpretation": "MONOCHROME2",
      "PixelBandwidth": 2290.0,
      "PixelRepresentation": 0,
      "PixelSpacing": [2.0, 2.0],
      "ProtocolName": "func_task-friends-s06e15d",
      "RepetitionTime": 1490.0,
      "Rows": 832,
      "SAR": 0.06506450083584,
      "SamplesPerPixel": 1,
      "ScanOptions": "FS",
      "ScanningSequence": "EP",
      "SequenceName": "epfid2d1_104",
      "SequenceVariant": [
        "SK",
        "SS"
],
      "SeriesDescription": "func_task-friends-s06e15d",
      "SeriesNumber": 16,
      "SeriesTime": "191922.837000",
      "SliceLocation": -36.825571835045,
      "SliceThickness": 2.0,
      "SmallestImagePixelValue": 0,
      "SoftwareVersions": "syngo MR E11",
      "SpacingBetweenSlices": 2.000000027496,
      "SpecificCharacterSet": "ISO_IR 100",
      "StudyID": "1",
      "StudyTime": "183531.231000",
      "TransmitCoilName": "Body",
      "VariableFlipAngleFlag": "N",
      "WindowCenterWidthExplanation": "Algo1",
      "dBdt": 0.0},
    "slices": {}
  },
  "time": {
    "samples": {
      "AcquisitionNumber": [1, 2, 3, 4, 5, 6, 7, 8, 9, 10, 11, 12, 13, 14, 15, 16, 17, 18, 19, 20, 21, 22, 23, 24, 25, 26, 27, 28, 29, 30, 31, 32, 33, 34, 35, 36, 37, 38, 39, 40, 41, 42, 43, 44, 45, 46, 47, 48, 49, 50, 51, 52, 53, 54, 55, 56, 57, 58, 59, 60, 61, 62, 63, 64, 65, 66, 67, 68, 69, 70, 71, 72, 73, 74, 75, 76, 77, 78, 79, 80, 81, 82, 83, 84, 85, 86, 87, 88, 89, 90, 91, 92, 93, 94, 95, 96, 97, 98, 99, 100, 101, 102, 103, 104, 105, 106, 107, 108, 109, 110, 111, 112, 113, 114, 115, 116, 117, 118, 119, 120, 121, 122, 123, 124, 125, 126, 127, 128, 129, 130, 131, 132, 133, 134, 135, 136, 137, 138, 139, 140, 141, 142, 143, 144, 145, 146, 147, 148, 149, 150, 151, 152, 153, 154, 155, 156, 157, 158, 159, 160, 161, 162, 163, 164, 165, 166, 167, 168, 169, 170, 171, 172, 173, 174, 175, 176, 177, 178, 179, 180, 181, 182, 183, 184, 185, 186, 187, 188, 189, 190, 191, 192, 193, 194, 195, 196, 197, 198, 199, 200, 201, 202, 203, 204, 205, 206, 207, 208, 209, 210, 211, 212, 213, 214, 215, 216, 217, 218, 219, 220, 221, 222, 223, 224, 225, 226, 227, 228, 229, 230, 231, 232, 233, 234, 235, 236, 237, 238, 239, 240, 241, 242, 243, 244, 245, 246, 247, 248, 249, 250, 251, 252, 253, 254, 255, 256, 257, 258, 259, 260, 261, 262, 263, 264, 265, 266, 267, 268, 269, 270, 271, 272, 273, 274, 275, 276, 277, 278, 279, 280, 281, 282, 283, 284, 285, 286, 287, 288, 289, 290, 291, 292, 293, 294, 295, 296, 297, 298, 299, 300, 301, 302, 303, 304, 305, 306, 307, 308, 309, 310, 311, 312, 313, 314, 315, 316, 317, 318, 319, 320, 321, 322, 323, 324, 325, 326, 327, 328, 329, 330, 331, 332, 333, 334, 335, 336, 337, 338, 339, 340, 341, 342, 343, 344, 345, 346, 347, 348, 349, 350, 351, 352, 353, 354, 355, 356, 357, 358, 359, 360, 361, 362, 363, 364, 365, 366, 367, 368, 369, 370, 371, 372, 373, 374, 375, 376, 377, 378, 379, 380, 381, 382, 383, 384, 385, 386, 387, 388, 389, 390, 391, 392, 393, 394, 395, 396, 397, 398, 399, 400, 401, 402, 403, 404, 405, 406, 407, 408, 409, 410, 411, 412, 413, 414, 415, 416, 417, 418, 419, 420, 421, 422, 423, 424, 425, 426, 427, 428, 429, 430, 431, 432, 433, 434, 435, 436, 437, 438, 439, 440, 441, 442, 443, 444, 445, 446, 447, 448, 449, 450, 451, 452, 453, 454, 455, 456, 457, 458, 459, 460, 461, 462, 463, 464, 465, 466, 467, 468, 469, 470, 471, 472, 473, 474, 475, 476, 477, 478, 479, 480, 481, 482, 483, 484, 485, 486, 487, 488, 489, 490],
      "AcquisitionTime": ["191828.347500", "191829.837500", "191831.327500", "191832.817500", "191834.307500", "191835.797500", "191837.287500", "191838.777500", "191840.267500", "191841.757500", "191843.247500", "191844.737500", "191846.227500", "191847.717500", "191849.207500", "191850.697500", "191852.187500", "191853.677500", "191855.167500", "191856.657500", "191858.147500", "191859.637500", "191901.127500", "191902.617500", "191904.107500", "191905.597500", "191907.087500", "191908.577500", "191910.067500", "191911.557500", "191913.047500", "191914.537500", "191916.027500", "191917.517500", "191919.007500", "191920.497500", "191921.987500", "191923.477500", "191924.967500", "191926.457500", "191927.947500", "191929.437500", "191930.927500", "191932.417500", "191933.907500", "191935.397500", "191936.887500", "191938.377500", "191939.867500", "191941.357500", "191942.847500", "191944.337500", "191945.827500", "191947.317500", "191948.807500", "191950.297500", "191951.787500", "191953.277500", "191954.767500", "191956.257500", "191957.747500", "191959.237500", "192000.727500", "192002.217500", "192003.707500", "192005.197500", "192006.687500", "192008.177500", "192009.667500", "192011.157500", "192012.647500", "192014.137500", "192015.627500", "192017.117500", "192018.607500", "192020.097500", "192021.587500", "192023.077500", "192024.567500", "192026.057500", "192027.547500", "192029.037500", "192030.527500", "192032.017500", "192033.507500", "192034.997500", "192036.487500", "192037.977500", "192039.467500", "192040.957500", "192042.447500", "192043.937500", "192045.427500", "192046.917500", "192048.407500", "192049.897500", "192051.387500", "192052.877500", "192054.367500", "192055.857500", "192057.347500", "192058.837500", "192100.327500", "192101.817500", "192103.307500", "192104.797500", "192106.287500", "192107.777500", "192109.267500", "192110.757500", "192112.247500", "192113.737500", "192115.227500", "192116.717500", "192118.207500", "192119.697500", "192121.187500", "192122.677500", "192124.167500", "192125.657500", "192127.147500", "192128.637500", "192130.127500", "192131.617500", "192133.107500", "192134.597500", "192136.087500", "192137.577500", "192139.067500", "192140.557500", "192142.047500", "192143.537500", "192145.027500", "192146.517500", "192148.007500", "192149.497500", "192150.987500", "192152.477500", "192153.967500", "192155.457500", "192156.947500", "192158.437500", "192159.927500", "192201.417500", "192202.907500", "192204.397500", "192205.887500", "192207.377500", "192208.867500", "192210.357500", "192211.847500", "192213.337500", "192214.827500", "192216.317500", "192217.807500", "192219.297500", "192220.787500", "192222.277500", "192223.767500", "192225.257500", "192226.747500", "192228.237500", "192229.727500", "192231.217500", "192232.707500", "192234.197500", "192235.687500", "192237.177500", "192238.667500", "192240.157500", "192241.647500", "192243.137500", "192244.627500", "192246.117500", "192247.607500", "192249.097500", "192250.587500", "192252.077500", "192253.567500", "192255.057500", "192256.547500", "192258.037500", "192259.527500", "192301.017500", "192302.507500", "192303.997500", "192305.487500", "192306.977500", "192308.467500", "192309.957500", "192311.447500", "192312.937500", "192314.427500", "192315.917500", "192317.407500", "192318.897500", "192320.387500", "192321.877500", "192323.367500", "192324.857500", "192326.347500", "192327.837500", "192329.327500", "192330.817500", "192332.307500", "192333.797500", "192335.287500", "192336.777500", "192338.267500", "192339.757500", "192341.247500", "192342.737500", "192344.227500", "192345.717500", "192347.207500", "192348.697500", "192350.187500", "192351.677500", "192353.167500", "192354.657500", "192356.147500", "192357.637500", "192359.127500", "192400.617500", "192402.107500", "192403.597500", "192405.087500", "192406.577500", "192408.067500", "192409.557500", "192411.047500", "192412.537500", "192414.027500", "192415.517500", "192417.007500", "192418.497500", "192419.987500", "192421.477500", "192422.967500", "192424.457500", "192425.947500", "192427.437500", "192428.927500", "192430.417500", "192431.907500", "192433.397500", "192434.887500", "192436.377500", "192437.867500", "192439.357500", "192440.847500", "192442.337500", "192443.827500", "192445.317500", "192446.807500", "192448.297500", "192449.787500", "192451.277500", "192452.767500", "192454.257500", "192455.747500", "192457.237500", "192458.727500", "192500.217500", "192501.707500", "192503.197500", "192504.687500", "192506.177500", "192507.667500", "192509.157500", "192510.647500", "192512.137500", "192513.627500", "192515.117500", "192516.607500", "192518.097500", "192519.587500", "192521.077500", "192522.567500", "192524.057500", "192525.547500", "192527.037500", "192528.527500", "192530.017500", "192531.507500", "192532.997500", "192534.487500", "192535.977500", "192537.467500", "192538.957500", "192540.447500", "192541.937500", "192543.427500", "192544.917500", "192546.407500", "192547.897500", "192549.387500", "192550.877500", "192552.367500", "192553.857500", "192555.347500", "192556.837500", "192558.327500", "192559.817500", "192601.307500", "192602.797500", "192604.287500", "192605.777500", "192607.267500", "192608.757500", "192610.247500", "192611.737500", "192613.227500", "192614.717500", "192616.207500", "192617.697500", "192619.187500", "192620.677500", "192622.167500", "192623.657500", "192625.147500", "192626.637500", "192628.127500", "192629.617500", "192631.107500", "192632.597500", "192634.087500", "192635.577500", "192637.067500", "192638.557500", "192640.047500", "192641.537500", "192643.027500", "192644.517500", "192646.007500", "192647.497500", "192648.987500", "192650.477500", "192651.967500", "192653.457500", "192654.947500", "192656.437500", "192657.927500", "192659.417500", "192700.907500", "192702.397500", "192703.887500", "192705.377500", "192706.867500", "192708.357500", "192709.847500", "192711.337500", "192712.827500", "192714.317500", "192715.807500", "192717.297500", "192718.787500", "192720.277500", "192721.767500", "192723.257500", "192724.747500", "192726.237500", "192727.727500", "192729.217500", "192730.707500", "192732.197500", "192733.687500", "192735.177500", "192736.667500", "192738.157500", "192739.647500", "192741.137500", "192742.627500", "192744.117500", "192745.607500", "192747.097500", "192748.587500", "192750.077500", "192751.567500", "192753.057500", "192754.547500", "192756.037500", "192757.527500", "192759.017500", "192800.507500", "192801.997500", "192803.487500", "192804.977500", "192806.467500", "192807.957500", "192809.447500", "192810.937500", "192812.427500", "192813.917500", "192815.407500", "192816.897500", "192818.387500", "192819.877500", "192821.367500", "192822.857500", "192824.347500", "192825.837500", "192827.327500", "192828.817500", "192830.307500", "192831.797500", "192833.287500", "192834.777500", "192836.267500", "192837.757500", "192839.247500", "192840.737500", "192842.227500", "192843.717500", "192845.207500", "192846.697500", "192848.187500", "192849.677500", "192851.167500", "192852.657500", "192854.147500", "192855.637500", "192857.127500", "192858.617500", "192900.107500", "192901.597500", "192903.087500", "192904.577500", "192906.067500", "192907.557500", "192909.047500", "192910.537500", "192912.027500", "192913.517500", "192915.007500", "192916.497500", "192917.987500", "192919.477500", "192920.967500", "192922.457500", "192923.947500", "192925.437500", "192926.927500", "192928.417500", "192929.907500", "192931.397500", "192932.887500", "192934.377500", "192935.867500", "192937.357500", "192938.847500", "192940.337500", "192941.827500", "192943.317500", "192944.807500", "192946.297500", "192947.787500", "192949.277500", "192950.767500", "192952.257500", "192953.747500", "192955.237500", "192956.727500", "192958.217500", "192959.707500", "193001.197500", "193002.687500", "193004.177500", "193005.667500", "193007.157500", "193008.647500", "193010.137500", "193011.627500", "193013.117500", "193014.607500", "193016.097500", "193017.587500", "193019.077500", "193020.567500", "193022.057500", "193023.547500", "193025.037500", "193026.527500", "193028.017500", "193029.507500", "193030.997500", "193032.487500", "193033.977500", "193035.467500", "193036.957500"],
      "ContentTime": ["191922.840000", "191922.843000", "191922.846000", "191922.849000", "191922.852000", "191922.855000", "191942.805000", "191942.808000", "191942.811000", "191942.814000", "191942.817000", "191942.820000", "191942.824000", "191942.827000", "191942.830000", "191942.833000", "191942.836000", "191942.838000", "191942.841000", "191942.844000", "191942.847000", "191942.850000", "191942.853000", "191942.856000", "191942.859000", "191942.862000", "191942.865000", "192002.805000", "192002.808000", "192002.811000", "192002.814000", "192002.817000", "192002.820000", "192002.822000", "192002.826000", "192002.828000", "192002.831000", "192002.834000", "192002.837000", "192002.846000", "192002.849000", "192002.852000", "192002.855000", "192002.858000", "192002.861000", "192002.864000", "192002.867000", "192022.805000", "192022.808000", "192022.811000", "192022.814000", "192022.817000", "192022.824000", "192022.827000", "192022.830000", "192022.833000", "192022.836000", "192022.839000", "192022.842000", "192022.845000", "192022.847000", "192022.850000", "192022.853000", "192022.856000", "192022.859000", "192022.862000", "192022.865000", "192042.805000", "192042.808000", "192042.811000", "192042.814000", "192042.817000", "192042.820000", "192042.823000", "192042.826000", "192042.829000", "192042.832000", "192042.835000", "192042.838000", "192042.841000", "192042.844000", "192042.847000", "192042.850000", "192042.853000", "192042.856000", "192042.859000", "192042.861000", "192122.805000", "192122.808000", "192122.811000", "192122.814000", "192122.817000", "192122.820000", "192122.823000", "192122.826000", "192122.828000", "192122.832000", "192122.834000", "192122.837000", "192122.847000", "192122.850000", "192122.853000", "192122.856000", "192122.859000", "192122.862000", "192122.865000", "192122.868000", "192122.871000", "192122.874000", "192122.877000", "192122.880000", "192122.883000", "192122.886000", "192122.889000", "192122.891000", "192122.894000", "192202.805000", "192202.808000", "192202.811000", "192202.814000", "192202.817000", "192202.820000", "192202.823000", "192202.826000", "192202.829000", "192202.832000", "192202.835000", "192202.838000", "192202.841000", "192202.844000", "192202.847000", "192202.849000", "192202.852000", "192202.855000", "192202.858000", "192202.861000", "192202.864000", "192202.867000", "192202.870000", "192202.873000", "192202.876000", "192202.879000", "192202.882000", "192242.805000", "192242.808000", "192242.811000", "192242.814000", "192242.817000", "192242.820000", "192242.823000", "192242.826000", "192242.829000", "192242.832000", "192242.835000", "192242.838000", "192242.840000", "192242.843000", "192242.846000", "192242.849000", "192242.852000", "192242.855000", "192242.858000", "192242.861000", "192242.864000", "192242.867000", "192242.870000", "192242.873000", "192242.876000", "192242.879000", "192242.882000", "192322.805000", "192322.808000", "192322.811000", "192322.814000", "192322.817000", "192322.820000", "192322.823000", "192322.826000", "192322.829000", "192322.832000", "192322.834000", "192322.837000", "192322.841000", "192322.843000", "192322.846000", "192322.849000", "192322.852000", "192322.855000", "192322.858000", "192322.861000", "192322.864000", "192322.867000", "192322.870000", "192322.873000", "192322.876000", "192322.879000", "192322.882000", "192402.805000", "192402.808000", "192402.811000", "192402.814000", "192402.817000", "192402.820000", "192402.823000", "192402.826000", "192402.829000", "192402.832000", "192402.835000", "192402.838000", "192402.841000", "192402.844000", "192402.847000", "192402.850000", "192402.852000", "192402.855000", "192402.858000", "192402.861000", "192402.864000", "192402.867000", "192402.870000", "192402.873000", "192402.890000", "192402.893000", "192402.896000", "192442.806000", "192442.809000", "192442.812000", "192442.815000", "192442.818000", "192442.821000", "192442.824000", "192442.827000", "192442.830000", "192442.833000", "192442.836000", "192442.839000", "192442.842000", "192442.845000", "192442.848000", "192442.851000", "192442.854000", "192442.857000", "192442.860000", "192442.863000", "192442.866000", "192442.869000", "192442.872000", "192442.875000", "192442.878000", "192442.881000", "192522.805000", "192522.808000", "192522.811000", "192522.814000", "192522.817000", "192522.820000", "192522.823000", "192522.826000", "192522.829000", "192522.832000", "192522.835000", "192522.838000", "192522.841000", "192522.844000", "192522.846000", "192522.849000", "192522.852000", "192522.855000", "192522.858000", "192522.861000", "192522.864000", "192522.867000", "192522.870000", "192522.873000", "192522.882000", "192522.885000", "192522.888000", "192602.805000", "192602.808000", "192602.811000", "192602.814000", "192602.817000", "192602.820000", "192602.823000", "192602.826000", "192602.829000", "192602.832000", "192602.835000", "192602.838000", "192602.841000", "192602.844000", "192602.847000", "192602.850000", "192602.853000", "192602.856000", "192602.859000", "192602.862000", "192602.865000", "192602.867000", "192602.870000", "192602.873000", "192602.876000", "192602.879000", "192602.882000", "192642.805000", "192642.808000", "192642.811000", "192642.814000", "192642.817000", "192642.820000", "192642.823000", "192642.826000", "192642.829000", "192642.832000", "192642.835000", "192642.838000", "192642.841000", "192642.844000", "192642.847000", "192642.850000", "192642.853000", "192642.856000", "192642.859000", "192642.861000", "192642.864000", "192642.867000", "192642.870000", "192642.873000", "192642.876000", "192642.879000", "192642.882000", "192722.805000", "192722.808000", "192722.811000", "192722.814000", "192722.817000", "192722.820000", "192722.823000", "192722.826000", "192722.829000", "192722.832000", "192722.835000", "192722.838000", "192722.840000", "192722.850000", "192722.853000", "192722.856000", "192722.859000", "192722.862000", "192722.865000", "192722.868000", "192722.871000", "192722.874000", "192722.876000", "192722.879000", "192722.882000", "192722.885000", "192722.888000", "192742.805000", "192742.808000", "192742.811000", "192742.814000", "192742.817000", "192742.820000", "192742.823000", "192742.826000", "192742.829000", "192742.832000", "192742.835000", "192742.838000", "192742.841000", "192822.805000", "192822.808000", "192822.811000", "192822.814000", "192822.817000", "192822.820000", "192822.823000", "192822.826000", "192822.829000", "192822.832000", "192822.835000", "192822.838000", "192822.841000", "192822.844000", "192822.847000", "192822.849000", "192822.852000", "192822.855000", "192822.858000", "192822.861000", "192822.864000", "192822.867000", "192822.870000", "192822.873000", "192822.876000", "192822.879000", "192822.882000", "192902.805000", "192902.808000", "192902.811000", "192902.814000", "192902.823000", "192902.826000", "192902.829000", "192902.845000", "192902.848000", "192902.851000", "192902.854000", "192902.857000", "192902.860000", "192902.863000", "192902.866000", "192902.869000", "192902.872000", "192902.875000", "192902.877000", "192902.880000", "192902.883000", "192902.886000", "192902.889000", "192902.892000", "192902.895000", "192902.898000", "192902.901000", "192942.805000", "192942.808000", "192942.811000", "192942.814000", "192942.817000", "192942.820000", "192942.823000", "192942.826000", "192942.829000", "192942.831000", "192942.834000", "192942.837000", "192942.840000", "192942.843000", "192942.846000", "192942.849000", "192942.852000", "192942.855000", "192942.858000", "192942.861000", "192942.864000", "192942.867000", "192942.870000", "192942.873000", "192942.876000", "192942.878000", "192942.881000", "193022.805000", "193022.808000", "193022.811000", "193022.814000", "193022.817000", "193022.820000", "193022.823000", "193022.825000", "193022.828000", "193022.831000", "193022.834000", "193022.837000", "193022.840000", "193022.843000", "193022.846000", "193022.857000", "193022.860000", "193022.863000", "193022.866000", "193022.869000", "193022.872000", "193022.875000", "193022.877000", "193022.880000", "193022.883000", "193022.886000", "193022.889000", "193039.081000", "193039.084000", "193039.087000", "193039.090000", "193039.093000", "193039.096000", "193039.099000", "193039.102000", "193039.110000", "193039.113000", "193039.116000"],
