{
  "AcquisitionMatrixPE": 104,
  "AcquisitionNumber": 1,
  "AcquisitionTime": "18:40:7.150000",
  "BandwidthPerPixelPhaseEncode": 17.17,
  "BaseResolution": 104,
  "BodyPartExamined": "BRAIN",
  "CoilCombinationMethod": "Sum of Squares",
  "ConsistencyInfo": "N4_VE11C_LATEST_20160120",
  "ConversionSoftware": "dcm2niix",
  "ConversionSoftwareVersion": "v1.0.20211006",
  "DerivedVendorReportedEchoSpacing": 0.000560011,
  "DeviceSerialNumber": "167006",
  "DwellTime": 2.1e-06,
  "EchoTime": 0.037,
  "EchoTrainLength": 104,
  "EffectiveEchoSpacing": 0.000560011,
  "FlipAngle": 52,
  "HeudiconvVersion": "0.11.3.post9+gc939bf8",
  "ImageComments": "Unaliased MB4/PE3/LB",
  "ImageOrientationPatientDICOM": [0.999895, -0.0119107, -0.00819754, 0.0078533, 0.923402, -0.383754],
  "ImageOrientationText": "Tra>Cor(-22.6)>Sag(-0.7)",
  "ImageType": [
    "ORIGINAL",
    "PRIMARY",
    "M",
    "MB",
    "ND",
    "MOSAIC"
],
  "ImagingFrequency": 123.259,
  "InPlanePhaseEncodingDirectionDICOM": "COL",
  "InstitutionAddress": "Chemin Queen-Mary 4565,Montreal,District,CA,H3W 1W5",
  "InstitutionName": "IUGM",
  "InstitutionalDepartmentName": "Department",
  "MRAcquisitionType": "2D",
  "MagneticFieldStrength": 3,
  "Manufacturer": "Siemens",
  "ManufacturersModelName": "Prisma_fit",
  "MatrixCoilMode": "SENSE",
  "Modality": "MR",
  "MultibandAccelerationFactor": 4,
  "PartialFourier": 1,
  "PatientPosition": "HFS",
  "PercentPhaseFOV": 100,
  "PercentSampling": 100,
  "PhaseEncodingDirection": "j",
  "PhaseEncodingSteps": 104,
  "PhaseResolution": 1,
  "PixelBandwidth": 2290,
  "ProcedureStepDescription": "video^friends",
  "ProtocolName": "func_task-friends-s06e15a",
  "PulseSequenceDetails": "%CustomerSeq%\\cmrr_mbep2d_bold",
  "ReceiveCoilActiveElements": "HC1-7;NC1,2",
  "ReceiveCoilName": "HeadNeck_64",
  "ReconMatrixPE": 104,
  "RepetitionTime": 1.49,
  "SAR": 0.0650645,
  "ScanOptions": "FS",
  "ScanningSequence": "EP",
  "SequenceName": "epfid2d1_104",
  "SequenceVariant": "SK\\SS",
  "SeriesDescription": "func_task-friends-s06e15a",
  "SeriesNumber": 10,
  "ShimSetting": [620, -7263, -8837, 406, 35, -390, -21, 32],
  "SliceThickness": 2,
  "SliceTiming": [0, 0.7825, 0.0975, 0.8825, 0.195, 0.98, 0.2925, 1.0775, 0.3925, 1.175, 0.49, 1.2725, 0.5875, 1.3725, 0.685, 0, 0.7825, 0.0975, 0.8825, 0.195, 0.98, 0.2925, 1.0775, 0.3925, 1.175, 0.49, 1.2725, 0.5875, 1.3725, 0.685, 0, 0.7825, 0.0975, 0.8825, 0.195, 0.98, 0.2925, 1.0775, 0.3925, 1.175, 0.49, 1.2725, 0.5875, 1.3725, 0.685, 0, 0.7825, 0.0975, 0.8825, 0.195, 0.98, 0.2925, 1.0775, 0.3925, 1.175, 0.49, 1.2725, 0.5875, 1.3725, 0.685],
  "SoftwareVersions": "syngo MR E11",
  "SpacingBetweenSlices": 2,
  "StationName": "MRC35049",
  "TaskName": "s06e15a",
  "TotalReadoutTime": 0.0576811,
  "TxRefAmp": 280.245,
  "WipMemBlock": "c15bf78e-ee06-4874-879d-d0d692028b9b||Sequence: R017 ve11c/master r/75a17815+; Jun 28 2022 16:32:11 by eja",
  "dcmmeta_affine": [
    [-1.999790906906128, 0.015706608071923256, -0.024280786514282227, 99.18914794921875],
    [0.02382132224738598, 1.8468035459518433, -0.7672998905181885, -70.26776885986328],
    [-0.01639508083462715, 0.767508864402771, 1.8467975854873657, -67.77093505859375],
    [0.0, 0.0, 0.0, 1.0]
],
  "dcmmeta_reorient_transform": [
    [0.0, -1.0, 0.0, 103.0],
    [1.0, 0.0, 0.0, 0.0],
    [0.0, 0.0, 1.0, 0.0],
    [0.0, 0.0, 0.0, 1.0]
],
  "dcmmeta_shape": [104, 104, 60, 456],
  "dcmmeta_slice_dim": 2,
  "dcmmeta_version": 0.6,
  "global": {
    "const": {
      "AcquisitionMatrix": [104, 0, 0, 104],
      "AngioFlag": "N",
      "BitsAllocated": 16,
      "BitsStored": 16,
      "BodyPartExamined": "BRAIN",
      "Columns": 832,
      "EchoNumbers": 1,
      "EchoTime": 37.0,
      "EchoTrainLength": 104,
      "FlipAngle": 52.0,
      "HighBit": 15,
      "ImageOrientationPatient": [0.99989546277192, -0.0119106614124, -0.0081975406582, 0.00785330435879, 0.92340178499248, -0.3837544385194],
      "ImagePositionPatient": [-834.44803330808, -783.51853565604, 296.62351689061],
      "ImageType": [
        "ORIGINAL",
        "PRIMARY",
        "M",
        "MB",
        "ND",
        "MOSAIC"
],
      "ImagedNucleus": "1H",
      "ImagingFrequency": 123.258808,
      "InPlanePhaseEncodingDirection": "COL",
      "MRAcquisitionType": "2D",
      "MagneticFieldStrength": 3.0,
      "Manufacturer": "SIEMENS",
      "ManufacturerModelName": "Prisma_fit",
      "Modality": "MR",
      "NumberOfAverages": 1.0,
      "NumberOfPhaseEncodingSteps": 104,
      "PercentPhaseFieldOfView": 100.0,
      "PercentSampling": 100.0,
      "PerformedProcedureStepStartTime": "183531.296000",
      "PhotometricInterpretation": "MONOCHROME2",
      "PixelBandwidth": 2290.0,
      "PixelRepresentation": 0,
      "PixelSpacing": [2.0, 2.0],
      "ProtocolName": "func_task-friends-s06e15a",
      "RepetitionTime": 1490.0,
      "Rows": 832,
      "SAR": 0.06506450233308,
      "SamplesPerPixel": 1,
      "ScanOptions": "FS",
      "ScanningSequence": "EP",
      "SequenceName": "epfid2d1_104",
      "SequenceVariant": [
        "SK",
        "SS"
],
      "SeriesDescription": "func_task-friends-s06e15a",
      "SeriesNumber": 10,
      "SeriesTime": "184122.834000",
      "SliceLocation": -36.825571835045,
      "SliceThickness": 2.0,
      "SmallestImagePixelValue": 0,
      "SoftwareVersions": "syngo MR E11",
      "SpacingBetweenSlices": 2.000000027496,
      "SpecificCharacterSet": "ISO_IR 100",
      "StudyID": "1",
      "StudyTime": "183531.231000",
      "TransmitCoilName": "Body",
      "VariableFlipAngleFlag": "N",
      "WindowCenterWidthExplanation": "Algo1",
      "dBdt": 0.0},
    "slices": {}
  },
  "time": {
    "samples": {
      "AcquisitionNumber": [1, 2, 3, 4, 5, 6, 7, 8, 9, 10, 11, 12, 13, 14, 15, 16, 17, 18, 19, 20, 21, 22, 23, 24, 25, 26, 27, 28, 29, 30, 31, 32, 33, 34, 35, 36, 37, 38, 39, 40, 41, 42, 43, 44, 45, 46, 47, 48, 49, 50, 51, 52, 53, 54, 55, 56, 57, 58, 59, 60, 61, 62, 63, 64, 65, 66, 67, 68, 69, 70, 71, 72, 73, 74, 75, 76, 77, 78, 79, 80, 81, 82, 83, 84, 85, 86, 87, 88, 89, 90, 91, 92, 93, 94, 95, 96, 97, 98, 99, 100, 101, 102, 103, 104, 105, 106, 107, 108, 109, 110, 111, 112, 113, 114, 115, 116, 117, 118, 119, 120, 121, 122, 123, 124, 125, 126, 127, 128, 129, 130, 131, 132, 133, 134, 135, 136, 137, 138, 139, 140, 141, 142, 143, 144, 145, 146, 147, 148, 149, 150, 151, 152, 153, 154, 155, 156, 157, 158, 159, 160, 161, 162, 163, 164, 165, 166, 167, 168, 169, 170, 171, 172, 173, 174, 175, 176, 177, 178, 179, 180, 181, 182, 183, 184, 185, 186, 187, 188, 189, 190, 191, 192, 193, 194, 195, 196, 197, 198, 199, 200, 201, 202, 203, 204, 205, 206, 207, 208, 209, 210, 211, 212, 213, 214, 215, 216, 217, 218, 219, 220, 221, 222, 223, 224, 225, 226, 227, 228, 229, 230, 231, 232, 233, 234, 235, 236, 237, 238, 239, 240, 241, 242, 243, 244, 245, 246, 247, 248, 249, 250, 251, 252, 253, 254, 255, 256, 257, 258, 259, 260, 261, 262, 263, 264, 265, 266, 267, 268, 269, 270, 271, 272, 273, 274, 275, 276, 277, 278, 279, 280, 281, 282, 283, 284, 285, 286, 287, 288, 289, 290, 291, 292, 293, 294, 295, 296, 297, 298, 299, 300, 301, 302, 303, 304, 305, 306, 307, 308, 309, 310, 311, 312, 313, 314, 315, 316, 317, 318, 319, 320, 321, 322, 323, 324, 325, 326, 327, 328, 329, 330, 331, 332, 333, 334, 335, 336, 337, 338, 339, 340, 341, 342, 343, 344, 345, 346, 347, 348, 349, 350, 351, 352, 353, 354, 355, 356, 357, 358, 359, 360, 361, 362, 363, 364, 365, 366, 367, 368, 369, 370, 371, 372, 373, 374, 375, 376, 377, 378, 379, 380, 381, 382, 383, 384, 385, 386, 387, 388, 389, 390, 391, 392, 393, 394, 395, 396, 397, 398, 399, 400, 401, 402, 403, 404, 405, 406, 407, 408, 409, 410, 411, 412, 413, 414, 415, 416, 417, 418, 419, 420, 421, 422, 423, 424, 425, 426, 427, 428, 429, 430, 431, 432, 433, 434, 435, 436, 437, 438, 439, 440, 441, 442, 443, 444, 445, 446, 447, 448, 449, 450, 451, 452, 453, 454, 455, 456],
      "AcquisitionTime": ["184007.150000", "184008.640000", "184010.130000", "184011.620000", "184013.110000", "184014.600000", "184016.090000", "184017.580000", "184019.070000", "184020.560000", "184022.050000", "184023.540000", "184025.030000", "184026.520000", "184028.010000", "184029.500000", "184030.990000", "184032.480000", "184033.970000", "184035.460000", "184036.950000", "184038.440000", "184039.930000", "184041.420000", "184042.910000", "184044.400000", "184045.890000", "184047.380000", "184048.870000", "184050.360000", "184051.850000", "184053.340000", "184054.830000", "184056.320000", "184057.810000", "184059.300000", "184100.790000", "184102.280000", "184103.770000", "184105.260000", "184106.750000", "184108.240000", "184109.730000", "184111.220000", "184112.710000", "184114.200000", "184115.690000", "184117.180000", "184118.670000", "184120.160000", "184121.650000", "184123.140000", "184124.630000", "184126.120000", "184127.610000", "184129.100000", "184130.590000", "184132.080000", "184133.570000", "184135.060000", "184136.550000", "184138.040000", "184139.530000", "184141.020000", "184142.510000", "184144.000000", "184145.490000", "184146.980000", "184148.470000", "184149.960000", "184151.450000", "184152.940000", "184154.430000", "184155.920000", "184157.410000", "184158.900000", "184200.390000", "184201.880000", "184203.370000", "184204.860000", "184206.350000", "184207.840000", "184209.330000", "184210.820000", "184212.310000", "184213.800000", "184215.290000", "184216.780000", "184218.270000", "184219.760000", "184221.250000", "184222.740000", "184224.230000", "184225.720000", "184227.210000", "184228.700000", "184230.190000", "184231.680000", "184233.170000", "184234.660000", "184236.150000", "184237.640000", "184239.130000", "184240.620000", "184242.110000", "184243.600000", "184245.090000", "184246.580000", "184248.070000", "184249.560000", "184251.050000", "184252.540000", "184254.030000", "184255.520000", "184257.010000", "184258.500000", "184259.990000", "184301.480000", "184302.970000", "184304.460000", "184305.950000", "184307.440000", "184308.930000", "184310.420000", "184311.910000", "184313.400000", "184314.890000", "184316.380000", "184317.870000", "184319.360000", "184320.850000", "184322.340000", "184323.830000", "184325.320000", "184326.810000", "184328.300000", "184329.790000", "184331.280000", "184332.770000", "184334.260000", "184335.750000", "184337.240000", "184338.730000", "184340.220000", "184341.710000", "184343.200000", "184344.690000", "184346.180000", "184347.670000", "184349.160000", "184350.650000", "184352.140000", "184353.630000", "184355.120000", "184356.610000", "184358.100000", "184359.590000", "184401.080000", "184402.570000", "184404.060000", "184405.550000", "184407.040000", "184408.530000", "184410.020000", "184411.510000", "184413.000000", "184414.490000", "184415.980000", "184417.470000", "184418.960000", "184420.450000", "184421.940000", "184423.430000", "184424.920000", "184426.410000", "184427.900000", "184429.390000", "184430.880000", "184432.370000", "184433.860000", "184435.350000", "184436.840000", "184438.330000", "184439.820000", "184441.310000", "184442.800000", "184444.290000", "184445.780000", "184447.270000", "184448.760000", "184450.250000", "184451.740000", "184453.230000", "184454.720000", "184456.210000", "184457.700000", "184459.190000", "184500.680000", "184502.170000", "184503.660000", "184505.150000", "184506.640000", "184508.130000", "184509.620000", "184511.110000", "184512.600000", "184514.090000", "184515.580000", "184517.070000", "184518.560000", "184520.050000", "184521.540000", "184523.030000", "184524.520000", "184526.010000", "184527.500000", "184528.990000", "184530.480000", "184531.970000", "184533.460000", "184534.950000", "184536.440000", "184537.930000", "184539.420000", "184540.910000", "184542.400000", "184543.890000", "184545.380000", "184546.870000", "184548.360000", "184549.850000", "184551.340000", "184552.830000", "184554.320000", "184555.810000", "184557.300000", "184558.790000", "184600.280000", "184601.770000", "184603.260000", "184604.750000", "184606.240000", "184607.730000", "184609.220000", "184610.710000", "184612.200000", "184613.690000", "184615.180000", "184616.670000", "184618.160000", "184619.650000", "184621.140000", "184622.630000", "184624.120000", "184625.610000", "184627.100000", "184628.590000", "184630.080000", "184631.570000", "184633.060000", "184634.550000", "184636.040000", "184637.530000", "184639.020000", "184640.510000", "184642.000000", "184643.490000", "184644.980000", "184646.470000", "184647.960000", "184649.450000", "184650.940000", "184652.430000", "184653.920000", "184655.410000", "184656.900000", "184658.390000", "184659.880000", "184701.370000", "184702.860000", "184704.350000", "184705.840000", "184707.330000", "184708.820000", "184710.310000", "184711.800000", "184713.290000", "184714.780000", "184716.270000", "184717.760000", "184719.250000", "184720.740000", "184722.230000", "184723.720000", "184725.210000", "184726.700000", "184728.190000", "184729.680000", "184731.170000", "184732.660000", "184734.150000", "184735.640000", "184737.130000", "184738.620000", "184740.110000", "184741.600000", "184743.090000", "184744.580000", "184746.070000", "184747.560000", "184749.050000", "184750.540000", "184752.030000", "184753.520000", "184755.010000", "184756.500000", "184757.990000", "184759.480000", "184800.970000", "184802.460000", "184803.950000", "184805.440000", "184806.930000", "184808.420000", "184809.910000", "184811.400000", "184812.890000", "184814.380000", "184815.870000", "184817.360000", "184818.850000", "184820.340000", "184821.830000", "184823.320000", "184824.810000", "184826.300000", "184827.790000", "184829.280000", "184830.770000", "184832.260000", "184833.750000", "184835.240000", "184836.730000", "184838.220000", "184839.710000", "184841.200000", "184842.690000", "184844.180000", "184845.670000", "184847.160000", "184848.650000", "184850.140000", "184851.630000", "184853.120000", "184854.610000", "184856.100000", "184857.590000", "184859.080000", "184900.570000", "184902.060000", "184903.550000", "184905.040000", "184906.530000", "184908.020000", "184909.510000", "184911.000000", "184912.490000", "184913.980000", "184915.470000", "184916.960000", "184918.450000", "184919.940000", "184921.430000", "184922.920000", "184924.410000", "184925.900000", "184927.390000", "184928.880000", "184930.370000", "184931.860000", "184933.350000", "184934.840000", "184936.330000", "184937.820000", "184939.310000", "184940.800000", "184942.290000", "184943.780000", "184945.270000", "184946.760000", "184948.250000", "184949.740000", "184951.230000", "184952.720000", "184954.210000", "184955.700000", "184957.190000", "184958.680000", "185000.170000", "185001.660000", "185003.150000", "185004.640000", "185006.130000", "185007.620000", "185009.110000", "185010.600000", "185012.090000", "185013.580000", "185015.070000", "185016.560000", "185018.050000", "185019.540000", "185021.030000", "185022.520000", "185024.010000", "185025.500000", "185026.990000", "185028.480000", "185029.970000", "185031.460000", "185032.950000", "185034.440000", "185035.930000", "185037.420000", "185038.910000", "185040.400000", "185041.890000", "185043.380000", "185044.870000", "185046.360000", "185047.850000", "185049.340000", "185050.830000", "185052.320000", "185053.810000", "185055.300000", "185056.790000", "185058.280000", "185059.770000", "185101.260000", "185102.750000", "185104.240000", "185105.730000", "185107.220000", "185108.710000", "185110.200000", "185111.690000", "185113.180000", "185114.670000", "185116.160000", "185117.650000", "185119.140000", "185120.630000", "185122.120000", "185123.610000", "185125.100000"],
      "ContentTime": ["184122.836000", "184122.840000", "184122.849000", "184122.852000", "184122.855000", "184122.858000", "184122.861000", "184122.864000", "184122.866000", "184122.869000", "184122.907000", "184122.910000", "184122.922000", "184122.925000", "184122.928000", "184122.931000", "184122.934000", "184122.942000", "184122.945000", "184122.948000", "184122.951000", "184122.954000", "184122.957000", "184122.960000", "184122.962000", "184122.965000", "184142.805000", "184142.808000", "184142.811000", "184142.814000", "184142.816000", "184142.837000", "184142.840000", "184142.843000", "184142.846000", "184142.849000", "184142.851000", "184142.854000", "184142.870000", "184142.874000", "184142.877000", "184142.880000", "184142.883000", "184142.886000", "184142.889000", "184142.892000", "184142.895000", "184202.805000", "184202.808000", "184202.811000", "184202.813000", "184202.816000", "184202.819000", "184202.822000", "184202.825000", "184202.828000", "184202.831000", "184202.834000", "184202.837000", "184202.840000", "184202.843000", "184202.846000", "184202.849000", "184202.852000", "184202.855000", "184202.858000", "184202.861000", "184222.805000", "184222.808000", "184222.811000", "184222.814000", "184222.816000", "184222.819000", "184222.822000", "184222.825000", "184222.828000", "184222.831000", "184222.834000", "184222.837000", "184222.840000", "184222.842000", "184222.845000", "184222.848000", "184222.851000", "184222.854000", "184222.857000", "184222.860000", "184302.805000", "184302.808000", "184302.811000", "184302.814000", "184302.817000", "184302.820000", "184302.823000", "184302.833000", "184302.836000", "184302.839000", "184302.842000", "184302.845000", "184302.848000", "184302.851000", "184302.853000", "184302.856000", "184302.869000", "184302.872000", "184302.875000", "184302.878000", "184302.881000", "184302.884000", "184302.887000", "184302.889000", "184302.892000", "184302.895000", "184302.898000", "184302.901000", "184302.904000", "184302.907000", "184342.805000", "184342.808000", "184342.811000", "184342.814000", "184342.817000", "184342.834000", "184342.837000", "184342.840000", "184342.843000", "184342.846000", "184342.849000", "184342.852000", "184342.855000", "184342.858000", "184342.861000", "184342.864000", "184342.866000", "184342.869000", "184342.872000", "184342.875000", "184342.878000", "184342.881000", "184342.884000", "184342.887000", "184342.890000", "184342.893000", "184342.895000", "184422.805000", "184422.808000", "184422.811000", "184422.814000", "184422.817000", "184422.820000", "184422.822000", "184422.825000", "184422.828000", "184422.831000", "184422.834000", "184422.837000", "184422.840000", "184422.843000", "184422.846000", "184422.849000", "184422.851000", "184422.854000", "184422.857000", "184422.860000", "184422.863000", "184422.866000", "184422.869000", "184422.872000", "184422.875000", "184422.878000", "184422.880000", "184502.805000", "184502.808000", "184502.811000", "184502.814000", "184502.817000", "184502.820000", "184502.822000", "184502.825000", "184502.828000", "184502.831000", "184502.834000", "184502.837000", "184502.840000", "184502.843000", "184502.846000", "184502.849000", "184502.852000", "184502.854000", "184502.857000", "184502.860000", "184502.863000", "184502.866000", "184502.869000", "184502.872000", "184502.875000", "184502.878000", "184502.880000", "184542.805000", "184542.808000", "184542.811000", "184542.814000", "184542.817000", "184542.820000", "184542.823000", "184542.826000", "184542.829000", "184542.832000", "184542.853000", "184542.856000", "184542.859000", "184542.861000", "184542.873000", "184542.876000", "184542.879000", "184542.882000", "184542.884000", "184542.887000", "184542.890000", "184542.893000", "184542.896000", "184542.899000", "184542.902000", "184542.905000", "184622.805000", "184622.808000", "184622.811000", "184622.814000", "184622.817000", "184622.820000", "184622.823000", "184622.825000", "184622.828000", "184622.831000", "184622.834000", "184622.837000", "184622.840000", "184622.843000", "184622.846000", "184622.849000", "184622.852000", "184622.855000", "184622.858000", "184622.860000", "184622.863000", "184622.866000", "184622.869000", "184622.872000", "184622.875000", "184622.878000", "184622.881000", "184702.805000", "184702.808000", "184702.811000", "184702.814000", "184702.817000", "184702.820000", "184702.823000", "184702.826000", "184702.828000", "184702.831000", "184702.834000", "184702.837000", "184702.840000", "184702.843000", "184702.846000", "184702.849000", "184702.852000", "184702.855000", "184702.858000", "184702.861000", "184702.864000", "184702.867000", "184702.870000", "184702.873000", "184702.876000", "184702.878000", "184702.881000", "184742.805000", "184742.808000", "184742.811000", "184742.814000", "184742.817000", "184742.820000", "184742.823000", "184742.825000", "184742.828000", "184742.831000", "184742.834000", "184742.843000", "184742.846000", "184742.849000", "184742.852000", "184742.855000", "184742.858000", "184742.861000", "184742.864000", "184742.867000", "184742.870000", "184742.873000", "184742.876000", "184742.879000", "184742.882000", "184742.885000", "184742.888000", "184822.805000", "184822.808000", "184822.811000", "184822.814000", "184822.817000", "184822.820000", "184822.823000", "184822.826000", "184822.829000", "184822.832000", "184822.835000", "184822.838000", "184822.841000", "184822.844000", "184822.847000", "184822.849000", "184822.852000", "184822.855000", "184822.858000", "184822.861000", "184822.864000", "184822.867000", "184822.870000", "184822.873000", "184822.876000", "184822.878000", "184822.881000", "184902.805000", "184902.808000", "184902.811000", "184902.814000", "184902.817000", "184902.820000", "184902.823000", "184902.826000", "184902.828000", "184902.831000", "184902.834000", "184902.837000", "184902.840000", "184902.843000", "184902.846000", "184902.849000", "184902.864000", "184902.867000", "184902.870000", "184902.873000", "184902.876000", "184902.879000", "184902.882000", "184902.885000", "184902.887000", "184902.890000", "184902.893000", "184942.805000", "184942.808000", "184942.811000", "184942.814000", "184942.817000", "184942.820000", "184942.822000", "184942.825000", "184942.828000", "184942.831000", "184942.834000", "184942.837000", "184942.840000", "184942.843000", "184942.846000", "184942.849000", "184942.852000", "184942.855000", "184942.857000", "184942.860000", "184942.863000", "184942.866000", "184942.875000", "184942.878000", "184942.881000", "184942.883000", "184942.886000", "185022.805000", "185022.808000", "185022.811000", "185022.814000", "185022.817000", "185022.820000", "185022.823000", "185022.826000", "185022.829000", "185022.832000", "185022.834000", "185022.837000", "185022.840000", "185022.843000", "185022.846000", "185022.849000", "185022.852000", "185022.855000", "185022.858000", "185022.861000", "185022.863000", "185022.866000", "185022.869000", "185022.872000", "185022.876000", "185022.879000", "185102.805000", "185102.808000", "185102.811000", "185102.814000", "185102.817000", "185102.827000", "185102.830000", "185102.833000", "185102.835000", "185102.838000", "185102.841000", "185102.844000", "185102.847000", "185102.850000", "185102.853000", "185102.856000", "185102.859000", "185102.862000", "185102.864000", "185102.867000", "185102.870000", "185102.873000", "185102.876000", "185102.879000", "185102.882000", "185102.885000", "185102.888000", "185127.129000", "185127.133000", "185127.136000", "185127.139000", "185127.142000", "185127.145000", "185127.148000", "185127.151000", "185127.154000", "185127.157000", "185127.160000", "185127.163000", "185127.166000", "185127.169000", "185127.172000", "185127.175000", "185127.178000"],
