{
  "AcquisitionMatrixPE": 104,
  "AcquisitionNumber": 1,
  "AcquisitionTime": "19:32:15.910000",
  "BandwidthPerPixelPhaseEncode": 17.17,
  "BaseResolution": 104,
  "BodyPartExamined": "BRAIN",
  "CoilCombinationMethod": "Sum of Squares",
  "ConsistencyInfo": "N4_VE11C_LATEST_20160120",
  "ConversionSoftware": "dcm2niix",
  "ConversionSoftwareVersion": "v1.0.20211006",
  "DerivedVendorReportedEchoSpacing": 0.000560011,
  "DeviceSerialNumber": "167006",
  "DwellTime": 2.1e-06,
  "EchoTime": 0.037,
  "EchoTrainLength": 104,
  "EffectiveEchoSpacing": 0.000560011,
  "FlipAngle": 52,
  "HeudiconvVersion": "0.11.3.post9+gc939bf8",
  "ImageComments": "Unaliased MB4/PE3/LB",
  "ImageOrientationPatientDICOM": [0.999895, -0.0119107, -0.00819754, 0.0078533, 0.923402, -0.383754],
  "ImageOrientationText": "Tra>Cor(-22.6)>Sag(-0.7)",
  "ImageType": [
    "ORIGINAL",
    "PRIMARY",
    "M",
    "MB",
    "ND",
    "MOSAIC"
],
  "ImagingFrequency": 123.259,
  "InPlanePhaseEncodingDirectionDICOM": "COL",
  "InstitutionAddress": "Chemin Queen-Mary 4565,Montreal,District,CA,H3W 1W5",
  "InstitutionName": "IUGM",
  "InstitutionalDepartmentName": "Department",
  "MRAcquisitionType": "2D",
  "MagneticFieldStrength": 3,
  "Manufacturer": "Siemens",
  "ManufacturersModelName": "Prisma_fit",
  "MatrixCoilMode": "SENSE",
  "Modality": "MR",
  "MultibandAccelerationFactor": 4,
  "PartialFourier": 1,
  "PatientPosition": "HFS",
  "PercentPhaseFOV": 100,
  "PercentSampling": 100,
  "PhaseEncodingDirection": "j",
  "PhaseEncodingSteps": 104,
  "PhaseResolution": 1,
  "PixelBandwidth": 2290,
  "ProcedureStepDescription": "video^friends",
  "ProtocolName": "func_task-friends-s06e17a",
  "PulseSequenceDetails": "%CustomerSeq%\\cmrr_mbep2d_bold",
  "ReceiveCoilActiveElements": "HC1-7;NC1,2",
  "ReceiveCoilName": "HeadNeck_64",
  "ReconMatrixPE": 104,
  "RepetitionTime": 1.49,
  "SAR": 0.0650645,
  "ScanOptions": "FS",
  "ScanningSequence": "EP",
  "SequenceName": "epfid2d1_104",
  "SequenceVariant": "SK\\SS",
  "SeriesDescription": "func_task-friends-s06e17a",
  "SeriesNumber": 18,
  "ShimSetting": [620, -7263, -8837, 406, 35, -390, -21, 32],
  "SliceThickness": 2,
  "SliceTiming": [0, 0.785, 0.0975, 0.8825, 0.195, 0.98, 0.295, 1.0775, 0.3925, 1.175, 0.49, 1.275, 0.5875, 1.3725, 0.685, 0, 0.785, 0.0975, 0.8825, 0.195, 0.98, 0.295, 1.0775, 0.3925, 1.175, 0.49, 1.275, 0.5875, 1.3725, 0.685, 0, 0.785, 0.0975, 0.8825, 0.195, 0.98, 0.295, 1.0775, 0.3925, 1.175, 0.49, 1.275, 0.5875, 1.3725, 0.685, 0, 0.785, 0.0975, 0.8825, 0.195, 0.98, 0.295, 1.0775, 0.3925, 1.175, 0.49, 1.275, 0.5875, 1.3725, 0.685],
  "SoftwareVersions": "syngo MR E11",
  "SpacingBetweenSlices": 2,
  "StationName": "MRC35049",
  "TaskName": "s06e17a",
  "TotalReadoutTime": 0.0576811,
  "TxRefAmp": 280.245,
  "WipMemBlock": "b838705b-b5ba-4101-86cd-ae2e9b59b1d5||Sequence: R017 ve11c/master r/75a17815+; Jun 28 2022 16:32:11 by eja",
  "dcmmeta_affine": [
    [-1.999790906906128, 0.015706608071923256, -0.024280786514282227, 99.18914794921875],
    [0.02382132224738598, 1.8468035459518433, -0.7672998905181885, -70.26776885986328],
    [-0.01639508083462715, 0.767508864402771, 1.8467975854873657, -67.77093505859375],
    [0.0, 0.0, 0.0, 1.0]
],
  "dcmmeta_reorient_transform": [
    [0.0, -1.0, 0.0, 103.0],
    [1.0, 0.0, 0.0, 0.0],
    [0.0, 0.0, 1.0, 0.0],
    [0.0, 0.0, 0.0, 1.0]
],
  "dcmmeta_shape": [104, 104, 60, 428],
  "dcmmeta_slice_dim": 2,
  "dcmmeta_version": 0.6,
  "global": {
    "const": {
      "AcquisitionMatrix": [104, 0, 0, 104],
      "AngioFlag": "N",
      "BitsAllocated": 16,
      "BitsStored": 16,
      "BodyPartExamined": "BRAIN",
      "Columns": 832,
      "EchoNumbers": 1,
      "EchoTime": 37.0,
      "EchoTrainLength": 104,
      "FlipAngle": 52.0,
      "HighBit": 15,
      "ImageOrientationPatient": [0.99989546277192, -0.0119106614124, -0.0081975406582, 0.00785330435879, 0.92340178499248, -0.3837544385194],
      "ImagePositionPatient": [-834.44803330808, -783.51853565604, 296.62351689061],
      "ImageType": [
        "ORIGINAL",
        "PRIMARY",
        "M",
        "MB",
        "ND",
        "MOSAIC"
],
      "ImagedNucleus": "1H",
      "ImagingFrequency": 123.25882,
      "InPlanePhaseEncodingDirection": "COL",
      "MRAcquisitionType": "2D",
      "MagneticFieldStrength": 3.0,
      "Manufacturer": "SIEMENS",
      "ManufacturerModelName": "Prisma_fit",
      "Modality": "MR",
      "NumberOfAverages": 1.0,
      "NumberOfPhaseEncodingSteps": 104,
      "PercentPhaseFieldOfView": 100.0,
      "PercentSampling": 100.0,
      "PerformedProcedureStepStartTime": "183531.296000",
      "PhotometricInterpretation": "MONOCHROME2",
      "PixelBandwidth": 2290.0,
      "PixelRepresentation": 0,
      "PixelSpacing": [2.0, 2.0],
      "ProtocolName": "func_task-friends-s06e17a",
      "RepetitionTime": 1490.0,
      "Rows": 832,
      "SAR": 0.06506450033452,
      "SamplesPerPixel": 1,
      "ScanOptions": "FS",
      "ScanningSequence": "EP",
      "SequenceName": "epfid2d1_104",
      "SequenceVariant": [
        "SK",
        "SS"
],
      "SeriesDescription": "func_task-friends-s06e17a",
      "SeriesNumber": 18,
      "SeriesTime": "193338.910000",
      "SliceLocation": -36.825571835045,
      "SliceThickness": 2.0,
      "SmallestImagePixelValue": 0,
      "SoftwareVersions": "syngo MR E11",
      "SpacingBetweenSlices": 2.000000027496,
      "SpecificCharacterSet": "ISO_IR 100",
      "StudyID": "1",
      "StudyTime": "183531.231000",
      "TransmitCoilName": "Body",
      "VariableFlipAngleFlag": "N",
      "WindowCenterWidthExplanation": "Algo1",
      "dBdt": 0.0},
    "slices": {}
  },
  "time": {
    "samples": {
      "AcquisitionNumber": [1, 2, 3, 4, 5, 6, 7, 8, 9, 10, 11, 12, 13, 14, 15, 16, 17, 18, 19, 20, 21, 22, 23, 24, 25, 26, 27, 28, 29, 30, 31, 32, 33, 34, 35, 36, 37, 38, 39, 40, 41, 42, 43, 44, 45, 46, 47, 48, 49, 50, 51, 52, 53, 54, 55, 56, 57, 58, 59, 60, 61, 62, 63, 64, 65, 66, 67, 68, 69, 70, 71, 72, 73, 74, 75, 76, 77, 78, 79, 80, 81, 82, 83, 84, 85, 86, 87, 88, 89, 90, 91, 92, 93, 94, 95, 96, 97, 98, 99, 100, 101, 102, 103, 104, 105, 106, 107, 108, 109, 110, 111, 112, 113, 114, 115, 116, 117, 118, 119, 120, 121, 122, 123, 124, 125, 126, 127, 128, 129, 130, 131, 132, 133, 134, 135, 136, 137, 138, 139, 140, 141, 142, 143, 144, 145, 146, 147, 148, 149, 150, 151, 152, 153, 154, 155, 156, 157, 158, 159, 160, 161, 162, 163, 164, 165, 166, 167, 168, 169, 170, 171, 172, 173, 174, 175, 176, 177, 178, 179, 180, 181, 182, 183, 184, 185, 186, 187, 188, 189, 190, 191, 192, 193, 194, 195, 196, 197, 198, 199, 200, 201, 202, 203, 204, 205, 206, 207, 208, 209, 210, 211, 212, 213, 214, 215, 216, 217, 218, 219, 220, 221, 222, 223, 224, 225, 226, 227, 228, 229, 230, 231, 232, 233, 234, 235, 236, 237, 238, 239, 240, 241, 242, 243, 244, 245, 246, 247, 248, 249, 250, 251, 252, 253, 254, 255, 256, 257, 258, 259, 260, 261, 262, 263, 264, 265, 266, 267, 268, 269, 270, 271, 272, 273, 274, 275, 276, 277, 278, 279, 280, 281, 282, 283, 284, 285, 286, 287, 288, 289, 290, 291, 292, 293, 294, 295, 296, 297, 298, 299, 300, 301, 302, 303, 304, 305, 306, 307, 308, 309, 310, 311, 312, 313, 314, 315, 316, 317, 318, 319, 320, 321, 322, 323, 324, 325, 326, 327, 328, 329, 330, 331, 332, 333, 334, 335, 336, 337, 338, 339, 340, 341, 342, 343, 344, 345, 346, 347, 348, 349, 350, 351, 352, 353, 354, 355, 356, 357, 358, 359, 360, 361, 362, 363, 364, 365, 366, 367, 368, 369, 370, 371, 372, 373, 374, 375, 376, 377, 378, 379, 380, 381, 382, 383, 384, 385, 386, 387, 388, 389, 390, 391, 392, 393, 394, 395, 396, 397, 398, 399, 400, 401, 402, 403, 404, 405, 406, 407, 408, 409, 410, 411, 412, 413, 414, 415, 416, 417, 418, 419, 420, 421, 422, 423, 424, 425, 426, 427, 428],
      "AcquisitionTime": ["193215.910000", "193217.400000", "193218.890000", "193220.380000", "193221.870000", "193223.360000", "193224.850000", "193226.340000", "193227.830000", "193229.320000", "193230.810000", "193232.300000", "193233.790000", "193235.280000", "193236.770000", "193238.260000", "193239.750000", "193241.240000", "193242.730000", "193244.220000", "193245.710000", "193247.200000", "193248.690000", "193250.180000", "193251.670000", "193253.160000", "193254.650000", "193256.140000", "193257.630000", "193259.120000", "193300.610000", "193302.100000", "193303.590000", "193305.080000", "193306.570000", "193308.060000", "193309.550000", "193311.040000", "193312.530000", "193314.020000", "193315.510000", "193317.000000", "193318.490000", "193319.980000", "193321.470000", "193322.960000", "193324.450000", "193325.940000", "193327.430000", "193328.920000", "193330.410000", "193331.900000", "193333.390000", "193334.880000", "193336.370000", "193337.860000", "193339.350000", "193340.840000", "193342.330000", "193343.820000", "193345.310000", "193346.800000", "193348.290000", "193349.780000", "193351.270000", "193352.760000", "193354.250000", "193355.740000", "193357.230000", "193358.720000", "193400.210000", "193401.700000", "193403.190000", "193404.680000", "193406.170000", "193407.660000", "193409.150000", "193410.640000", "193412.130000", "193413.620000", "193415.110000", "193416.600000", "193418.090000", "193419.580000", "193421.070000", "193422.560000", "193424.050000", "193425.540000", "193427.030000", "193428.520000", "193430.010000", "193431.500000", "193432.990000", "193434.480000", "193435.970000", "193437.460000", "193438.950000", "193440.440000", "193441.930000", "193443.420000", "193444.910000", "193446.400000", "193447.890000", "193449.380000", "193450.870000", "193452.360000", "193453.850000", "193455.340000", "193456.830000", "193458.320000", "193459.810000", "193501.300000", "193502.790000", "193504.280000", "193505.770000", "193507.260000", "193508.750000", "193510.240000", "193511.730000", "193513.220000", "193514.710000", "193516.200000", "193517.690000", "193519.180000", "193520.670000", "193522.160000", "193523.650000", "193525.140000", "193526.630000", "193528.120000", "193529.610000", "193531.100000", "193532.590000", "193534.080000", "193535.570000", "193537.060000", "193538.550000", "193540.040000", "193541.530000", "193543.020000", "193544.510000", "193546.000000", "193547.490000", "193548.980000", "193550.470000", "193551.960000", "193553.450000", "193554.940000", "193556.430000", "193557.920000", "193559.410000", "193600.900000", "193602.390000", "193603.880000", "193605.370000", "193606.860000", "193608.350000", "193609.840000", "193611.330000", "193612.820000", "193614.310000", "193615.800000", "193617.290000", "193618.780000", "193620.270000", "193621.760000", "193623.250000", "193624.740000", "193626.230000", "193627.720000", "193629.210000", "193630.700000", "193632.190000", "193633.680000", "193635.170000", "193636.660000", "193638.150000", "193639.640000", "193641.130000", "193642.620000", "193644.110000", "193645.600000", "193647.090000", "193648.580000", "193650.070000", "193651.560000", "193653.050000", "193654.540000", "193656.030000", "193657.520000", "193659.010000", "193700.500000", "193701.990000", "193703.480000", "193704.970000", "193706.460000", "193707.950000", "193709.440000", "193710.930000", "193712.420000", "193713.910000", "193715.400000", "193716.890000", "193718.380000", "193719.870000", "193721.360000", "193722.850000", "193724.340000", "193725.830000", "193727.320000", "193728.810000", "193730.300000", "193731.790000", "193733.280000", "193734.770000", "193736.260000", "193737.750000", "193739.240000", "193740.730000", "193742.220000", "193743.710000", "193745.200000", "193746.690000", "193748.180000", "193749.670000", "193751.160000", "193752.650000", "193754.140000", "193755.630000", "193757.120000", "193758.610000", "193800.100000", "193801.590000", "193803.080000", "193804.570000", "193806.060000", "193807.550000", "193809.040000", "193810.530000", "193812.020000", "193813.510000", "193815.000000", "193816.490000", "193817.980000", "193819.470000", "193820.960000", "193822.450000", "193823.940000", "193825.430000", "193826.920000", "193828.410000", "193829.900000", "193831.390000", "193832.880000", "193834.370000", "193835.860000", "193837.350000", "193838.840000", "193840.330000", "193841.820000", "193843.310000", "193844.800000", "193846.290000", "193847.780000", "193849.270000", "193850.760000", "193852.250000", "193853.740000", "193855.230000", "193856.720000", "193858.210000", "193859.700000", "193901.190000", "193902.680000", "193904.170000", "193905.660000", "193907.150000", "193908.640000", "193910.130000", "193911.620000", "193913.110000", "193914.600000", "193916.090000", "193917.580000", "193919.070000", "193920.560000", "193922.050000", "193923.540000", "193925.030000", "193926.520000", "193928.010000", "193929.500000", "193930.990000", "193932.480000", "193933.970000", "193935.460000", "193936.950000", "193938.440000", "193939.930000", "193941.420000", "193942.910000", "193944.400000", "193945.890000", "193947.380000", "193948.870000", "193950.360000", "193951.850000", "193953.340000", "193954.830000", "193956.320000", "193957.810000", "193959.300000", "194000.790000", "194002.280000", "194003.770000", "194005.260000", "194006.750000", "194008.240000", "194009.730000", "194011.220000", "194012.710000", "194014.200000", "194015.690000", "194017.180000", "194018.670000", "194020.160000", "194021.650000", "194023.140000", "194024.630000", "194026.120000", "194027.610000", "194029.100000", "194030.590000", "194032.080000", "194033.570000", "194035.060000", "194036.550000", "194038.040000", "194039.530000", "194041.020000", "194042.510000", "194044.000000", "194045.490000", "194046.980000", "194048.470000", "194049.960000", "194051.450000", "194052.940000", "194054.430000", "194055.920000", "194057.410000", "194058.900000", "194100.390000", "194101.880000", "194103.370000", "194104.860000", "194106.350000", "194107.840000", "194109.330000", "194110.820000", "194112.310000", "194113.800000", "194115.290000", "194116.780000", "194118.270000", "194119.760000", "194121.250000", "194122.740000", "194124.230000", "194125.720000", "194127.210000", "194128.700000", "194130.190000", "194131.680000", "194133.170000", "194134.660000", "194136.150000", "194137.640000", "194139.130000", "194140.620000", "194142.110000", "194143.600000", "194145.090000", "194146.580000", "194148.070000", "194149.560000", "194151.050000", "194152.540000", "194154.030000", "194155.520000", "194157.010000", "194158.500000", "194159.990000", "194201.480000", "194202.970000", "194204.460000", "194205.950000", "194207.440000", "194208.930000", "194210.420000", "194211.910000", "194213.400000", "194214.890000", "194216.380000", "194217.870000", "194219.360000", "194220.850000", "194222.340000", "194223.830000", "194225.320000", "194226.810000", "194228.300000", "194229.790000", "194231.280000", "194232.770000", "194234.260000", "194235.750000", "194237.240000", "194238.730000", "194240.220000", "194241.710000", "194243.200000", "194244.690000", "194246.180000", "194247.670000", "194249.160000", "194250.650000", "194252.140000"],
      "ContentTime": ["193338.913000", "193338.916000", "193338.919000", "193338.922000", "193338.925000", "193338.928000", "193338.931000", "193338.934000", "193338.937000", "193338.949000", "193338.952000", "193338.955000", "193338.958000", "193338.961000", "193338.964000", "193338.967000", "193338.970000", "193338.973000", "193338.976000", "193338.979000", "193338.982000", "193338.985000", "193338.988000", "193338.991000", "193338.993000", "193338.996000", "193339.000000", "193339.003000", "193339.006000", "193339.008000", "193339.012000", "193339.014000", "193339.017000", "193339.020000", "193358.867000", "193358.870000", "193358.873000", "193358.885000", "193358.888000", "193358.891000", "193358.893000", "193358.897000", "193358.899000", "193358.902000", "193358.905000", "193358.908000", "193358.911000", "193358.914000", "193358.917000", "193358.920000", "193358.923000", "193358.926000", "193358.929000", "193358.932000", "193358.935000", "193418.867000", "193418.870000", "193418.873000", "193418.876000", "193418.879000", "193418.882000", "193418.885000", "193418.887000", "193418.890000", "193418.893000", "193418.897000", "193418.899000", "193418.902000", "193418.905000", "193418.908000", "193418.911000", "193418.914000", "193418.917000", "193418.920000", "193418.923000", "193438.867000", "193438.870000", "193438.883000", "193438.886000", "193438.889000", "193438.892000", "193438.895000", "193438.898000", "193438.900000", "193438.903000", "193438.906000", "193438.909000", "193438.912000", "193438.915000", "193438.918000", "193438.921000", "193438.924000", "193438.927000", "193438.930000", "193438.933000", "193518.868000", "193518.871000", "193518.874000", "193518.877000", "193518.880000", "193518.883000", "193518.886000", "193518.888000", "193518.892000", "193518.894000", "193518.897000", "193518.900000", "193518.903000", "193518.906000", "193518.909000", "193518.912000", "193518.915000", "193518.918000", "193518.921000", "193518.924000", "193518.927000", "193518.930000", "193518.932000", "193518.935000", "193518.938000", "193518.941000", "193518.944000", "193558.867000", "193558.870000", "193558.873000", "193558.876000", "193558.879000", "193558.882000", "193558.885000", "193558.888000", "193558.891000", "193558.894000", "193558.897000", "193558.900000", "193558.902000", "193558.905000", "193558.908000", "193558.911000", "193558.914000", "193558.917000", "193558.920000", "193558.925000", "193558.928000", "193558.931000", "193558.934000", "193558.937000", "193558.940000", "193558.943000", "193638.867000", "193638.870000", "193638.873000", "193638.876000", "193638.879000", "193638.882000", "193638.885000", "193638.888000", "193638.891000", "193638.894000", "193638.897000", "193638.900000", "193638.913000", "193638.917000", "193638.919000", "193638.922000", "193638.925000", "193638.928000", "193638.931000", "193638.934000", "193638.937000", "193638.940000", "193638.943000", "193638.946000", "193638.949000", "193638.952000", "193638.955000", "193718.867000", "193718.870000", "193718.873000", "193718.876000", "193718.879000", "193718.882000", "193718.885000", "193718.888000", "193718.891000", "193718.894000", "193718.897000", "193718.900000", "193718.903000", "193718.906000", "193718.909000", "193718.912000", "193718.915000", "193718.917000", "193718.920000", "193718.923000", "193718.927000", "193718.929000", "193718.932000", "193718.935000", "193718.938000", "193718.941000", "193718.944000", "193758.868000", "193758.871000", "193758.874000", "193758.877000", "193758.880000", "193758.883000", "193758.893000", "193758.897000", "193758.899000", "193758.902000", "193758.905000", "193758.909000", "193758.911000", "193758.914000", "193758.917000", "193758.920000", "193758.923000", "193758.926000", "193758.929000", "193758.932000", "193758.935000", "193758.938000", "193758.941000", "193758.944000", "193758.947000", "193758.950000", "193758.953000", "193838.867000", "193838.870000", "193838.873000", "193838.876000", "193838.879000", "193838.882000", "193838.885000", "193838.888000", "193838.891000", "193838.894000", "193838.897000", "193838.900000", "193838.903000", "193838.906000", "193838.909000", "193838.912000", "193838.915000", "193838.917000", "193838.921000", "193838.924000", "193838.927000", "193838.929000", "193838.933000", "193838.935000", "193838.941000", "193838.944000", "193838.947000", "193918.867000", "193918.870000", "193918.873000", "193918.876000", "193918.879000", "193918.882000", "193918.885000", "193918.888000", "193918.891000", "193918.894000", "193918.897000", "193918.900000", "193918.903000", "193918.906000", "193918.909000", "193918.912000", "193918.914000", "193918.917000", "193918.929000", "193918.932000", "193918.935000", "193918.938000", "193918.941000", "193918.944000", "193918.947000", "193918.950000", "193918.953000", "193958.868000", "193958.871000", "193958.874000", "193958.877000", "193958.890000", "193958.892000", "193958.895000", "193958.898000", "193958.901000", "193958.904000", "193958.907000", "193958.910000", "193958.913000", "193958.916000", "193958.919000", "193958.922000", "193958.925000", "193958.928000", "193958.931000", "193958.934000", "193958.937000", "193958.940000", "193958.943000", "193958.946000", "193958.949000", "193958.951000", "193958.954000", "194038.867000", "194038.870000", "194038.873000", "194038.876000", "194038.879000", "194038.882000", "194038.885000", "194038.888000", "194038.891000", "194038.894000", "194038.897000", "194038.900000", "194038.903000", "194038.906000", "194038.909000", "194038.911000", "194038.916000", "194038.919000", "194038.922000", "194038.925000", "194038.927000", "194038.930000", "194038.933000", "194038.936000", "194038.939000", "194038.942000", "194118.867000", "194118.870000", "194118.873000", "194118.876000", "194118.879000", "194118.882000", "194118.885000", "194118.888000", "194118.891000", "194118.894000", "194118.897000", "194118.900000", "194118.903000", "194118.906000", "194118.908000", "194118.911000", "194118.915000", "194118.918000", "194118.921000", "194118.923000", "194118.927000", "194118.930000", "194118.932000", "194118.935000", "194118.938000", "194118.941000", "194118.944000", "194158.867000", "194158.870000", "194158.873000", "194158.876000", "194158.879000", "194158.882000", "194158.885000", "194158.888000", "194158.891000", "194158.894000", "194158.897000", "194158.900000", "194158.903000", "194158.905000", "194158.908000", "194158.911000", "194158.915000", "194158.917000", "194158.920000", "194158.923000", "194158.926000", "194158.929000", "194158.932000", "194158.935000", "194158.938000", "194158.941000", "194158.944000", "194238.868000", "194238.871000", "194238.874000", "194238.877000", "194238.880000", "194238.883000", "194238.886000", "194238.889000", "194238.892000", "194238.895000", "194238.898000", "194238.901000", "194238.904000", "194238.907000", "194238.910000", "194238.913000", "194238.916000", "194238.919000", "194238.922000", "194238.925000", "194238.928000", "194238.930000", "194238.933000", "194238.936000", "194238.939000", "194238.942000", "194238.945000", "194254.674000", "194254.677000", "194254.680000", "194254.683000", "194254.686000", "194254.689000", "194254.692000", "194254.695000", "194254.698000", "194254.701000", "194254.703000"],
      "InstanceCreationTime": ["193338.913000", "193338.916000", "193338.919000", "193338.922000", "193338.925000", "193338.928000", "193338.931000", "193338.934000", "193338.937000", "193338.949000", "193338.952000", "193338.955000", "193338.958000", "193338.961000", "193338.964000", "193338.967000", "193338.970000", "193338.973000", "193338.976000", "193338.979000", "193338.982000", "193338.985000", "193338.988000", "193338.991000", "193338.993000", "193338.996000", "193339.000000", "193339.003000", "193339.006000", "193339.008000", "193339.012000", "193339.014000", "193339.017000", "193339.020000", "193358.867000", "193358.870000", "193358.873000", "193358.885000", "193358.888000", "193358.891000", "193358.893000", "193358.897000", "193358.899000", "193358.902000", "193358.905000", "193358.908000", "193358.911000", "193358.914000", "193358.917000", "193358.920000", "193358.923000", "193358.926000", "193358.929000", "193358.932000", "193358.935000", "193418.867000", "193418.870000", "193418.873000", "193418.876000", "193418.879000", "193418.882000", "193418.885000", "193418.887000", "193418.890000", "193418.893000", "193418.897000", "193418.899000", "193418.902000", "193418.905000", "193418.908000", "193418.911000", "193418.914000", "193418.917000", "193418.920000", "193418.923000", "193438.867000", "193438.870000", "193438.883000", "193438.886000", "193438.889000", "193438.892000", "193438.895000", "193438.898000", "193438.900000", "193438.903000", "193438.906000", "193438.909000", "193438.912000", "193438.915000", "193438.918000", "193438.921000", "193438.924000", "193438.927000", "193438.930000", "193438.933000", "193518.868000", "193518.871000", "193518.874000", "193518.877000", "193518.880000", "193518.883000", "193518.886000", "193518.888000", "193518.892000", "193518.894000", "193518.897000", "193518.900000", "193518.903000", "193518.906000", "193518.909000", "193518.912000", "193518.915000", "193518.918000", "193518.921000", "193518.924000", "193518.927000", "193518.930000", "193518.932000", "193518.935000", "193518.938000", "193518.941000", "193518.944000", "193558.867000", "193558.870000", "193558.873000", "193558.876000", "193558.879000", "193558.882000", "193558.885000", "193558.888000", "193558.891000", "193558.894000", "193558.897000", "193558.900000", "193558.902000", "193558.905000", "193558.908000", "193558.911000", "193558.914000", "193558.917000", "193558.920000", "193558.925000", "193558.928000", "193558.931000", "193558.934000", "193558.937000", "193558.940000", "193558.943000", "193638.867000", "193638.870000", "193638.873000", "193638.876000", "193638.879000", "193638.882000", "193638.885000", "193638.888000", "193638.891000", "193638.894000", "193638.897000", "193638.900000", "193638.913000", "193638.917000", "193638.919000", "193638.922000", "193638.925000", "193638.928000", "193638.931000", "193638.934000", "193638.937000", "193638.940000", "193638.943000", "193638.946000", "193638.949000", "193638.952000", "193638.955000", "193718.867000", "193718.870000", "193718.873000", "193718.876000", "193718.879000", "193718.882000", "193718.885000", "193718.888000", "193718.891000", "193718.894000", "193718.897000", "193718.900000", "193718.903000", "193718.906000", "193718.909000", "193718.912000", "193718.915000", "193718.917000", "193718.920000", "193718.923000", "193718.927000", "193718.929000", "193718.932000", "193718.935000", "193718.938000", "193718.941000", "193718.944000", "193758.868000", "193758.871000", "193758.874000", "193758.877000", "193758.880000", "193758.883000", "193758.893000", "193758.897000", "193758.899000", "193758.902000", "193758.905000", "193758.909000", "193758.911000", "193758.914000", "193758.917000", "193758.920000", "193758.923000", "193758.926000", "193758.929000", "193758.932000", "193758.935000", "193758.938000", "193758.941000", "193758.944000", "193758.947000", "193758.950000", "193758.953000", "193838.867000", "193838.870000", "193838.873000", "193838.876000", "193838.879000", "193838.882000", "193838.885000", "193838.888000", "193838.891000", "193838.894000", "193838.897000", "193838.900000", "193838.903000", "193838.906000", "193838.909000", "193838.912000", "193838.915000", "193838.917000", "193838.921000", "193838.924000", "193838.927000", "193838.929000", "193838.933000", "193838.935000", "193838.941000", "193838.944000", "193838.947000", "193918.867000", "193918.870000", "193918.873000", "193918.876000", "193918.879000", "193918.882000", "193918.885000", "193918.888000", "193918.891000", "193918.894000", "193918.897000", "193918.900000", "193918.903000", "193918.906000", "193918.909000", "193918.912000", "193918.914000", "193918.917000", "193918.929000", "193918.932000", "193918.935000", "193918.938000", "193918.941000", "193918.944000", "193918.947000", "193918.950000", "193918.953000", "193958.868000", "193958.871000", "193958.874000", "193958.877000", "193958.890000", "193958.892000", "193958.895000", "193958.898000", "193958.901000", "193958.904000", "193958.907000", "193958.910000", "193958.913000", "193958.916000", "193958.919000", "193958.922000", "193958.925000", "193958.928000", "193958.931000", "193958.934000", "193958.937000", "193958.940000", "193958.943000", "193958.946000", "193958.949000", "193958.951000", "193958.954000", "194038.867000", "194038.870000", "194038.873000", "194038.876000", "194038.879000", "194038.882000", "194038.885000", "194038.888000", "194038.891000", "194038.894000", "194038.897000", "194038.900000", "194038.903000", "194038.906000", "194038.909000", "194038.911000", "194038.916000", "194038.919000", "194038.922000", "194038.925000", "194038.927000", "194038.930000", "194038.933000", "194038.936000", "194038.939000", "194038.942000", "194118.867000", "194118.870000", "194118.873000", "194118.876000", "194118.879000", "194118.882000", "194118.885000", "194118.888000", "194118.891000", "194118.894000", "194118.897000", "194118.900000", "194118.903000", "194118.906000", "194118.908000", "194118.911000", "194118.915000", "194118.918000", "194118.921000", "194118.923000", "194118.927000", "194118.930000", "194118.932000", "194118.935000", "194118.938000", "194118.941000", "194118.944000", "194158.867000", "194158.870000", "194158.873000", "194158.876000", "194158.879000", "194158.882000", "194158.885000", "194158.888000", "194158.891000", "194158.894000", "194158.897000", "194158.900000", "194158.903000", "194158.905000", "194158.908000", "194158.911000", "194158.915000", "194158.917000", "194158.920000", "194158.923000", "194158.926000", "194158.929000", "194158.932000", "194158.935000", "194158.938000", "194158.941000", "194158.944000", "194238.868000", "194238.871000", "194238.874000", "194238.877000", "194238.880000", "194238.883000", "194238.886000", "194238.889000", "194238.892000", "194238.895000", "194238.898000", "194238.901000", "194238.904000", "194238.907000", "194238.910000", "194238.913000", "194238.916000", "194238.919000", "194238.922000", "194238.925000", "194238.928000", "194238.930000", "194238.933000", "194238.936000", "194238.939000", "194238.942000", "194238.945000", "194254.674000", "194254.677000", "194254.680000", "194254.683000", "194254.686000", "194254.689000", "194254.692000", "194254.695000", "194254.698000", "194254.701000", "194254.703000"],
