{
  "AcquisitionMatrixPE": 104,
  "AcquisitionNumber": 1,
  "AcquisitionTime": "19:05:38.922500",
  "BandwidthPerPixelPhaseEncode": 17.17,
  "BaseResolution": 104,
  "BodyPartExamined": "BRAIN",
  "CoilCombinationMethod": "Sum of Squares",
  "ConsistencyInfo": "N4_VE11C_LATEST_20160120",
  "ConversionSoftware": "dcm2niix",
  "ConversionSoftwareVersion": "v1.0.20211006",
  "DerivedVendorReportedEchoSpacing": 0.000560011,
  "DeviceSerialNumber": "167006",
  "DwellTime": 2.1e-06,
  "EchoTime": 0.037,
  "EchoTrainLength": 104,
  "EffectiveEchoSpacing": 0.000560011,
  "FlipAngle": 52,
  "HeudiconvVersion": "0.11.3.post9+gc939bf8",
  "ImageComments": "Unaliased MB4/PE3/LB",
  "ImageOrientationPatientDICOM": [0.999895, -0.0119107, -0.00819754, 0.0078533, 0.923402, -0.383754],
  "ImageOrientationText": "Tra>Cor(-22.6)>Sag(-0.7)",
  "ImageType": [
    "ORIGINAL",
    "PRIMARY",
    "M",
    "MB",
    "ND",
    "MOSAIC"
],
  "ImagingFrequency": 123.259,
  "InPlanePhaseEncodingDirectionDICOM": "COL",
  "InstitutionAddress": "Chemin Queen-Mary 4565,Montreal,District,CA,H3W 1W5",
  "InstitutionName": "IUGM",
  "InstitutionalDepartmentName": "Department",
  "MRAcquisitionType": "2D",
  "MagneticFieldStrength": 3,
  "Manufacturer": "Siemens",
  "ManufacturersModelName": "Prisma_fit",
  "MatrixCoilMode": "SENSE",
  "Modality": "MR",
  "MultibandAccelerationFactor": 4,
  "PartialFourier": 1,
  "PatientPosition": "HFS",
  "PercentPhaseFOV": 100,
  "PercentSampling": 100,
  "PhaseEncodingDirection": "j",
  "PhaseEncodingSteps": 104,
  "PhaseResolution": 1,
  "PixelBandwidth": 2290,
  "ProcedureStepDescription": "video^friends",
  "ProtocolName": "func_task-friends-s06e15c",
  "PulseSequenceDetails": "%CustomerSeq%\\cmrr_mbep2d_bold",
  "ReceiveCoilActiveElements": "HC1-7;NC1,2",
  "ReceiveCoilName": "HeadNeck_64",
  "ReconMatrixPE": 104,
  "RepetitionTime": 1.49,
  "SAR": 0.0650645,
  "ScanOptions": "FS",
  "ScanningSequence": "EP",
  "SequenceName": "epfid2d1_104",
  "SequenceVariant": "SK\\SS",
  "SeriesDescription": "func_task-friends-s06e15c",
  "SeriesNumber": 14,
  "ShimSetting": [620, -7263, -8837, 406, 35, -390, -21, 32],
  "SliceThickness": 2,
  "SliceTiming": [0, 0.785, 0.0975, 0.8825, 0.1975, 0.98, 0.295, 1.0775, 0.3925, 1.175, 0.49, 1.275, 0.5875, 1.3725, 0.6875, 0, 0.785, 0.0975, 0.8825, 0.1975, 0.98, 0.295, 1.0775, 0.3925, 1.175, 0.49, 1.275, 0.5875, 1.3725, 0.6875, 0, 0.785, 0.0975, 0.8825, 0.1975, 0.98, 0.295, 1.0775, 0.3925, 1.175, 0.49, 1.275, 0.5875, 1.3725, 0.6875, 0, 0.785, 0.0975, 0.8825, 0.1975, 0.98, 0.295, 1.0775, 0.3925, 1.175, 0.49, 1.275, 0.5875, 1.3725, 0.6875],
  "SoftwareVersions": "syngo MR E11",
  "SpacingBetweenSlices": 2,
  "StationName": "MRC35049",
  "TaskName": "s06e15c",
  "TotalReadoutTime": 0.0576811,
  "TxRefAmp": 280.245,
  "WipMemBlock": "da7b2f48-45a9-480f-b73e-181f193c1c42||Sequence: R017 ve11c/master r/75a17815+; Jun 28 2022 16:32:11 by eja",
  "dcmmeta_affine": [
    [-1.999790906906128, 0.015706608071923256, -0.024280786514282227, 99.18914794921875],
    [0.02382132224738598, 1.8468035459518433, -0.7672998905181885, -70.26776885986328],
    [-0.01639508083462715, 0.767508864402771, 1.8467975854873657, -67.77093505859375],
    [0.0, 0.0, 0.0, 1.0]
],
  "dcmmeta_reorient_transform": [
    [0.0, -1.0, 0.0, 103.0],
    [1.0, 0.0, 0.0, 0.0],
    [0.0, 0.0, 1.0, 0.0],
    [0.0, 0.0, 0.0, 1.0]
],
  "dcmmeta_shape": [104, 104, 60, 460],
  "dcmmeta_slice_dim": 2,
  "dcmmeta_version": 0.6,
  "global": {
    "const": {
      "AcquisitionMatrix": [104, 0, 0, 104],
      "AngioFlag": "N",
      "BitsAllocated": 16,
      "BitsStored": 16,
      "BodyPartExamined": "BRAIN",
      "Columns": 832,
      "EchoNumbers": 1,
      "EchoTime": 37.0,
      "EchoTrainLength": 104,
      "FlipAngle": 52.0,
      "HighBit": 15,
      "ImageOrientationPatient": [0.99989546277192, -0.0119106614124, -0.0081975406582, 0.00785330435879, 0.92340178499248, -0.3837544385194],
      "ImagePositionPatient": [-834.44803330808, -783.51853565604, 296.62351689061],
      "ImageType": [
        "ORIGINAL",
        "PRIMARY",
        "M",
        "MB",
        "ND",
        "MOSAIC"
],
      "ImagedNucleus": "1H",
      "ImagingFrequency": 123.258817,
      "InPlanePhaseEncodingDirection": "COL",
      "MRAcquisitionType": "2D",
      "MagneticFieldStrength": 3.0,
      "Manufacturer": "SIEMENS",
      "ManufacturerModelName": "Prisma_fit",
      "Modality": "MR",
      "NumberOfAverages": 1.0,
      "NumberOfPhaseEncodingSteps": 104,
      "PercentPhaseFieldOfView": 100.0,
      "PercentSampling": 100.0,
      "PerformedProcedureStepStartTime": "183531.296000",
      "PhotometricInterpretation": "MONOCHROME2",
      "PixelBandwidth": 2290.0,
      "PixelRepresentation": 0,
      "PixelSpacing": [2.0, 2.0],
      "ProtocolName": "func_task-friends-s06e15c",
      "RepetitionTime": 1490.0,
      "Rows": 832,
      "SAR": 0.06506450013179,
      "SamplesPerPixel": 1,
      "ScanOptions": "FS",
      "ScanningSequence": "EP",
      "SequenceName": "epfid2d1_104",
      "SequenceVariant": [
        "SK",
        "SS"
],
      "SeriesDescription": "func_task-friends-s06e15c",
      "SeriesNumber": 14,
      "SeriesTime": "190703.295000",
      "SliceLocation": -36.825571835045,
      "SliceThickness": 2.0,
      "SmallestImagePixelValue": 0,
      "SoftwareVersions": "syngo MR E11",
      "SpacingBetweenSlices": 2.000000027496,
      "SpecificCharacterSet": "ISO_IR 100",
      "StudyID": "1",
      "StudyTime": "183531.231000",
      "TransmitCoilName": "Body",
      "VariableFlipAngleFlag": "N",
      "WindowCenterWidthExplanation": "Algo1",
      "dBdt": 0.0},
    "slices": {}
  },
  "time": {
    "samples": {
      "AcquisitionNumber": [1, 2, 3, 4, 5, 6, 7, 8, 9, 10, 11, 12, 13, 14, 15, 16, 17, 18, 19, 20, 21, 22, 23, 24, 25, 26, 27, 28, 29, 30, 31, 32, 33, 34, 35, 36, 37, 38, 39, 40, 41, 42, 43, 44, 45, 46, 47, 48, 49, 50, 51, 52, 53, 54, 55, 56, 57, 58, 59, 60, 61, 62, 63, 64, 65, 66, 67, 68, 69, 70, 71, 72, 73, 74, 75, 76, 77, 78, 79, 80, 81, 82, 83, 84, 85, 86, 87, 88, 89, 90, 91, 92, 93, 94, 95, 96, 97, 98, 99, 100, 101, 102, 103, 104, 105, 106, 107, 108, 109, 110, 111, 112, 113, 114, 115, 116, 117, 118, 119, 120, 121, 122, 123, 124, 125, 126, 127, 128, 129, 130, 131, 132, 133, 134, 135, 136, 137, 138, 139, 140, 141, 142, 143, 144, 145, 146, 147, 148, 149, 150, 151, 152, 153, 154, 155, 156, 157, 158, 159, 160, 161, 162, 163, 164, 165, 166, 167, 168, 169, 170, 171, 172, 173, 174, 175, 176, 177, 178, 179, 180, 181, 182, 183, 184, 185, 186, 187, 188, 189, 190, 191, 192, 193, 194, 195, 196, 197, 198, 199, 200, 201, 202, 203, 204, 205, 206, 207, 208, 209, 210, 211, 212, 213, 214, 215, 216, 217, 218, 219, 220, 221, 222, 223, 224, 225, 226, 227, 228, 229, 230, 231, 232, 233, 234, 235, 236, 237, 238, 239, 240, 241, 242, 243, 244, 245, 246, 247, 248, 249, 250, 251, 252, 253, 254, 255, 256, 257, 258, 259, 260, 261, 262, 263, 264, 265, 266, 267, 268, 269, 270, 271, 272, 273, 274, 275, 276, 277, 278, 279, 280, 281, 282, 283, 284, 285, 286, 287, 288, 289, 290, 291, 292, 293, 294, 295, 296, 297, 298, 299, 300, 301, 302, 303, 304, 305, 306, 307, 308, 309, 310, 311, 312, 313, 314, 315, 316, 317, 318, 319, 320, 321, 322, 323, 324, 325, 326, 327, 328, 329, 330, 331, 332, 333, 334, 335, 336, 337, 338, 339, 340, 341, 342, 343, 344, 345, 346, 347, 348, 349, 350, 351, 352, 353, 354, 355, 356, 357, 358, 359, 360, 361, 362, 363, 364, 365, 366, 367, 368, 369, 370, 371, 372, 373, 374, 375, 376, 377, 378, 379, 380, 381, 382, 383, 384, 385, 386, 387, 388, 389, 390, 391, 392, 393, 394, 395, 396, 397, 398, 399, 400, 401, 402, 403, 404, 405, 406, 407, 408, 409, 410, 411, 412, 413, 414, 415, 416, 417, 418, 419, 420, 421, 422, 423, 424, 425, 426, 427, 428, 429, 430, 431, 432, 433, 434, 435, 436, 437, 438, 439, 440, 441, 442, 443, 444, 445, 446, 447, 448, 449, 450, 451, 452, 453, 454, 455, 456, 457, 458, 459, 460],
      "AcquisitionTime": ["190538.922500", "190540.412500", "190541.902500", "190543.392500", "190544.882500", "190546.372500", "190547.862500", "190549.352500", "190550.842500", "190552.332500", "190553.822500", "190555.312500", "190556.802500", "190558.292500", "190559.782500", "190601.272500", "190602.762500", "190604.252500", "190605.742500", "190607.232500", "190608.722500", "190610.212500", "190611.702500", "190613.192500", "190614.682500", "190616.172500", "190617.662500", "190619.152500", "190620.642500", "190622.132500", "190623.622500", "190625.112500", "190626.602500", "190628.092500", "190629.582500", "190631.072500", "190632.562500", "190634.052500", "190635.542500", "190637.032500", "190638.522500", "190640.012500", "190641.502500", "190642.992500", "190644.482500", "190645.972500", "190647.462500", "190648.952500", "190650.442500", "190651.932500", "190653.422500", "190654.912500", "190656.402500", "190657.892500", "190659.382500", "190700.872500", "190702.362500", "190703.852500", "190705.342500", "190706.832500", "190708.322500", "190709.812500", "190711.302500", "190712.792500", "190714.282500", "190715.772500", "190717.262500", "190718.752500", "190720.242500", "190721.732500", "190723.222500", "190724.712500", "190726.202500", "190727.692500", "190729.182500", "190730.672500", "190732.162500", "190733.652500", "190735.142500", "190736.632500", "190738.122500", "190739.612500", "190741.102500", "190742.592500", "190744.082500", "190745.572500", "190747.062500", "190748.552500", "190750.042500", "190751.532500", "190753.022500", "190754.512500", "190756.002500", "190757.492500", "190758.982500", "190800.472500", "190801.962500", "190803.452500", "190804.942500", "190806.432500", "190807.922500", "190809.412500", "190810.902500", "190812.392500", "190813.882500", "190815.372500", "190816.862500", "190818.352500", "190819.842500", "190821.332500", "190822.822500", "190824.312500", "190825.802500", "190827.292500", "190828.782500", "190830.272500", "190831.762500", "190833.252500", "190834.742500", "190836.232500", "190837.722500", "190839.212500", "190840.702500", "190842.192500", "190843.682500", "190845.172500", "190846.662500", "190848.152500", "190849.642500", "190851.132500", "190852.622500", "190854.112500", "190855.602500", "190857.092500", "190858.582500", "190900.072500", "190901.562500", "190903.052500", "190904.542500", "190906.032500", "190907.522500", "190909.012500", "190910.502500", "190911.992500", "190913.482500", "190914.972500", "190916.462500", "190917.952500", "190919.442500", "190920.932500", "190922.422500", "190923.912500", "190925.402500", "190926.892500", "190928.382500", "190929.872500", "190931.362500", "190932.852500", "190934.342500", "190935.832500", "190937.322500", "190938.812500", "190940.302500", "190941.792500", "190943.282500", "190944.772500", "190946.262500", "190947.752500", "190949.242500", "190950.732500", "190952.222500", "190953.712500", "190955.202500", "190956.692500", "190958.182500", "190959.672500", "191001.162500", "191002.652500", "191004.142500", "191005.632500", "191007.122500", "191008.612500", "191010.102500", "191011.592500", "191013.082500", "191014.572500", "191016.062500", "191017.552500", "191019.042500", "191020.532500", "191022.022500", "191023.512500", "191025.002500", "191026.492500", "191027.982500", "191029.472500", "191030.962500", "191032.452500", "191033.942500", "191035.432500", "191036.922500", "191038.412500", "191039.902500", "191041.392500", "191042.882500", "191044.372500", "191045.862500", "191047.352500", "191048.842500", "191050.332500", "191051.822500", "191053.312500", "191054.802500", "191056.292500", "191057.782500", "191059.272500", "191100.762500", "191102.252500", "191103.742500", "191105.232500", "191106.722500", "191108.212500", "191109.702500", "191111.192500", "191112.682500", "191114.172500", "191115.662500", "191117.152500", "191118.642500", "191120.132500", "191121.622500", "191123.112500", "191124.602500", "191126.092500", "191127.582500", "191129.072500", "191130.562500", "191132.052500", "191133.542500", "191135.032500", "191136.522500", "191138.012500", "191139.502500", "191140.992500", "191142.482500", "191143.972500", "191145.462500", "191146.952500", "191148.442500", "191149.932500", "191151.422500", "191152.912500", "191154.402500", "191155.892500", "191157.382500", "191158.872500", "191200.362500", "191201.852500", "191203.342500", "191204.832500", "191206.322500", "191207.812500", "191209.302500", "191210.792500", "191212.282500", "191213.772500", "191215.262500", "191216.752500", "191218.242500", "191219.732500", "191221.222500", "191222.712500", "191224.202500", "191225.692500", "191227.182500", "191228.672500", "191230.162500", "191231.652500", "191233.142500", "191234.632500", "191236.122500", "191237.612500", "191239.102500", "191240.592500", "191242.082500", "191243.572500", "191245.062500", "191246.552500", "191248.042500", "191249.532500", "191251.022500", "191252.512500", "191254.002500", "191255.492500", "191256.982500", "191258.472500", "191259.962500", "191301.452500", "191302.942500", "191304.432500", "191305.922500", "191307.412500", "191308.902500", "191310.392500", "191311.882500", "191313.372500", "191314.862500", "191316.352500", "191317.842500", "191319.332500", "191320.822500", "191322.312500", "191323.802500", "191325.292500", "191326.782500", "191328.272500", "191329.762500", "191331.252500", "191332.742500", "191334.232500", "191335.722500", "191337.212500", "191338.702500", "191340.192500", "191341.682500", "191343.172500", "191344.662500", "191346.152500", "191347.642500", "191349.132500", "191350.622500", "191352.112500", "191353.602500", "191355.092500", "191356.582500", "191358.072500", "191359.562500", "191401.052500", "191402.542500", "191404.032500", "191405.522500", "191407.012500", "191408.502500", "191409.992500", "191411.482500", "191412.972500", "191414.462500", "191415.952500", "191417.442500", "191418.932500", "191420.422500", "191421.912500", "191423.402500", "191424.892500", "191426.382500", "191427.872500", "191429.362500", "191430.852500", "191432.342500", "191433.832500", "191435.322500", "191436.812500", "191438.302500", "191439.792500", "191441.282500", "191442.772500", "191444.262500", "191445.752500", "191447.242500", "191448.732500", "191450.222500", "191451.712500", "191453.202500", "191454.692500", "191456.182500", "191457.672500", "191459.162500", "191500.652500", "191502.142500", "191503.632500", "191505.122500", "191506.612500", "191508.102500", "191509.592500", "191511.082500", "191512.572500", "191514.062500", "191515.552500", "191517.042500", "191518.532500", "191520.022500", "191521.512500", "191523.002500", "191524.492500", "191525.982500", "191527.472500", "191528.962500", "191530.452500", "191531.942500", "191533.432500", "191534.922500", "191536.412500", "191537.902500", "191539.392500", "191540.882500", "191542.372500", "191543.862500", "191545.352500", "191546.842500", "191548.332500", "191549.822500", "191551.312500", "191552.802500", "191554.292500", "191555.782500", "191557.272500", "191558.762500", "191600.252500", "191601.742500", "191603.232500", "191604.722500", "191606.212500", "191607.702500", "191609.192500", "191610.682500", "191612.172500", "191613.662500", "191615.152500", "191616.642500", "191618.132500", "191619.622500", "191621.112500", "191622.602500", "191624.092500", "191625.582500", "191627.072500", "191628.562500", "191630.052500", "191631.542500", "191633.032500", "191634.522500", "191636.012500", "191637.502500", "191638.992500", "191640.482500", "191641.972500", "191643.462500", "191644.952500", "191646.442500", "191647.932500", "191649.422500", "191650.912500", "191652.402500", "191653.892500", "191655.382500", "191656.872500", "191658.362500", "191659.852500", "191701.342500", "191702.832500"],
      "ContentTime": ["190703.298000", "190703.301000", "190703.304000", "190703.314000", "190703.317000", "190703.320000", "190703.323000", "190703.325000", "190703.328000", "190703.331000", "190703.334000", "190703.337000", "190703.340000", "190703.343000", "190703.346000", "190703.348000", "190703.351000", "190703.359000", "190703.362000", "190703.365000", "190703.368000", "190703.371000", "190703.374000", "190703.377000", "190703.380000", "190703.383000", "190703.385000", "190703.388000", "190703.391000", "190703.394000", "190703.397000", "190703.400000", "190703.403000", "190703.406000", "190703.409000", "190703.411000", "190703.414000", "190723.268000", "190723.271000", "190723.274000", "190723.277000", "190723.280000", "190723.283000", "190723.285000", "190723.288000", "190723.291000", "190723.294000", "190723.297000", "190723.300000", "190723.303000", "190723.305000", "190723.308000", "190723.311000", "190723.314000", "190723.317000", "190723.320000", "190723.323000", "190743.268000", "190743.271000", "190743.274000", "190743.277000", "190743.280000", "190743.283000", "190743.285000", "190743.288000", "190743.291000", "190743.294000", "190743.297000", "190743.300000", "190743.303000", "190743.306000", "190743.309000", "190743.311000", "190743.314000", "190743.317000", "190743.320000", "190743.323000", "190823.268000", "190823.271000", "190823.274000", "190823.277000", "190823.280000", "190823.282000", "190823.285000", "190823.288000", "190823.291000", "190823.294000", "190823.297000", "190823.300000", "190823.303000", "190823.305000", "190823.308000", "190823.311000", "190823.314000", "190823.317000", "190823.320000", "190823.323000", "190823.326000", "190823.328000", "190823.331000", "190823.334000", "190823.337000", "190823.340000", "190823.343000", "190823.346000", "190823.349000", "190823.351000", "190823.354000", "190823.357000", "190823.360000", "190903.267000", "190903.270000", "190903.273000", "190903.276000", "190903.279000", "190903.282000", "190903.284000", "190903.288000", "190903.290000", "190903.303000", "190903.306000", "190903.308000", "190903.311000", "190903.314000", "190903.317000", "190903.320000", "190903.323000", "190903.326000", "190903.329000", "190903.344000", "190903.347000", "190903.350000", "190903.353000", "190903.356000", "190903.359000", "190903.362000", "190943.268000", "190943.271000", "190943.274000", "190943.277000", "190943.280000", "190943.283000", "190943.286000", "190943.289000", "190943.291000", "190943.294000", "190943.297000", "190943.300000", "190943.309000", "190943.312000", "190943.315000", "190943.318000", "190943.321000", "190943.324000", "190943.327000", "190943.330000", "190943.333000", "190943.336000", "190943.339000", "190943.342000", "190943.345000", "190943.348000", "190943.351000", "191023.268000", "191023.271000", "191023.274000", "191023.277000", "191023.280000", "191023.283000", "191023.285000", "191023.288000", "191023.291000", "191023.294000", "191023.297000", "191023.300000", "191023.303000", "191023.306000", "191023.309000", "191023.312000", "191023.315000", "191023.317000", "191023.320000", "191023.323000", "191023.326000", "191023.329000", "191023.332000", "191023.335000", "191023.338000", "191023.341000", "191023.344000", "191103.268000", "191103.271000", "191103.274000", "191103.277000", "191103.280000", "191103.283000", "191103.286000", "191103.289000", "191103.291000", "191103.294000", "191103.297000", "191103.300000", "191103.303000", "191103.306000", "191103.309000", "191103.312000", "191103.315000", "191103.317000", "191103.320000", "191103.323000", "191103.326000", "191103.329000", "191103.332000", "191103.343000", "191103.346000", "191103.349000", "191103.352000", "191143.268000", "191143.271000", "191143.274000", "191143.277000", "191143.280000", "191143.283000", "191143.286000", "191143.289000", "191143.292000", "191143.294000", "191143.297000", "191143.300000", "191143.303000", "191143.306000", "191143.309000", "191143.312000", "191143.315000", "191143.318000", "191143.321000", "191143.323000", "191143.326000", "191143.329000", "191143.332000", "191143.335000", "191143.338000", "191143.341000", "191143.344000", "191223.268000", "191223.271000", "191223.274000", "191223.277000", "191223.280000", "191223.283000", "191223.286000", "191223.289000", "191223.292000", "191223.295000", "191223.298000", "191223.301000", "191223.304000", "191223.307000", "191223.309000", "191223.312000", "191223.315000", "191223.318000", "191223.321000", "191223.324000", "191223.327000", "191223.330000", "191223.333000", "191223.336000", "191223.339000", "191223.342000", "191223.344000", "191303.268000", "191303.271000", "191303.274000", "191303.277000", "191303.280000", "191303.283000", "191303.286000", "191303.288000", "191303.291000", "191303.294000", "191303.297000", "191303.300000", "191303.303000", "191303.306000", "191303.309000", "191303.312000", "191303.315000", "191303.318000", "191303.321000", "191303.323000", "191303.326000", "191303.329000", "191303.332000", "191303.343000", "191303.346000", "191303.349000", "191303.352000", "191343.267000", "191343.270000", "191343.273000", "191343.276000", "191343.279000", "191343.282000", "191343.285000", "191343.288000", "191343.291000", "191343.294000", "191343.296000", "191343.299000", "191343.302000", "191343.305000", "191343.308000", "191343.311000", "191343.314000", "191343.317000", "191343.320000", "191343.323000", "191343.326000", "191343.330000", "191343.333000", "191343.337000", "191343.340000", "191343.343000", "191423.268000", "191423.271000", "191423.274000", "191423.277000", "191423.280000", "191423.283000", "191423.286000", "191423.289000", "191423.292000", "191423.295000", "191423.298000", "191423.301000", "191423.304000", "191423.307000", "191423.310000", "191423.312000", "191423.316000", "191423.318000", "191423.321000", "191423.324000", "191423.327000", "191423.330000", "191423.333000", "191423.336000", "191423.339000", "191423.342000", "191423.345000", "191503.268000", "191503.271000", "191503.274000", "191503.277000", "191503.280000", "191503.283000", "191503.286000", "191503.289000", "191503.292000", "191503.295000", "191503.298000", "191503.301000", "191503.304000", "191503.307000", "191503.309000", "191503.313000", "191503.315000", "191503.318000", "191503.321000", "191503.324000", "191503.327000", "191503.330000", "191503.333000", "191503.336000", "191503.339000", "191503.342000", "191503.345000", "191543.268000", "191543.276000", "191543.279000", "191543.282000", "191543.285000", "191543.288000", "191543.291000", "191543.294000", "191543.303000", "191543.306000", "191543.309000", "191543.312000", "191543.315000", "191543.318000", "191543.321000", "191543.324000", "191543.327000", "191543.330000", "191543.333000", "191543.336000", "191543.339000", "191543.342000", "191543.345000", "191543.347000", "191543.350000", "191543.353000", "191543.356000", "191623.268000", "191623.271000", "191623.274000", "191623.277000", "191623.280000", "191623.283000", "191623.286000", "191623.289000", "191623.292000", "191623.295000", "191623.298000", "191623.301000", "191623.304000", "191623.307000", "191623.310000", "191623.313000", "191623.315000", "191623.318000", "191623.321000", "191623.324000", "191623.327000", "191623.330000", "191623.333000", "191623.336000", "191623.339000", "191623.342000", "191623.345000", "191703.268000", "191703.271000", "191703.274000", "191703.277000", "191703.280000", "191703.283000", "191703.286000", "191703.289000", "191703.292000", "191703.295000", "191703.298000", "191703.300000", "191703.303000", "191703.306000", "191703.309000", "191703.312000", "191703.315000", "191703.318000", "191703.321000", "191703.324000", "191703.327000", "191703.330000", "191703.333000", "191703.336000", "191703.339000", "191703.342000", "191703.345000", "191704.666000"],
