{
  "AcquisitionMatrixPE": 104,
  "AcquisitionNumber": 1,
  "AcquisitionTime": "11:26:34.602500",
  "BandwidthPerPixelPhaseEncode": 17.17,
  "BaseResolution": 104,
  "BodyPartExamined": "BRAIN",
  "CoilString": "HC1-7;NC1_2",
  "ConsistencyInfo": "N4_VE11C_LATEST_20160120",
  "ConversionSoftware": "dcm2niix",
  "ConversionSoftwareVersion": "v1.0.20190902",
  "DerivedVendorReportedEchoSpacing": 0.000560011,
  "DeviceSerialNumber": "167006",
  "DwellTime": 2.1e-06,
  "EchoTime": 0.037,
  "EchoTrainLength": 104,
  "EffectiveEchoSpacing": 0.000560011,
  "FlipAngle": 52,
  "ImageComments": "Unaliased_MB4_PE3_LB",
  "ImageOrientationPatientDICOM": [0.998696, 0.0281673, 0.0425782, -0.00958711, 0.922656, -0.385505],
  "ImageType": [
    "ORIGINAL",
    "PRIMARY",
    "M",
    "MB",
    "ND",
    "MOSAIC"
],
  "ImagingFrequency": 123.259,
  "InPlanePhaseEncodingDirectionDICOM": "COL",
  "InstitutionAddress": "Chemin_Queen-Mary_4565_Montreal_District_CA_H3W_1W5",
  "InstitutionName": "IUGM",
  "InstitutionalDepartmentName": "Department",
  "MRAcquisitionType": "2D",
  "MagneticFieldStrength": 3,
  "Manufacturer": "Siemens",
  "ManufacturersModelName": "Prisma_fit",
  "Modality": "MR",
  "MultibandAccelerationFactor": 4,
  "PartialFourier": 1,
  "PatientPosition": "HFS",
  "PercentPhaseFOV": 100,
  "PhaseEncodingDirection": "j",
  "PhaseEncodingSteps": 104,
  "PhaseResolution": 1,
  "PixelBandwidth": 2290,
  "ProcedureStepDescription": "video_friends",
  "ProtocolName": "func_task-friends-s04e22b",
  "PulseSequenceDetails": "%CustomerSeq%_cmrr_mbep2d_bold",
  "ReceiveCoilActiveElements": "HC1-7;NC1,2",
  "ReceiveCoilName": "HeadNeck_64",
  "ReconMatrixPE": 104,
  "RepetitionTime": 1.49,
  "SAR": 0.0387671,
  "ScanOptions": "FS",
  "ScanningSequence": "EP",
  "SequenceName": "epfid2d1_104",
  "SequenceVariant": "SK_SS",
  "SeriesDescription": "func_task-friends-s04e22b",
  "SeriesNumber": 15,
  "ShimSetting": [648, -7176, -8846, 630, 98, 43, 23, -1],
  "SliceThickness": 2,
  "SliceTiming": [0, 0.7825, 0.0975, 0.8825, 0.195, 0.98, 0.295, 1.0775, 0.3925, 1.175, 0.49, 1.2725, 0.5875, 1.3725, 0.685, 0, 0.7825, 0.0975, 0.8825, 0.195, 0.98, 0.295, 1.0775, 0.3925, 1.175, 0.49, 1.2725, 0.5875, 1.3725, 0.685, 0, 0.7825, 0.0975, 0.8825, 0.195, 0.98, 0.295, 1.0775, 0.3925, 1.175, 0.49, 1.2725, 0.5875, 1.3725, 0.685, 0, 0.7825, 0.0975, 0.8825, 0.195, 0.98, 0.295, 1.0775, 0.3925, 1.175, 0.49, 1.2725, 0.5875, 1.3725, 0.685],
  "SoftwareVersions": "syngo_MR_E11",
  "SpacingBetweenSlices": 2,
  "StationName": "MRC35049",
  "TaskName": "s04e22b",
  "TotalReadoutTime": 0.0576811,
  "TxRefAmp": 246.425,
  "WipMemBlock": "c192d37d-7db2-492e-9e16-7816db4b9714||Sequence: R016 ve11c/master r/e634e98; Dec 19 2017 11:00:25 by eja",
  "dcmmeta_affine": [
    [-1.9973920583724976, -0.01917421631515026, 0.10028723627328873, 102.20465850830078],
    [-0.056334566324949265, 1.8453116416931152, -0.7691887021064758, -63.845584869384766],
    [0.08515630662441254, 0.7710104584693909, 1.8434455394744873, -74.27057647705078],
    [0.0, 0.0, 0.0, 1.0]
],
  "dcmmeta_reorient_transform": [
    [0.0, -1.0, 0.0, 103.0],
    [1.0, 0.0, 0.0, 0.0],
    [0.0, 0.0, 1.0, 0.0],
    [0.0, 0.0, 0.0, 1.0]
],
  "dcmmeta_shape": [104, 104, 60, 459],
  "dcmmeta_slice_dim": 2,
  "dcmmeta_version": 0.6,
  "global": {
    "const": {
      "AcquisitionMatrix": [104, 0, 0, 104],
      "AngioFlag": "N",
      "BitsAllocated": 16,
      "BitsStored": 16,
      "BodyPartExamined": "BRAIN",
      "Columns": 832,
      "EchoNumbers": 1,
      "EchoTime": 37.0,
      "EchoTrainLength": 104,
      "FlipAngle": 52.0,
      "HighBit": 15,
      "ImageOrientationPatient": [0.99869600223157, 0.02816728328145, 0.04257815495335, -0.0095871085143, 0.9226558421075, -0.3855052326172],
      "ImagePositionPatient": [-820.30098889884, -818.42075302807, 254.79441263122],
      "ImageType": [
        "ORIGINAL",
        "PRIMARY",
        "M",
        "MB",
        "ND",
        "MOSAIC"
],
      "ImagedNucleus": "1H",
      "ImagingFrequency": 123.259134,
      "InPlanePhaseEncodingDirection": "COL",
      "MRAcquisitionType": "2D",
      "MagneticFieldStrength": 3.0,
      "Manufacturer": "SIEMENS",
      "ManufacturerModelName": "Prisma_fit",
      "Modality": "MR",
      "NumberOfAverages": 1.0,
      "NumberOfPhaseEncodingSteps": 104,
      "PercentPhaseFieldOfView": 100.0,
      "PercentSampling": 100.0,
      "PerformedProcedureStepStartTime": "095232.268000",
      "PhotometricInterpretation": "MONOCHROME2",
      "PixelBandwidth": 2290.0,
      "PixelRepresentation": 0,
      "PixelSpacing": [2.0, 2.0],
      "ProtocolName": "func_task-friends-s04e22b",
      "RepetitionTime": 1490.0,
      "Rows": 832,
      "SAR": 0.0387670883141,
      "SamplesPerPixel": 1,
      "ScanOptions": "FS",
      "ScanningSequence": "EP",
      "SequenceName": "epfid2d1_104",
      "SequenceVariant": [
        "SK",
        "SS"
],
      "SeriesDescription": "func_task-friends-s04e22b",
      "SeriesNumber": 15,
      "SeriesTime": "112800.390000",
      "SliceLocation": -38.777318887642,
      "SliceThickness": 2.0,
      "SmallestImagePixelValue": 0,
      "SoftwareVersions": "syngo MR E11",
      "SpacingBetweenSlices": 2.0000000455378,
      "SpecificCharacterSet": "ISO_IR 100",
      "StudyID": "2",
      "StudyTime": "095232.223000",
      "TransmitCoilName": "Body",
      "VariableFlipAngleFlag": "N",
      "WindowCenterWidthExplanation": "Algo1",
      "dBdt": 0.0},
    "slices": {}
  },
  "time": {
    "samples": {
      "AcquisitionNumber": [1, 2, 3, 4, 5, 6, 7, 8, 9, 10, 11, 12, 13, 14, 15, 16, 17, 18, 19, 20, 21, 22, 23, 24, 25, 26, 27, 28, 29, 30, 31, 32, 33, 34, 35, 36, 37, 38, 39, 40, 41, 42, 43, 44, 45, 46, 47, 48, 49, 50, 51, 52, 53, 54, 55, 56, 57, 58, 59, 60, 61, 62, 63, 64, 65, 66, 67, 68, 69, 70, 71, 72, 73, 74, 75, 76, 77, 78, 79, 80, 81, 82, 83, 84, 85, 86, 87, 88, 89, 90, 91, 92, 93, 94, 95, 96, 97, 98, 99, 100, 101, 102, 103, 104, 105, 106, 107, 108, 109, 110, 111, 112, 113, 114, 115, 116, 117, 118, 119, 120, 121, 122, 123, 124, 125, 126, 127, 128, 129, 130, 131, 132, 133, 134, 135, 136, 137, 138, 139, 140, 141, 142, 143, 144, 145, 146, 147, 148, 149, 150, 151, 152, 153, 154, 155, 156, 157, 158, 159, 160, 161, 162, 163, 164, 165, 166, 167, 168, 169, 170, 171, 172, 173, 174, 175, 176, 177, 178, 179, 180, 181, 182, 183, 184, 185, 186, 187, 188, 189, 190, 191, 192, 193, 194, 195, 196, 197, 198, 199, 200, 201, 202, 203, 204, 205, 206, 207, 208, 209, 210, 211, 212, 213, 214, 215, 216, 217, 218, 219, 220, 221, 222, 223, 224, 225, 226, 227, 228, 229, 230, 231, 232, 233, 234, 235, 236, 237, 238, 239, 240, 241, 242, 243, 244, 245, 246, 247, 248, 249, 250, 251, 252, 253, 254, 255, 256, 257, 258, 259, 260, 261, 262, 263, 264, 265, 266, 267, 268, 269, 270, 271, 272, 273, 274, 275, 276, 277, 278, 279, 280, 281, 282, 283, 284, 285, 286, 287, 288, 289, 290, 291, 292, 293, 294, 295, 296, 297, 298, 299, 300, 301, 302, 303, 304, 305, 306, 307, 308, 309, 310, 311, 312, 313, 314, 315, 316, 317, 318, 319, 320, 321, 322, 323, 324, 325, 326, 327, 328, 329, 330, 331, 332, 333, 334, 335, 336, 337, 338, 339, 340, 341, 342, 343, 344, 345, 346, 347, 348, 349, 350, 351, 352, 353, 354, 355, 356, 357, 358, 359, 360, 361, 362, 363, 364, 365, 366, 367, 368, 369, 370, 371, 372, 373, 374, 375, 376, 377, 378, 379, 380, 381, 382, 383, 384, 385, 386, 387, 388, 389, 390, 391, 392, 393, 394, 395, 396, 397, 398, 399, 400, 401, 402, 403, 404, 405, 406, 407, 408, 409, 410, 411, 412, 413, 414, 415, 416, 417, 418, 419, 420, 421, 422, 423, 424, 425, 426, 427, 428, 429, 430, 431, 432, 433, 434, 435, 436, 437, 438, 439, 440, 441, 442, 443, 444, 445, 446, 447, 448, 449, 450, 451, 452, 453, 454, 455, 456, 457, 458, 459],
      "AcquisitionTime": ["112634.602500", "112636.092500", "112637.582500", "112639.072500", "112640.562500", "112642.052500", "112643.542500", "112645.032500", "112646.522500", "112648.012500", "112649.502500", "112650.992500", "112652.482500", "112653.972500", "112655.462500", "112656.952500", "112658.442500", "112659.932500", "112701.422500", "112702.912500", "112704.402500", "112705.892500", "112707.382500", "112708.872500", "112710.362500", "112711.852500", "112713.342500", "112714.832500", "112716.322500", "112717.812500", "112719.302500", "112720.792500", "112722.282500", "112723.772500", "112725.262500", "112726.752500", "112728.242500", "112729.732500", "112731.222500", "112732.712500", "112734.202500", "112735.692500", "112737.182500", "112738.672500", "112740.162500", "112741.652500", "112743.142500", "112744.632500", "112746.122500", "112747.612500", "112749.102500", "112750.592500", "112752.082500", "112753.572500", "112755.062500", "112756.552500", "112758.042500", "112759.532500", "112801.022500", "112802.512500", "112804.002500", "112805.492500", "112806.982500", "112808.472500", "112809.962500", "112811.452500", "112812.942500", "112814.432500", "112815.922500", "112817.412500", "112818.902500", "112820.392500", "112821.882500", "112823.372500", "112824.862500", "112826.352500", "112827.842500", "112829.332500", "112830.822500", "112832.312500", "112833.802500", "112835.292500", "112836.782500", "112838.272500", "112839.762500", "112841.252500", "112842.742500", "112844.232500", "112845.722500", "112847.212500", "112848.702500", "112850.192500", "112851.682500", "112853.172500", "112854.662500", "112856.152500", "112857.642500", "112859.132500", "112900.622500", "112902.112500", "112903.602500", "112905.092500", "112906.582500", "112908.072500", "112909.562500", "112911.052500", "112912.542500", "112914.032500", "112915.522500", "112917.012500", "112918.502500", "112919.992500", "112921.482500", "112922.972500", "112924.462500", "112925.952500", "112927.442500", "112928.932500", "112930.422500", "112931.912500", "112933.402500", "112934.892500", "112936.382500", "112937.872500", "112939.362500", "112940.852500", "112942.342500", "112943.832500", "112945.322500", "112946.812500", "112948.302500", "112949.792500", "112951.282500", "112952.772500", "112954.262500", "112955.752500", "112957.242500", "112958.732500", "113000.222500", "113001.712500", "113003.202500", "113004.692500", "113006.182500", "113007.672500", "113009.162500", "113010.652500", "113012.142500", "113013.632500", "113015.122500", "113016.612500", "113018.102500", "113019.592500", "113021.082500", "113022.572500", "113024.062500", "113025.552500", "113027.042500", "113028.532500", "113030.022500", "113031.512500", "113033.002500", "113034.492500", "113035.982500", "113037.472500", "113038.962500", "113040.452500", "113041.942500", "113043.432500", "113044.922500", "113046.412500", "113047.902500", "113049.392500", "113050.882500", "113052.372500", "113053.862500", "113055.352500", "113056.842500", "113058.332500", "113059.822500", "113101.312500", "113102.802500", "113104.292500", "113105.782500", "113107.272500", "113108.762500", "113110.252500", "113111.742500", "113113.232500", "113114.722500", "113116.212500", "113117.702500", "113119.192500", "113120.682500", "113122.172500", "113123.662500", "113125.152500", "113126.642500", "113128.132500", "113129.622500", "113131.112500", "113132.602500", "113134.092500", "113135.582500", "113137.072500", "113138.562500", "113140.052500", "113141.542500", "113143.032500", "113144.522500", "113146.012500", "113147.502500", "113148.992500", "113150.482500", "113151.972500", "113153.462500", "113154.952500", "113156.442500", "113157.932500", "113159.422500", "113200.912500", "113202.402500", "113203.892500", "113205.382500", "113206.872500", "113208.362500", "113209.852500", "113211.342500", "113212.832500", "113214.322500", "113215.812500", "113217.302500", "113218.792500", "113220.282500", "113221.772500", "113223.262500", "113224.752500", "113226.242500", "113227.732500", "113229.222500", "113230.712500", "113232.202500", "113233.692500", "113235.182500", "113236.672500", "113238.162500", "113239.652500", "113241.142500", "113242.632500", "113244.122500", "113245.612500", "113247.102500", "113248.592500", "113250.082500", "113251.572500", "113253.062500", "113254.552500", "113256.042500", "113257.532500", "113259.022500", "113300.512500", "113302.002500", "113303.492500", "113304.982500", "113306.472500", "113307.962500", "113309.452500", "113310.942500", "113312.432500", "113313.922500", "113315.412500", "113316.902500", "113318.392500", "113319.882500", "113321.372500", "113322.862500", "113324.352500", "113325.842500", "113327.332500", "113328.822500", "113330.312500", "113331.802500", "113333.292500", "113334.782500", "113336.272500", "113337.762500", "113339.252500", "113340.742500", "113342.232500", "113343.722500", "113345.212500", "113346.702500", "113348.192500", "113349.682500", "113351.172500", "113352.662500", "113354.152500", "113355.642500", "113357.132500", "113358.622500", "113400.112500", "113401.602500", "113403.092500", "113404.582500", "113406.072500", "113407.562500", "113409.052500", "113410.542500", "113412.032500", "113413.522500", "113415.012500", "113416.502500", "113417.992500", "113419.482500", "113420.972500", "113422.462500", "113423.952500", "113425.442500", "113426.932500", "113428.422500", "113429.912500", "113431.402500", "113432.892500", "113434.382500", "113435.872500", "113437.362500", "113438.852500", "113440.342500", "113441.832500", "113443.322500", "113444.812500", "113446.302500", "113447.792500", "113449.282500", "113450.772500", "113452.262500", "113453.752500", "113455.242500", "113456.732500", "113458.222500", "113459.712500", "113501.202500", "113502.692500", "113504.182500", "113505.672500", "113507.162500", "113508.652500", "113510.142500", "113511.632500", "113513.122500", "113514.612500", "113516.102500", "113517.592500", "113519.082500", "113520.572500", "113522.062500", "113523.552500", "113525.042500", "113526.532500", "113528.022500", "113529.512500", "113531.002500", "113532.492500", "113533.982500", "113535.472500", "113536.962500", "113538.452500", "113539.942500", "113541.432500", "113542.922500", "113544.412500", "113545.902500", "113547.392500", "113548.882500", "113550.372500", "113551.862500", "113553.352500", "113554.842500", "113556.332500", "113557.822500", "113559.312500", "113600.802500", "113602.292500", "113603.782500", "113605.272500", "113606.762500", "113608.252500", "113609.742500", "113611.232500", "113612.722500", "113614.212500", "113615.702500", "113617.192500", "113618.682500", "113620.172500", "113621.662500", "113623.152500", "113624.642500", "113626.132500", "113627.622500", "113629.112500", "113630.602500", "113632.092500", "113633.582500", "113635.072500", "113636.562500", "113638.052500", "113639.542500", "113641.032500", "113642.522500", "113644.012500", "113645.502500", "113646.992500", "113648.482500", "113649.972500", "113651.462500", "113652.952500", "113654.442500", "113655.932500", "113657.422500", "113658.912500", "113700.402500", "113701.892500", "113703.382500", "113704.872500", "113706.362500", "113707.852500", "113709.342500", "113710.832500", "113712.322500", "113713.812500", "113715.302500", "113716.792500", "113718.282500", "113719.772500", "113721.262500", "113722.752500", "113724.242500", "113725.732500", "113727.222500", "113728.712500", "113730.202500", "113731.692500", "113733.182500", "113734.672500", "113736.162500", "113737.652500", "113739.142500", "113740.632500", "113742.122500", "113743.612500", "113745.102500", "113746.592500", "113748.082500", "113749.572500", "113751.062500", "113752.552500", "113754.042500", "113755.532500", "113757.022500"],
      "ContentTime": ["112800.392000", "112800.396000", "112800.399000", "112800.407000", "112800.410000", "112800.413000", "112800.415000", "112800.418000", "112800.421000", "112800.424000", "112800.427000", "112800.435000", "112800.438000", "112800.441000", "112800.444000", "112800.447000", "112800.450000", "112800.452000", "112800.455000", "112800.458000", "112800.465000", "112800.467000", "112800.470000", "112800.473000", "112800.476000", "112800.479000", "112800.482000", "112800.485000", "112820.363000", "112820.366000", "112820.369000", "112820.372000", "112820.375000", "112820.377000", "112820.385000", "112820.388000", "112820.390000", "112820.393000", "112820.396000", "112820.399000", "112820.402000", "112820.405000", "112820.408000", "112820.411000", "112820.414000", "112820.416000", "112820.419000", "112820.422000", "112840.363000", "112840.366000", "112840.369000", "112840.372000", "112840.375000", "112840.377000", "112840.381000", "112840.384000", "112840.387000", "112840.390000", "112840.393000", "112840.396000", "112840.399000", "112840.402000", "112840.405000", "112840.407000", "112840.410000", "112840.413000", "112840.416000", "112840.419000", "112900.364000", "112900.367000", "112900.370000", "112900.373000", "112900.376000", "112900.379000", "112900.382000", "112900.384000", "112900.387000", "112900.390000", "112900.393000", "112900.396000", "112900.399000", "112900.402000", "112900.405000", "112900.408000", "112900.410000", "112900.413000", "112900.416000", "112900.419000", "112900.429000", "112920.363000", "112920.366000", "112920.369000", "112920.371000", "112920.374000", "112920.377000", "112920.380000", "112920.383000", "112920.386000", "112920.389000", "112920.392000", "112920.394000", "112920.397000", "112920.400000", "112920.403000", "112920.406000", "112920.409000", "112920.412000", "112920.415000", "112920.418000", "113000.363000", "113000.366000", "113000.369000", "113000.371000", "113000.381000", "113000.384000", "113000.387000", "113000.390000", "113000.393000", "113000.395000", "113000.398000", "113000.401000", "113000.404000", "113000.407000", "113000.410000", "113000.413000", "113000.416000", "113000.419000", "113000.422000", "113000.425000", "113000.428000", "113000.430000", "113000.433000", "113000.436000", "113000.462000", "113000.465000", "113000.468000", "113000.471000", "113040.363000", "113040.366000", "113040.369000", "113040.372000", "113040.375000", "113040.378000", "113040.381000", "113040.384000", "113040.387000", "113040.390000", "113040.393000", "113040.396000", "113040.399000", "113040.402000", "113040.405000", "113040.408000", "113040.410000", "113040.414000", "113040.420000", "113040.423000", "113040.426000", "113040.429000", "113040.433000", "113040.436000", "113040.439000", "113040.442000", "113040.445000", "113120.364000", "113120.367000", "113120.370000", "113120.373000", "113120.376000", "113120.379000", "113120.381000", "113120.384000", "113120.387000", "113120.390000", "113120.393000", "113120.396000", "113120.399000", "113120.402000", "113120.405000", "113120.408000", "113120.410000", "113120.413000", "113120.416000", "113120.419000", "113120.422000", "113120.425000", "113120.428000", "113120.431000", "113120.433000", "113120.436000", "113120.439000", "113200.363000", "113200.366000", "113200.369000", "113200.372000", "113200.375000", "113200.378000", "113200.380000", "113200.383000", "113200.386000", "113200.389000", "113200.392000", "113200.395000", "113200.398000", "113200.401000", "113200.403000", "113200.406000", "113200.409000", "113200.412000", "113200.415000", "113200.418000", "113200.421000", "113200.424000", "113200.426000", "113200.429000", "113200.432000", "113200.435000", "113200.438000", "113240.363000", "113240.366000", "113240.369000", "113240.372000", "113240.375000", "113240.378000", "113240.381000", "113240.384000", "113240.387000", "113240.390000", "113240.393000", "113240.395000", "113240.398000", "113240.401000", "113240.404000", "113240.407000", "113240.410000", "113240.413000", "113240.416000", "113240.418000", "113240.421000", "113240.424000", "113240.427000", "113240.430000", "113240.433000", "113240.436000", "113320.363000", "113320.366000", "113320.369000", "113320.372000", "113320.375000", "113320.378000", "113320.381000", "113320.383000", "113320.386000", "113320.389000", "113320.392000", "113320.395000", "113320.398000", "113320.401000", "113320.404000", "113320.407000", "113320.409000", "113320.412000", "113320.415000", "113320.418000", "113320.421000", "113320.424000", "113320.426000", "113320.429000", "113320.432000", "113320.435000", "113320.438000", "113400.363000", "113400.366000", "113400.369000", "113400.372000", "113400.375000", "113400.378000", "113400.380000", "113400.383000", "113400.386000", "113400.389000", "113400.392000", "113400.395000", "113400.398000", "113400.401000", "113400.404000", "113400.407000", "113400.410000", "113400.413000", "113400.415000", "113400.418000", "113400.421000", "113400.424000", "113400.427000", "113400.430000", "113400.433000", "113400.436000", "113400.439000", "113440.363000", "113440.366000", "113440.369000", "113440.372000", "113440.375000", "113440.378000", "113440.381000", "113440.384000", "113440.387000", "113440.390000", "113440.393000", "113440.396000", "113440.399000", "113440.402000", "113440.405000", "113440.408000", "113440.410000", "113440.413000", "113440.416000", "113440.419000", "113440.422000", "113440.425000", "113440.428000", "113440.431000", "113440.434000", "113440.437000", "113440.448000", "113520.363000", "113520.366000", "113520.369000", "113520.372000", "113520.375000", "113520.378000", "113520.381000", "113520.384000", "113520.386000", "113520.389000", "113520.392000", "113520.395000", "113520.398000", "113520.401000", "113520.404000", "113520.407000", "113520.410000", "113520.413000", "113520.416000", "113520.418000", "113520.421000", "113520.424000", "113520.427000", "113520.430000", "113520.433000", "113520.436000", "113520.439000", "113600.364000", "113600.367000", "113600.370000", "113600.373000", "113600.376000", "113600.379000", "113600.382000", "113600.384000", "113600.387000", "113600.390000", "113600.393000", "113600.396000", "113600.399000", "113600.402000", "113600.405000", "113600.407000", "113600.410000", "113600.413000", "113600.416000", "113600.419000", "113600.422000", "113600.425000", "113600.428000", "113600.431000", "113600.433000", "113600.436000", "113600.439000", "113640.363000", "113640.366000", "113640.369000", "113640.372000", "113640.375000", "113640.378000", "113640.381000", "113640.384000", "113640.387000", "113640.390000", "113640.392000", "113640.395000", "113640.398000", "113640.401000", "113640.404000", "113640.407000", "113640.410000", "113640.413000", "113640.416000", "113640.418000", "113640.421000", "113640.424000", "113640.427000", "113640.430000", "113640.433000", "113640.436000", "113640.439000", "113720.363000", "113720.366000", "113720.369000", "113720.372000", "113720.375000", "113720.378000", "113720.381000", "113720.384000", "113720.387000", "113720.390000", "113720.393000", "113720.396000", "113720.399000", "113720.402000", "113720.405000", "113720.408000", "113720.411000", "113720.414000", "113720.416000", "113720.419000", "113720.422000", "113720.425000", "113720.428000", "113720.431000", "113720.434000", "113720.437000", "113759.361000", "113759.364000", "113759.367000", "113759.370000", "113759.373000", "113759.376000", "113759.379000", "113759.382000", "113759.385000", "113759.388000", "113759.391000", "113759.394000", "113759.396000", "113759.399000", "113759.402000", "113759.405000", "113759.408000", "113759.411000", "113759.414000", "113759.417000", "113759.420000", "113759.423000", "113759.426000", "113759.429000", "113759.432000", "113759.435000", "113759.438000"],
