{
  "AcquisitionMatrixPE": 104,
  "AcquisitionNumber": 1,
  "AcquisitionTime": "10:49:24.495000",
  "BandwidthPerPixelPhaseEncode": 17.17,
  "BaseResolution": 104,
  "BodyPartExamined": "BRAIN",
  "CoilString": "HC1-7;NC1_2",
  "ConsistencyInfo": "N4_VE11C_LATEST_20160120",
  "ConversionSoftware": "dcm2niix",
  "ConversionSoftwareVersion": "v1.0.20190902",
  "DerivedVendorReportedEchoSpacing": 0.000560011,
  "DeviceSerialNumber": "167006",
  "DwellTime": 2.1e-06,
  "EchoTime": 0.037,
  "EchoTrainLength": 104,
  "EffectiveEchoSpacing": 0.000560011,
  "FlipAngle": 52,
  "ImageComments": "Unaliased_MB4_PE3_LB",
  "ImageOrientationPatientDICOM": [0.998696, 0.0281673, 0.0425782, -0.00958711, 0.922656, -0.385505],
  "ImageType": [
    "ORIGINAL",
    "PRIMARY",
    "M",
    "MB",
    "ND",
    "MOSAIC"
],
  "ImagingFrequency": 123.259,
  "InPlanePhaseEncodingDirectionDICOM": "COL",
  "InstitutionAddress": "Chemin_Queen-Mary_4565_Montreal_District_CA_H3W_1W5",
  "InstitutionName": "IUGM",
  "InstitutionalDepartmentName": "Department",
  "MRAcquisitionType": "2D",
  "MagneticFieldStrength": 3,
  "Manufacturer": "Siemens",
  "ManufacturersModelName": "Prisma_fit",
  "Modality": "MR",
  "MultibandAccelerationFactor": 4,
  "PartialFourier": 1,
  "PatientPosition": "HFS",
  "PercentPhaseFOV": 100,
  "PhaseEncodingDirection": "j",
  "PhaseEncodingSteps": 104,
  "PhaseResolution": 1,
  "PixelBandwidth": 2290,
  "ProcedureStepDescription": "video_friends",
  "ProtocolName": "func_task-friends-s04e21a",
  "PulseSequenceDetails": "%CustomerSeq%_cmrr_mbep2d_bold",
  "ReceiveCoilActiveElements": "HC1-7;NC1,2",
  "ReceiveCoilName": "HeadNeck_64",
  "ReconMatrixPE": 104,
  "RepetitionTime": 1.49,
  "SAR": 0.038763,
  "ScanOptions": "FS",
  "ScanningSequence": "EP",
  "SequenceName": "epfid2d1_104",
  "SequenceVariant": "SK_SS",
  "SeriesDescription": "func_task-friends-s04e21a",
  "SeriesNumber": 9,
  "ShimSetting": [648, -7176, -8846, 630, 98, 43, 23, -1],
  "SliceThickness": 2,
  "SliceTiming": [0, 0.7825, 0.0975, 0.88, 0.195, 0.98, 0.2925, 1.0775, 0.39, 1.175, 0.49, 1.2725, 0.5875, 1.37, 0.685, 0, 0.7825, 0.0975, 0.88, 0.195, 0.98, 0.2925, 1.0775, 0.39, 1.175, 0.49, 1.2725, 0.5875, 1.37, 0.685, 0, 0.7825, 0.0975, 0.88, 0.195, 0.98, 0.2925, 1.0775, 0.39, 1.175, 0.49, 1.2725, 0.5875, 1.37, 0.685, 0, 0.7825, 0.0975, 0.88, 0.195, 0.98, 0.2925, 1.0775, 0.39, 1.175, 0.49, 1.2725, 0.5875, 1.37, 0.685],
  "SoftwareVersions": "syngo_MR_E11",
  "SpacingBetweenSlices": 2,
  "StationName": "MRC35049",
  "TaskName": "s04e21a",
  "TotalReadoutTime": 0.0576811,
  "TxRefAmp": 246.425,
  "WipMemBlock": "7301d20a-41d0-4de9-8365-e9ebad8e7d02||Sequence: R016 ve11c/master r/e634e98; Dec 19 2017 11:00:25 by eja",
  "dcmmeta_affine": [
    [-1.9973920583724976, -0.01917421631515026, 0.10028723627328873, 102.20465850830078],
    [-0.056334566324949265, 1.8453116416931152, -0.7691887021064758, -63.845584869384766],
    [0.08515630662441254, 0.7710104584693909, 1.8434455394744873, -74.27057647705078],
    [0.0, 0.0, 0.0, 1.0]
],
  "dcmmeta_reorient_transform": [
    [0.0, -1.0, 0.0, 103.0],
    [1.0, 0.0, 0.0, 0.0],
    [0.0, 0.0, 1.0, 0.0],
    [0.0, 0.0, 0.0, 1.0]
],
  "dcmmeta_shape": [104, 104, 60, 448],
  "dcmmeta_slice_dim": 2,
  "dcmmeta_version": 0.6,
  "global": {
    "const": {
      "AcquisitionMatrix": [104, 0, 0, 104],
      "AngioFlag": "N",
      "BitsAllocated": 16,
      "BitsStored": 16,
      "BodyPartExamined": "BRAIN",
      "Columns": 832,
      "EchoNumbers": 1,
      "EchoTime": 37.0,
      "EchoTrainLength": 104,
      "FlipAngle": 52.0,
      "HighBit": 15,
      "ImageOrientationPatient": [0.99869600223157, 0.02816728328145, 0.04257815495335, -0.0095871085143, 0.9226558421075, -0.3855052326172],
      "ImagePositionPatient": [-820.30098889884, -818.42075302807, 254.79441263122],
      "ImageType": [
        "ORIGINAL",
        "PRIMARY",
        "M",
        "MB",
        "ND",
        "MOSAIC"
],
      "ImagedNucleus": "1H",
      "ImagingFrequency": 123.259112,
      "InPlanePhaseEncodingDirection": "COL",
      "MRAcquisitionType": "2D",
      "MagneticFieldStrength": 3.0,
      "Manufacturer": "SIEMENS",
      "ManufacturerModelName": "Prisma_fit",
      "Modality": "MR",
      "NumberOfAverages": 1.0,
      "NumberOfPhaseEncodingSteps": 104,
      "PercentPhaseFieldOfView": 100.0,
      "PercentSampling": 100.0,
      "PerformedProcedureStepStartTime": "095232.268000",
      "PhotometricInterpretation": "MONOCHROME2",
      "PixelBandwidth": 2290.0,
      "PixelRepresentation": 0,
      "PixelSpacing": [2.0, 2.0],
      "ProtocolName": "func_task-friends-s04e21a",
      "RepetitionTime": 1490.0,
      "Rows": 832,
      "SAR": 0.03876299504295,
      "SamplesPerPixel": 1,
      "ScanOptions": "FS",
      "ScanningSequence": "EP",
      "SequenceName": "epfid2d1_104",
      "SequenceVariant": [
        "SK",
        "SS"
],
      "SeriesDescription": "func_task-friends-s04e21a",
      "SeriesNumber": 9,
      "SeriesTime": "105040.398000",
      "SliceLocation": -38.777318887642,
      "SliceThickness": 2.0,
      "SmallestImagePixelValue": 0,
      "SoftwareVersions": "syngo MR E11",
      "SpacingBetweenSlices": 2.0000000455378,
      "SpecificCharacterSet": "ISO_IR 100",
      "StudyID": "2",
      "StudyTime": "095232.223000",
      "TransmitCoilName": "Body",
      "VariableFlipAngleFlag": "N",
      "WindowCenterWidthExplanation": "Algo1",
      "dBdt": 0.0},
    "slices": {}
  },
  "time": {
    "samples": {
      "AcquisitionNumber": [1, 2, 3, 4, 5, 6, 7, 8, 9, 10, 11, 12, 13, 14, 15, 16, 17, 18, 19, 20, 21, 22, 23, 24, 25, 26, 27, 28, 29, 30, 31, 32, 33, 34, 35, 36, 37, 38, 39, 40, 41, 42, 43, 44, 45, 46, 47, 48, 49, 50, 51, 52, 53, 54, 55, 56, 57, 58, 59, 60, 61, 62, 63, 64, 65, 66, 67, 68, 69, 70, 71, 72, 73, 74, 75, 76, 77, 78, 79, 80, 81, 82, 83, 84, 85, 86, 87, 88, 89, 90, 91, 92, 93, 94, 95, 96, 97, 98, 99, 100, 101, 102, 103, 104, 105, 106, 107, 108, 109, 110, 111, 112, 113, 114, 115, 116, 117, 118, 119, 120, 121, 122, 123, 124, 125, 126, 127, 128, 129, 130, 131, 132, 133, 134, 135, 136, 137, 138, 139, 140, 141, 142, 143, 144, 145, 146, 147, 148, 149, 150, 151, 152, 153, 154, 155, 156, 157, 158, 159, 160, 161, 162, 163, 164, 165, 166, 167, 168, 169, 170, 171, 172, 173, 174, 175, 176, 177, 178, 179, 180, 181, 182, 183, 184, 185, 186, 187, 188, 189, 190, 191, 192, 193, 194, 195, 196, 197, 198, 199, 200, 201, 202, 203, 204, 205, 206, 207, 208, 209, 210, 211, 212, 213, 214, 215, 216, 217, 218, 219, 220, 221, 222, 223, 224, 225, 226, 227, 228, 229, 230, 231, 232, 233, 234, 235, 236, 237, 238, 239, 240, 241, 242, 243, 244, 245, 246, 247, 248, 249, 250, 251, 252, 253, 254, 255, 256, 257, 258, 259, 260, 261, 262, 263, 264, 265, 266, 267, 268, 269, 270, 271, 272, 273, 274, 275, 276, 277, 278, 279, 280, 281, 282, 283, 284, 285, 286, 287, 288, 289, 290, 291, 292, 293, 294, 295, 296, 297, 298, 299, 300, 301, 302, 303, 304, 305, 306, 307, 308, 309, 310, 311, 312, 313, 314, 315, 316, 317, 318, 319, 320, 321, 322, 323, 324, 325, 326, 327, 328, 329, 330, 331, 332, 333, 334, 335, 336, 337, 338, 339, 340, 341, 342, 343, 344, 345, 346, 347, 348, 349, 350, 351, 352, 353, 354, 355, 356, 357, 358, 359, 360, 361, 362, 363, 364, 365, 366, 367, 368, 369, 370, 371, 372, 373, 374, 375, 376, 377, 378, 379, 380, 381, 382, 383, 384, 385, 386, 387, 388, 389, 390, 391, 392, 393, 394, 395, 396, 397, 398, 399, 400, 401, 402, 403, 404, 405, 406, 407, 408, 409, 410, 411, 412, 413, 414, 415, 416, 417, 418, 419, 420, 421, 422, 423, 424, 425, 426, 427, 428, 429, 430, 431, 432, 433, 434, 435, 436, 437, 438, 439, 440, 441, 442, 443, 444, 445, 446, 447, 448],
      "AcquisitionTime": ["104924.495000", "104925.985000", "104927.475000", "104928.965000", "104930.455000", "104931.945000", "104933.435000", "104934.925000", "104936.415000", "104937.905000", "104939.395000", "104940.885000", "104942.375000", "104943.865000", "104945.355000", "104946.845000", "104948.335000", "104949.825000", "104951.315000", "104952.805000", "104954.295000", "104955.785000", "104957.275000", "104958.765000", "105000.255000", "105001.745000", "105003.235000", "105004.725000", "105006.215000", "105007.705000", "105009.195000", "105010.685000", "105012.175000", "105013.665000", "105015.155000", "105016.645000", "105018.135000", "105019.625000", "105021.115000", "105022.605000", "105024.095000", "105025.585000", "105027.075000", "105028.565000", "105030.055000", "105031.545000", "105033.035000", "105034.525000", "105036.015000", "105037.505000", "105038.995000", "105040.485000", "105041.975000", "105043.465000", "105044.955000", "105046.445000", "105047.935000", "105049.425000", "105050.915000", "105052.405000", "105053.895000", "105055.385000", "105056.875000", "105058.365000", "105059.855000", "105101.345000", "105102.835000", "105104.325000", "105105.815000", "105107.305000", "105108.795000", "105110.285000", "105111.775000", "105113.265000", "105114.755000", "105116.245000", "105117.735000", "105119.225000", "105120.715000", "105122.205000", "105123.695000", "105125.185000", "105126.675000", "105128.165000", "105129.655000", "105131.145000", "105132.635000", "105134.125000", "105135.615000", "105137.105000", "105138.595000", "105140.085000", "105141.575000", "105143.065000", "105144.555000", "105146.045000", "105147.535000", "105149.025000", "105150.515000", "105152.005000", "105153.495000", "105154.985000", "105156.475000", "105157.965000", "105159.455000", "105200.945000", "105202.435000", "105203.925000", "105205.415000", "105206.905000", "105208.395000", "105209.885000", "105211.375000", "105212.865000", "105214.355000", "105215.845000", "105217.335000", "105218.825000", "105220.315000", "105221.805000", "105223.295000", "105224.785000", "105226.275000", "105227.765000", "105229.255000", "105230.745000", "105232.235000", "105233.725000", "105235.215000", "105236.705000", "105238.195000", "105239.685000", "105241.175000", "105242.665000", "105244.155000", "105245.645000", "105247.135000", "105248.625000", "105250.115000", "105251.605000", "105253.095000", "105254.585000", "105256.075000", "105257.565000", "105259.055000", "105300.545000", "105302.035000", "105303.525000", "105305.015000", "105306.505000", "105307.995000", "105309.485000", "105310.975000", "105312.465000", "105313.955000", "105315.445000", "105316.935000", "105318.425000", "105319.915000", "105321.405000", "105322.895000", "105324.385000", "105325.875000", "105327.365000", "105328.855000", "105330.345000", "105331.835000", "105333.325000", "105334.815000", "105336.305000", "105337.795000", "105339.285000", "105340.775000", "105342.265000", "105343.755000", "105345.245000", "105346.735000", "105348.225000", "105349.715000", "105351.205000", "105352.695000", "105354.185000", "105355.675000", "105357.165000", "105358.655000", "105400.145000", "105401.635000", "105403.125000", "105404.615000", "105406.105000", "105407.595000", "105409.085000", "105410.575000", "105412.065000", "105413.555000", "105415.045000", "105416.535000", "105418.025000", "105419.515000", "105421.005000", "105422.495000", "105423.985000", "105425.475000", "105426.965000", "105428.455000", "105429.945000", "105431.435000", "105432.925000", "105434.415000", "105435.905000", "105437.395000", "105438.885000", "105440.375000", "105441.865000", "105443.355000", "105444.845000", "105446.335000", "105447.825000", "105449.315000", "105450.805000", "105452.295000", "105453.785000", "105455.275000", "105456.765000", "105458.255000", "105459.745000", "105501.235000", "105502.725000", "105504.215000", "105505.705000", "105507.195000", "105508.685000", "105510.175000", "105511.665000", "105513.155000", "105514.645000", "105516.135000", "105517.625000", "105519.115000", "105520.605000", "105522.095000", "105523.585000", "105525.075000", "105526.565000", "105528.055000", "105529.545000", "105531.035000", "105532.525000", "105534.015000", "105535.505000", "105536.995000", "105538.485000", "105539.975000", "105541.465000", "105542.955000", "105544.445000", "105545.935000", "105547.425000", "105548.915000", "105550.405000", "105551.895000", "105553.385000", "105554.875000", "105556.365000", "105557.855000", "105559.345000", "105600.835000", "105602.325000", "105603.815000", "105605.305000", "105606.795000", "105608.285000", "105609.775000", "105611.265000", "105612.755000", "105614.245000", "105615.735000", "105617.225000", "105618.715000", "105620.205000", "105621.695000", "105623.185000", "105624.675000", "105626.165000", "105627.655000", "105629.145000", "105630.635000", "105632.125000", "105633.615000", "105635.105000", "105636.595000", "105638.085000", "105639.575000", "105641.065000", "105642.555000", "105644.045000", "105645.535000", "105647.025000", "105648.515000", "105650.005000", "105651.495000", "105652.985000", "105654.475000", "105655.965000", "105657.455000", "105658.945000", "105700.435000", "105701.925000", "105703.415000", "105704.905000", "105706.395000", "105707.885000", "105709.375000", "105710.865000", "105712.355000", "105713.845000", "105715.335000", "105716.825000", "105718.315000", "105719.805000", "105721.295000", "105722.785000", "105724.275000", "105725.765000", "105727.255000", "105728.745000", "105730.235000", "105731.725000", "105733.215000", "105734.705000", "105736.195000", "105737.685000", "105739.175000", "105740.665000", "105742.155000", "105743.645000", "105745.135000", "105746.625000", "105748.115000", "105749.605000", "105751.095000", "105752.585000", "105754.075000", "105755.565000", "105757.055000", "105758.545000", "105800.035000", "105801.525000", "105803.015000", "105804.505000", "105805.995000", "105807.485000", "105808.975000", "105810.465000", "105811.955000", "105813.445000", "105814.935000", "105816.425000", "105817.915000", "105819.405000", "105820.895000", "105822.385000", "105823.875000", "105825.365000", "105826.855000", "105828.345000", "105829.835000", "105831.325000", "105832.815000", "105834.305000", "105835.795000", "105837.285000", "105838.775000", "105840.265000", "105841.755000", "105843.245000", "105844.735000", "105846.225000", "105847.715000", "105849.205000", "105850.695000", "105852.185000", "105853.675000", "105855.165000", "105856.655000", "105858.145000", "105859.635000", "105901.125000", "105902.615000", "105904.105000", "105905.595000", "105907.085000", "105908.575000", "105910.065000", "105911.555000", "105913.045000", "105914.535000", "105916.025000", "105917.515000", "105919.005000", "105920.495000", "105921.985000", "105923.475000", "105924.965000", "105926.455000", "105927.945000", "105929.435000", "105930.925000", "105932.415000", "105933.905000", "105935.395000", "105936.885000", "105938.375000", "105939.865000", "105941.355000", "105942.845000", "105944.335000", "105945.825000", "105947.315000", "105948.805000", "105950.295000", "105951.785000", "105953.275000", "105954.765000", "105956.255000", "105957.745000", "105959.235000", "110000.725000", "110002.215000", "110003.705000", "110005.195000", "110006.685000", "110008.175000", "110009.665000", "110011.155000", "110012.645000", "110014.135000", "110015.625000", "110017.115000", "110018.605000", "110020.095000", "110021.585000", "110023.075000", "110024.565000", "110026.055000", "110027.545000", "110029.035000", "110030.525000"],
      "ContentTime": ["105040.400000", "105040.404000", "105040.407000", "105040.410000", "105040.413000", "105040.416000", "105040.418000", "105040.421000", "105040.424000", "105040.427000", "105040.433000", "105040.436000", "105040.443000", "105040.446000", "105040.456000", "105040.459000", "105040.462000", "105040.465000", "105040.468000", "105040.471000", "105040.473000", "105100.363000", "105100.366000", "105100.369000", "105100.372000", "105100.375000", "105100.377000", "105100.380000", "105100.383000", "105100.386000", "105100.389000", "105100.392000", "105100.395000", "105100.398000", "105100.400000", "105100.403000", "105100.406000", "105100.409000", "105100.412000", "105100.421000", "105100.425000", "105120.363000", "105120.366000", "105120.369000", "105120.376000", "105120.379000", "105120.381000", "105120.384000", "105120.387000", "105120.390000", "105120.393000", "105120.396000", "105120.399000", "105120.402000", "105120.404000", "105120.407000", "105120.410000", "105120.413000", "105120.416000", "105120.419000", "105120.422000", "105140.363000", "105140.366000", "105140.369000", "105140.372000", "105140.375000", "105140.378000", "105140.380000", "105140.390000", "105140.393000", "105140.396000", "105140.399000", "105140.402000", "105140.405000", "105140.408000", "105140.411000", "105140.414000", "105140.417000", "105140.419000", "105140.422000", "105140.425000", "105200.364000", "105200.367000", "105200.370000", "105200.373000", "105200.376000", "105200.378000", "105200.381000", "105200.384000", "105200.387000", "105200.390000", "105200.393000", "105200.396000", "105200.398000", "105200.401000", "105200.404000", "105200.407000", "105200.410000", "105200.413000", "105200.416000", "105200.419000", "105240.363000", "105240.366000", "105240.369000", "105240.372000", "105240.375000", "105240.378000", "105240.380000", "105240.383000", "105240.386000", "105240.389000", "105240.392000", "105240.395000", "105240.398000", "105240.400000", "105240.403000", "105240.406000", "105240.409000", "105240.412000", "105240.415000", "105240.418000", "105240.421000", "105240.424000", "105240.426000", "105240.429000", "105240.432000", "105240.435000", "105240.438000", "105240.441000", "105240.444000", "105240.447000", "105320.363000", "105320.366000", "105320.369000", "105320.372000", "105320.375000", "105320.378000", "105320.381000", "105320.384000", "105320.387000", "105320.390000", "105320.393000", "105320.396000", "105320.399000", "105320.401000", "105320.404000", "105320.407000", "105320.410000", "105320.413000", "105320.416000", "105320.419000", "105320.422000", "105320.424000", "105320.427000", "105320.430000", "105320.433000", "105320.436000", "105320.439000", "105400.363000", "105400.366000", "105400.369000", "105400.372000", "105400.375000", "105400.378000", "105400.390000", "105400.393000", "105400.396000", "105400.399000", "105400.402000", "105400.404000", "105400.407000", "105400.410000", "105400.415000", "105400.417000", "105400.421000", "105400.423000", "105400.426000", "105400.429000", "105400.432000", "105400.435000", "105400.438000", "105400.441000", "105400.444000", "105400.446000", "105440.363000", "105440.366000", "105440.369000", "105440.372000", "105440.375000", "105440.378000", "105440.381000", "105440.383000", "105440.386000", "105440.389000", "105440.392000", "105440.395000", "105440.398000", "105440.401000", "105440.404000", "105440.406000", "105440.409000", "105440.412000", "105440.415000", "105440.418000", "105440.421000", "105440.424000", "105440.427000", "105440.430000", "105440.433000", "105440.435000", "105440.438000", "105520.363000", "105520.366000", "105520.369000", "105520.372000", "105520.375000", "105520.378000", "105520.380000", "105520.383000", "105520.386000", "105520.389000", "105520.392000", "105520.395000", "105520.397000", "105520.400000", "105520.403000", "105520.406000", "105520.409000", "105520.412000", "105520.415000", "105520.418000", "105520.421000", "105520.424000", "105520.427000", "105520.430000", "105520.433000", "105520.436000", "105520.439000", "105600.363000", "105600.366000", "105600.369000", "105600.372000", "105600.375000", "105600.378000", "105600.381000", "105600.384000", "105600.387000", "105600.389000", "105600.392000", "105600.395000", "105600.398000", "105600.401000", "105600.404000", "105600.407000", "105600.417000", "105600.420000", "105600.423000", "105600.425000", "105600.428000", "105600.431000", "105600.434000", "105600.437000", "105600.440000", "105600.443000", "105600.446000", "105640.363000", "105640.366000", "105640.369000", "105640.372000", "105640.375000", "105640.377000", "105640.380000", "105640.383000", "105640.386000", "105640.389000", "105640.392000", "105640.395000", "105640.397000", "105640.400000", "105640.403000", "105640.406000", "105640.409000", "105640.412000", "105640.415000", "105640.417000", "105640.420000", "105640.429000", "105640.432000", "105640.434000", "105640.437000", "105640.440000", "105640.443000", "105720.363000", "105720.366000", "105720.369000", "105720.372000", "105720.375000", "105720.378000", "105720.381000", "105720.384000", "105720.387000", "105720.389000", "105720.392000", "105720.395000", "105720.398000", "105720.401000", "105720.404000", "105720.406000", "105720.409000", "105720.412000", "105720.415000", "105720.418000", "105720.421000", "105720.424000", "105720.427000", "105720.430000", "105720.433000", "105720.435000", "105720.438000", "105800.363000", "105800.366000", "105800.369000", "105800.372000", "105800.375000", "105800.378000", "105800.381000", "105800.384000", "105800.387000", "105800.390000", "105800.392000", "105800.395000", "105800.398000", "105800.410000", "105800.413000", "105800.416000", "105800.419000", "105800.422000", "105800.425000", "105800.428000", "105800.431000", "105800.434000", "105800.437000", "105800.440000", "105800.443000", "105800.446000", "105840.363000", "105840.366000", "105840.369000", "105840.372000", "105840.375000", "105840.378000", "105840.381000", "105840.384000", "105840.386000", "105840.389000", "105840.392000", "105840.395000", "105840.398000", "105840.401000", "105840.404000", "105840.407000", "105840.410000", "105840.413000", "105840.415000", "105840.418000", "105840.421000", "105840.424000", "105840.427000", "105840.430000", "105840.432000", "105840.435000", "105840.438000", "105920.363000", "105920.366000", "105920.369000", "105920.372000", "105920.375000", "105920.378000", "105920.381000", "105920.384000", "105920.387000", "105920.389000", "105920.392000", "105920.395000", "105920.398000", "105920.401000", "105920.404000", "105920.407000", "105920.410000", "105920.413000", "105920.415000", "105920.418000", "105920.421000", "105920.424000", "105920.427000", "105920.430000", "105920.433000", "105920.436000", "105920.439000", "110000.363000", "110000.366000", "110000.369000", "110000.372000", "110000.375000", "110000.378000", "110000.380000", "110000.383000", "110000.386000", "110000.389000", "110000.392000", "110000.395000", "110000.398000", "110000.401000", "110000.404000", "110000.407000", "110000.410000", "110000.412000", "110000.415000", "110000.418000", "110000.421000", "110000.424000", "110000.427000", "110000.429000", "110000.432000", "110000.435000", "110000.438000", "110032.465000", "110032.468000", "110032.471000", "110032.485000", "110032.496000", "110032.499000", "110032.503000", "110032.506000", "110032.509000", "110032.512000", "110032.515000", "110032.517000", "110032.521000", "110032.523000", "110032.526000", "110032.529000", "110032.532000", "110032.535000", "110032.538000", "110032.541000", "110032.544000", "110032.547000"],
