{
  "AcquisitionMatrixPE": 104,
  "AcquisitionNumber": 1,
  "AcquisitionTime": "11:14:14.877500",
  "BandwidthPerPixelPhaseEncode": 17.17,
  "BaseResolution": 104,
  "BodyPartExamined": "BRAIN",
  "CoilString": "HC1-7;NC1_2",
  "ConsistencyInfo": "N4_VE11C_LATEST_20160120",
  "ConversionSoftware": "dcm2niix",
  "ConversionSoftwareVersion": "v1.0.20190902",
  "DerivedVendorReportedEchoSpacing": 0.000560011,
  "DeviceSerialNumber": "167006",
  "DwellTime": 2.1e-06,
  "EchoTime": 0.037,
  "EchoTrainLength": 104,
  "EffectiveEchoSpacing": 0.000560011,
  "FlipAngle": 52,
  "ImageComments": "Unaliased_MB4_PE3_LB",
  "ImageOrientationPatientDICOM": [0.998696, 0.0281673, 0.0425782, -0.00958711, 0.922656, -0.385505],
  "ImageType": [
    "ORIGINAL",
    "PRIMARY",
    "M",
    "MB",
    "ND",
    "MOSAIC"
],
  "ImagingFrequency": 123.259,
  "InPlanePhaseEncodingDirectionDICOM": "COL",
  "InstitutionAddress": "Chemin_Queen-Mary_4565_Montreal_District_CA_H3W_1W5",
  "InstitutionName": "IUGM",
  "InstitutionalDepartmentName": "Department",
  "MRAcquisitionType": "2D",
  "MagneticFieldStrength": 3,
  "Manufacturer": "Siemens",
  "ManufacturersModelName": "Prisma_fit",
  "Modality": "MR",
  "MultibandAccelerationFactor": 4,
  "PartialFourier": 1,
  "PatientPosition": "HFS",
  "PercentPhaseFOV": 100,
  "PhaseEncodingDirection": "j",
  "PhaseEncodingSteps": 104,
  "PhaseResolution": 1,
  "PixelBandwidth": 2290,
  "ProcedureStepDescription": "video_friends",
  "ProtocolName": "func_task-friends-s04e22a",
  "PulseSequenceDetails": "%CustomerSeq%_cmrr_mbep2d_bold",
  "ReceiveCoilActiveElements": "HC1-7;NC1,2",
  "ReceiveCoilName": "HeadNeck_64",
  "ReconMatrixPE": 104,
  "RepetitionTime": 1.49,
  "SAR": 0.0387671,
  "ScanOptions": "FS",
  "ScanningSequence": "EP",
  "SequenceName": "epfid2d1_104",
  "SequenceVariant": "SK_SS",
  "SeriesDescription": "func_task-friends-s04e22a",
  "SeriesNumber": 13,
  "ShimSetting": [648, -7176, -8846, 630, 98, 43, 23, -1],
  "SliceThickness": 2,
  "SliceTiming": [0, 0.785, 0.1, 0.8825, 0.1975, 0.98, 0.295, 1.08, 0.3925, 1.1775, 0.49, 1.275, 0.59, 1.3725, 0.6875, 0, 0.785, 0.1, 0.8825, 0.1975, 0.98, 0.295, 1.08, 0.3925, 1.1775, 0.49, 1.275, 0.59, 1.3725, 0.6875, 0, 0.785, 0.1, 0.8825, 0.1975, 0.98, 0.295, 1.08, 0.3925, 1.1775, 0.49, 1.275, 0.59, 1.3725, 0.6875, 0, 0.785, 0.1, 0.8825, 0.1975, 0.98, 0.295, 1.08, 0.3925, 1.1775, 0.49, 1.275, 0.59, 1.3725, 0.6875],
  "SoftwareVersions": "syngo_MR_E11",
  "SpacingBetweenSlices": 2,
  "StationName": "MRC35049",
  "TaskName": "s04e22a",
  "TotalReadoutTime": 0.0576811,
  "TxRefAmp": 246.425,
  "WipMemBlock": "2dd32ad0-431b-4cd3-8863-9c7c4d2fddb6||Sequence: R016 ve11c/master r/e634e98; Dec 19 2017 11:00:25 by eja",
  "dcmmeta_affine": [
    [-1.9973920583724976, -0.01917421631515026, 0.10028723627328873, 102.20465850830078],
    [-0.056334566324949265, 1.8453116416931152, -0.7691887021064758, -63.845584869384766],
    [0.08515630662441254, 0.7710104584693909, 1.8434455394744873, -74.27057647705078],
    [0.0, 0.0, 0.0, 1.0]
],
  "dcmmeta_reorient_transform": [
    [0.0, -1.0, 0.0, 103.0],
    [1.0, 0.0, 0.0, 0.0],
    [0.0, 0.0, 1.0, 0.0],
    [0.0, 0.0, 0.0, 1.0]
],
  "dcmmeta_shape": [104, 104, 60, 459],
  "dcmmeta_slice_dim": 2,
  "dcmmeta_version": 0.6,
  "global": {
    "const": {
      "AcquisitionMatrix": [104, 0, 0, 104],
      "AngioFlag": "N",
      "BitsAllocated": 16,
      "BitsStored": 16,
      "BodyPartExamined": "BRAIN",
      "Columns": 832,
      "EchoNumbers": 1,
      "EchoTime": 37.0,
      "EchoTrainLength": 104,
      "FlipAngle": 52.0,
      "HighBit": 15,
      "ImageOrientationPatient": [0.99869600223157, 0.02816728328145, 0.04257815495335, -0.0095871085143, 0.9226558421075, -0.3855052326172],
      "ImagePositionPatient": [-820.30098889884, -818.42075302807, 254.79441263122],
      "ImageType": [
        "ORIGINAL",
        "PRIMARY",
        "M",
        "MB",
        "ND",
        "MOSAIC"
],
      "ImagedNucleus": "1H",
      "ImagingFrequency": 123.259128,
      "InPlanePhaseEncodingDirection": "COL",
      "MRAcquisitionType": "2D",
      "MagneticFieldStrength": 3.0,
      "Manufacturer": "SIEMENS",
      "ManufacturerModelName": "Prisma_fit",
      "Modality": "MR",
      "NumberOfAverages": 1.0,
      "NumberOfPhaseEncodingSteps": 104,
      "PercentPhaseFieldOfView": 100.0,
      "PercentSampling": 100.0,
      "PerformedProcedureStepStartTime": "095232.268000",
      "PhotometricInterpretation": "MONOCHROME2",
      "PixelBandwidth": 2290.0,
      "PixelRepresentation": 0,
      "PixelSpacing": [2.0, 2.0],
      "ProtocolName": "func_task-friends-s04e22a",
      "RepetitionTime": 1490.0,
      "Rows": 832,
      "SAR": 0.0387670883141,
      "SamplesPerPixel": 1,
      "ScanOptions": "FS",
      "ScanningSequence": "EP",
      "SequenceName": "epfid2d1_104",
      "SequenceVariant": [
        "SK",
        "SS"
],
      "SeriesDescription": "func_task-friends-s04e22a",
      "SeriesNumber": 13,
      "SeriesTime": "111524.230000",
      "SliceLocation": -38.777318887642,
      "SliceThickness": 2.0,
      "SmallestImagePixelValue": 0,
      "SoftwareVersions": "syngo MR E11",
      "SpacingBetweenSlices": 2.0000000455378,
      "SpecificCharacterSet": "ISO_IR 100",
      "StudyID": "2",
      "StudyTime": "095232.223000",
      "TransmitCoilName": "Body",
      "VariableFlipAngleFlag": "N",
      "WindowCenterWidthExplanation": "Algo1",
      "dBdt": 0.0},
    "slices": {}
  },
  "time": {
    "samples": {
      "AcquisitionNumber": [1, 2, 3, 4, 5, 6, 7, 8, 9, 10, 11, 12, 13, 14, 15, 16, 17, 18, 19, 20, 21, 22, 23, 24, 25, 26, 27, 28, 29, 30, 31, 32, 33, 34, 35, 36, 37, 38, 39, 40, 41, 42, 43, 44, 45, 46, 47, 48, 49, 50, 51, 52, 53, 54, 55, 56, 57, 58, 59, 60, 61, 62, 63, 64, 65, 66, 67, 68, 69, 70, 71, 72, 73, 74, 75, 76, 77, 78, 79, 80, 81, 82, 83, 84, 85, 86, 87, 88, 89, 90, 91, 92, 93, 94, 95, 96, 97, 98, 99, 100, 101, 102, 103, 104, 105, 106, 107, 108, 109, 110, 111, 112, 113, 114, 115, 116, 117, 118, 119, 120, 121, 122, 123, 124, 125, 126, 127, 128, 129, 130, 131, 132, 133, 134, 135, 136, 137, 138, 139, 140, 141, 142, 143, 144, 145, 146, 147, 148, 149, 150, 151, 152, 153, 154, 155, 156, 157, 158, 159, 160, 161, 162, 163, 164, 165, 166, 167, 168, 169, 170, 171, 172, 173, 174, 175, 176, 177, 178, 179, 180, 181, 182, 183, 184, 185, 186, 187, 188, 189, 190, 191, 192, 193, 194, 195, 196, 197, 198, 199, 200, 201, 202, 203, 204, 205, 206, 207, 208, 209, 210, 211, 212, 213, 214, 215, 216, 217, 218, 219, 220, 221, 222, 223, 224, 225, 226, 227, 228, 229, 230, 231, 232, 233, 234, 235, 236, 237, 238, 239, 240, 241, 242, 243, 244, 245, 246, 247, 248, 249, 250, 251, 252, 253, 254, 255, 256, 257, 258, 259, 260, 261, 262, 263, 264, 265, 266, 267, 268, 269, 270, 271, 272, 273, 274, 275, 276, 277, 278, 279, 280, 281, 282, 283, 284, 285, 286, 287, 288, 289, 290, 291, 292, 293, 294, 295, 296, 297, 298, 299, 300, 301, 302, 303, 304, 305, 306, 307, 308, 309, 310, 311, 312, 313, 314, 315, 316, 317, 318, 319, 320, 321, 322, 323, 324, 325, 326, 327, 328, 329, 330, 331, 332, 333, 334, 335, 336, 337, 338, 339, 340, 341, 342, 343, 344, 345, 346, 347, 348, 349, 350, 351, 352, 353, 354, 355, 356, 357, 358, 359, 360, 361, 362, 363, 364, 365, 366, 367, 368, 369, 370, 371, 372, 373, 374, 375, 376, 377, 378, 379, 380, 381, 382, 383, 384, 385, 386, 387, 388, 389, 390, 391, 392, 393, 394, 395, 396, 397, 398, 399, 400, 401, 402, 403, 404, 405, 406, 407, 408, 409, 410, 411, 412, 413, 414, 415, 416, 417, 418, 419, 420, 421, 422, 423, 424, 425, 426, 427, 428, 429, 430, 431, 432, 433, 434, 435, 436, 437, 438, 439, 440, 441, 442, 443, 444, 445, 446, 447, 448, 449, 450, 451, 452, 453, 454, 455, 456, 457, 458, 459],
      "AcquisitionTime": ["111414.877500", "111416.367500", "111417.857500", "111419.347500", "111420.837500", "111422.327500", "111423.817500", "111425.307500", "111426.797500", "111428.287500", "111429.777500", "111431.267500", "111432.757500", "111434.247500", "111435.737500", "111437.227500", "111438.717500", "111440.207500", "111441.697500", "111443.187500", "111444.677500", "111446.167500", "111447.657500", "111449.147500", "111450.637500", "111452.127500", "111453.617500", "111455.107500", "111456.597500", "111458.087500", "111459.577500", "111501.067500", "111502.557500", "111504.047500", "111505.537500", "111507.027500", "111508.517500", "111510.007500", "111511.497500", "111512.987500", "111514.477500", "111515.967500", "111517.457500", "111518.947500", "111520.437500", "111521.927500", "111523.417500", "111524.907500", "111526.397500", "111527.887500", "111529.377500", "111530.867500", "111532.357500", "111533.847500", "111535.337500", "111536.827500", "111538.317500", "111539.807500", "111541.297500", "111542.787500", "111544.277500", "111545.767500", "111547.257500", "111548.747500", "111550.237500", "111551.727500", "111553.217500", "111554.707500", "111556.197500", "111557.687500", "111559.177500", "111600.667500", "111602.157500", "111603.647500", "111605.137500", "111606.627500", "111608.117500", "111609.607500", "111611.097500", "111612.587500", "111614.077500", "111615.567500", "111617.057500", "111618.547500", "111620.037500", "111621.527500", "111623.017500", "111624.507500", "111625.997500", "111627.487500", "111628.977500", "111630.467500", "111631.957500", "111633.447500", "111634.937500", "111636.427500", "111637.917500", "111639.407500", "111640.897500", "111642.387500", "111643.877500", "111645.367500", "111646.857500", "111648.347500", "111649.837500", "111651.327500", "111652.817500", "111654.307500", "111655.797500", "111657.287500", "111658.777500", "111700.267500", "111701.757500", "111703.247500", "111704.737500", "111706.227500", "111707.717500", "111709.207500", "111710.697500", "111712.187500", "111713.677500", "111715.167500", "111716.657500", "111718.147500", "111719.637500", "111721.127500", "111722.617500", "111724.107500", "111725.597500", "111727.087500", "111728.577500", "111730.067500", "111731.557500", "111733.047500", "111734.537500", "111736.027500", "111737.517500", "111739.007500", "111740.497500", "111741.987500", "111743.477500", "111744.967500", "111746.457500", "111747.947500", "111749.437500", "111750.927500", "111752.417500", "111753.907500", "111755.397500", "111756.887500", "111758.377500", "111759.867500", "111801.357500", "111802.847500", "111804.337500", "111805.827500", "111807.317500", "111808.807500", "111810.297500", "111811.787500", "111813.277500", "111814.767500", "111816.257500", "111817.747500", "111819.237500", "111820.727500", "111822.217500", "111823.707500", "111825.197500", "111826.687500", "111828.177500", "111829.667500", "111831.157500", "111832.647500", "111834.137500", "111835.627500", "111837.117500", "111838.607500", "111840.097500", "111841.587500", "111843.077500", "111844.567500", "111846.057500", "111847.547500", "111849.037500", "111850.527500", "111852.017500", "111853.507500", "111854.997500", "111856.487500", "111857.977500", "111859.467500", "111900.957500", "111902.447500", "111903.937500", "111905.427500", "111906.917500", "111908.407500", "111909.897500", "111911.387500", "111912.877500", "111914.367500", "111915.857500", "111917.347500", "111918.837500", "111920.327500", "111921.817500", "111923.307500", "111924.797500", "111926.287500", "111927.777500", "111929.267500", "111930.757500", "111932.247500", "111933.737500", "111935.227500", "111936.717500", "111938.207500", "111939.697500", "111941.187500", "111942.677500", "111944.167500", "111945.657500", "111947.147500", "111948.637500", "111950.127500", "111951.617500", "111953.107500", "111954.597500", "111956.087500", "111957.577500", "111959.067500", "112000.557500", "112002.047500", "112003.537500", "112005.027500", "112006.517500", "112008.007500", "112009.497500", "112010.987500", "112012.477500", "112013.967500", "112015.457500", "112016.947500", "112018.437500", "112019.927500", "112021.417500", "112022.907500", "112024.397500", "112025.887500", "112027.377500", "112028.867500", "112030.357500", "112031.847500", "112033.337500", "112034.827500", "112036.317500", "112037.807500", "112039.297500", "112040.787500", "112042.277500", "112043.767500", "112045.257500", "112046.747500", "112048.237500", "112049.727500", "112051.217500", "112052.707500", "112054.197500", "112055.687500", "112057.177500", "112058.667500", "112100.157500", "112101.647500", "112103.137500", "112104.627500", "112106.117500", "112107.607500", "112109.097500", "112110.587500", "112112.077500", "112113.567500", "112115.057500", "112116.547500", "112118.037500", "112119.527500", "112121.017500", "112122.507500", "112123.997500", "112125.487500", "112126.977500", "112128.467500", "112129.957500", "112131.447500", "112132.937500", "112134.427500", "112135.917500", "112137.407500", "112138.897500", "112140.387500", "112141.877500", "112143.367500", "112144.857500", "112146.347500", "112147.837500", "112149.327500", "112150.817500", "112152.307500", "112153.797500", "112155.287500", "112156.777500", "112158.267500", "112159.757500", "112201.247500", "112202.737500", "112204.227500", "112205.717500", "112207.207500", "112208.697500", "112210.187500", "112211.677500", "112213.167500", "112214.657500", "112216.147500", "112217.637500", "112219.127500", "112220.617500", "112222.107500", "112223.597500", "112225.087500", "112226.577500", "112228.067500", "112229.557500", "112231.047500", "112232.537500", "112234.027500", "112235.517500", "112237.007500", "112238.497500", "112239.987500", "112241.477500", "112242.967500", "112244.457500", "112245.947500", "112247.437500", "112248.927500", "112250.417500", "112251.907500", "112253.397500", "112254.887500", "112256.377500", "112257.867500", "112259.357500", "112300.847500", "112302.337500", "112303.827500", "112305.317500", "112306.807500", "112308.297500", "112309.787500", "112311.277500", "112312.767500", "112314.257500", "112315.747500", "112317.237500", "112318.727500", "112320.217500", "112321.707500", "112323.197500", "112324.687500", "112326.177500", "112327.667500", "112329.157500", "112330.647500", "112332.137500", "112333.627500", "112335.117500", "112336.607500", "112338.097500", "112339.587500", "112341.077500", "112342.567500", "112344.057500", "112345.547500", "112347.037500", "112348.527500", "112350.017500", "112351.507500", "112352.997500", "112354.487500", "112355.977500", "112357.467500", "112358.957500", "112400.447500", "112401.937500", "112403.427500", "112404.917500", "112406.407500", "112407.897500", "112409.387500", "112410.877500", "112412.367500", "112413.857500", "112415.347500", "112416.837500", "112418.327500", "112419.817500", "112421.307500", "112422.797500", "112424.287500", "112425.777500", "112427.267500", "112428.757500", "112430.247500", "112431.737500", "112433.227500", "112434.717500", "112436.207500", "112437.697500", "112439.187500", "112440.677500", "112442.167500", "112443.657500", "112445.147500", "112446.637500", "112448.127500", "112449.617500", "112451.107500", "112452.597500", "112454.087500", "112455.577500", "112457.067500", "112458.557500", "112500.047500", "112501.537500", "112503.027500", "112504.517500", "112506.007500", "112507.497500", "112508.987500", "112510.477500", "112511.967500", "112513.457500", "112514.947500", "112516.437500", "112517.927500", "112519.417500", "112520.907500", "112522.397500", "112523.887500", "112525.377500", "112526.867500", "112528.357500", "112529.847500", "112531.337500", "112532.827500", "112534.317500", "112535.807500", "112537.297500"],
      "ContentTime": ["111524.233000", "111524.244000", "111524.247000", "111524.250000", "111524.253000", "111524.256000", "111524.259000", "111524.262000", "111524.270000", "111524.273000", "111524.276000", "111524.279000", "111524.282000", "111524.285000", "111524.288000", "111544.188000", "111544.217000", "111544.219000", "111544.222000", "111544.225000", "111544.228000", "111544.231000", "111544.234000", "111544.237000", "111544.239000", "111544.242000", "111544.245000", "111544.248000", "111544.251000", "111544.254000", "111544.257000", "111544.260000", "111544.263000", "111544.265000", "111544.268000", "111544.271000", "111604.188000", "111604.195000", "111604.198000", "111604.201000", "111604.204000", "111604.207000", "111604.210000", "111604.212000", "111604.215000", "111604.218000", "111604.221000", "111604.224000", "111604.227000", "111604.229000", "111604.232000", "111604.235000", "111604.238000", "111604.241000", "111604.244000", "111604.247000", "111624.188000", "111624.191000", "111624.194000", "111624.197000", "111624.200000", "111624.202000", "111624.205000", "111624.208000", "111624.211000", "111624.214000", "111624.217000", "111624.220000", "111624.222000", "111624.225000", "111624.228000", "111624.231000", "111624.234000", "111624.237000", "111624.240000", "111624.243000", "111644.187000", "111644.190000", "111644.193000", "111644.196000", "111644.199000", "111644.201000", "111644.204000", "111644.207000", "111644.210000", "111644.213000", "111644.216000", "111644.219000", "111644.221000", "111644.224000", "111644.227000", "111644.230000", "111644.233000", "111644.236000", "111644.239000", "111644.241000", "111724.188000", "111724.191000", "111724.194000", "111724.197000", "111724.200000", "111724.203000", "111724.206000", "111724.208000", "111724.211000", "111724.214000", "111724.227000", "111724.230000", "111724.233000", "111724.236000", "111724.239000", "111724.241000", "111724.244000", "111724.247000", "111724.250000", "111724.253000", "111724.256000", "111724.259000", "111724.262000", "111724.265000", "111724.268000", "111724.270000", "111724.273000", "111724.276000", "111724.279000", "111724.282000", "111804.188000", "111804.191000", "111804.194000", "111804.197000", "111804.200000", "111804.203000", "111804.206000", "111804.208000", "111804.211000", "111804.214000", "111804.217000", "111804.220000", "111804.223000", "111804.226000", "111804.229000", "111804.231000", "111804.234000", "111804.237000", "111804.240000", "111804.243000", "111804.246000", "111804.249000", "111804.252000", "111804.254000", "111804.257000", "111804.260000", "111804.263000", "111844.187000", "111844.190000", "111844.193000", "111844.196000", "111844.198000", "111844.201000", "111844.204000", "111844.207000", "111844.210000", "111844.213000", "111844.215000", "111844.218000", "111844.221000", "111844.224000", "111844.227000", "111844.230000", "111844.232000", "111844.235000", "111844.238000", "111844.241000", "111844.244000", "111844.247000", "111844.250000", "111844.252000", "111844.255000", "111844.263000", "111844.266000", "111924.188000", "111924.191000", "111924.194000", "111924.197000", "111924.200000", "111924.203000", "111924.206000", "111924.209000", "111924.212000", "111924.214000", "111924.217000", "111924.220000", "111924.223000", "111924.226000", "111924.229000", "111924.232000", "111924.235000", "111924.237000", "111924.240000", "111924.243000", "111924.246000", "111924.249000", "111924.252000", "111924.255000", "111924.258000", "111924.260000", "111924.263000", "112004.188000", "112004.191000", "112004.194000", "112004.197000", "112004.200000", "112004.203000", "112004.206000", "112004.208000", "112004.211000", "112004.214000", "112004.217000", "112004.220000", "112004.223000", "112004.226000", "112004.229000", "112004.232000", "112004.234000", "112004.237000", "112004.240000", "112004.243000", "112004.246000", "112004.249000", "112004.252000", "112004.255000", "112004.257000", "112004.260000", "112044.188000", "112044.191000", "112044.194000", "112044.197000", "112044.200000", "112044.203000", "112044.205000", "112044.208000", "112044.211000", "112044.214000", "112044.217000", "112044.220000", "112044.223000", "112044.226000", "112044.229000", "112044.232000", "112044.234000", "112044.237000", "112044.240000", "112044.243000", "112044.246000", "112044.249000", "112044.252000", "112044.255000", "112044.257000", "112044.260000", "112044.263000", "112124.187000", "112124.190000", "112124.193000", "112124.196000", "112124.199000", "112124.202000", "112124.204000", "112124.207000", "112124.210000", "112124.213000", "112124.216000", "112124.219000", "112124.222000", "112124.225000", "112124.228000", "112124.231000", "112124.233000", "112124.237000", "112124.240000", "112124.243000", "112124.246000", "112124.249000", "112124.251000", "112124.254000", "112124.257000", "112124.260000", "112124.263000", "112204.188000", "112204.191000", "112204.194000", "112204.197000", "112204.200000", "112204.203000", "112204.205000", "112204.226000", "112204.229000", "112204.232000", "112204.235000", "112204.238000", "112204.241000", "112204.244000", "112204.247000", "112204.250000", "112204.253000", "112204.255000", "112204.258000", "112204.261000", "112204.264000", "112204.267000", "112204.270000", "112204.273000", "112204.276000", "112204.278000", "112204.281000", "112244.188000", "112244.191000", "112244.194000", "112244.197000", "112244.200000", "112244.203000", "112244.206000", "112244.209000", "112244.211000", "112244.214000", "112244.217000", "112244.220000", "112244.223000", "112244.226000", "112244.229000", "112244.232000", "112244.235000", "112244.237000", "112244.240000", "112244.243000", "112244.246000", "112244.249000", "112244.252000", "112244.255000", "112244.257000", "112244.260000", "112244.263000", "112324.187000", "112324.190000", "112324.193000", "112324.196000", "112324.199000", "112324.202000", "112324.205000", "112324.207000", "112324.210000", "112324.213000", "112324.216000", "112324.219000", "112324.222000", "112324.225000", "112324.228000", "112324.231000", "112324.233000", "112324.236000", "112324.239000", "112324.242000", "112324.245000", "112324.248000", "112324.251000", "112324.254000", "112324.256000", "112324.259000", "112324.262000", "112404.188000", "112404.191000", "112404.194000", "112404.197000", "112404.215000", "112404.218000", "112404.221000", "112404.223000", "112404.227000", "112404.229000", "112404.232000", "112404.235000", "112404.238000", "112404.241000", "112404.244000", "112404.247000", "112404.250000", "112404.253000", "112404.255000", "112404.258000", "112404.261000", "112404.264000", "112404.267000", "112404.270000", "112404.273000", "112404.276000", "112404.279000", "112444.188000", "112444.191000", "112444.194000", "112444.197000", "112444.200000", "112444.203000", "112444.205000", "112444.208000", "112444.211000", "112444.214000", "112444.217000", "112444.220000", "112444.223000", "112444.226000", "112444.229000", "112444.231000", "112444.234000", "112444.237000", "112444.240000", "112444.243000", "112444.246000", "112444.249000", "112444.252000", "112444.274000", "112444.277000", "112444.280000", "112524.188000", "112524.191000", "112524.194000", "112524.197000", "112524.200000", "112524.203000", "112524.206000", "112524.209000", "112524.211000", "112524.214000", "112524.217000", "112524.220000", "112524.223000", "112524.226000", "112524.229000", "112524.232000", "112524.235000", "112524.237000", "112524.240000", "112524.243000", "112524.246000", "112524.249000", "112524.252000", "112524.255000", "112524.258000", "112524.261000", "112524.263000", "112539.585000", "112539.588000", "112539.591000", "112539.594000", "112539.606000", "112539.609000", "112539.613000", "112539.616000", "112539.619000", "112539.622000", "112539.625000"],
