{
  "AcquisitionMatrixPE": 104,
  "AcquisitionNumber": 1,
  "AcquisitionTime": "11:35:13.957500",
  "BandwidthPerPixelPhaseEncode": 17.17,
  "BaseResolution": 104,
  "BodyPartExamined": "BRAIN",
  "CoilString": "HC1-7;NC1_2",
  "ConsistencyInfo": "N4_VE11C_LATEST_20160120",
  "ConversionSoftware": "dcm2niix",
  "ConversionSoftwareVersion": "v1.0.20190720  (JP2:OpenJPEG) GCC7.3.0",
  "DerivedVendorReportedEchoSpacing": 0.000560011,
  "DeviceSerialNumber": "167006",
  "DwellTime": 2.1e-06,
  "EchoTime": 0.037,
  "EchoTrainLength": 104,
  "EffectiveEchoSpacing": 0.000560011,
  "FlipAngle": 52,
  "ImageComments": "Unaliased_MB4_PE3_LB",
  "ImageOrientationPatientDICOM": [0.998323, 0.0516279, 0.0261854, -0.0420166, 0.95739, -0.285726],
  "ImageType": [
    "ORIGINAL",
    "PRIMARY",
    "M",
    "MB",
    "ND",
    "MOSAIC"
],
  "ImagingFrequency": 123.259,
  "InPlanePhaseEncodingDirectionDICOM": "COL",
  "InstitutionAddress": "Chemin_Queen-Mary_4565_Montreal_District_CA_H3W_1W5",
  "InstitutionName": "IUGM",
  "InstitutionalDepartmentName": "Department",
  "MRAcquisitionType": "2D",
  "MagneticFieldStrength": 3,
  "Manufacturer": "Siemens",
  "ManufacturersModelName": "Prisma_fit",
  "Modality": "MR",
  "MultibandAccelerationFactor": 4,
  "PartialFourier": 1,
  "PatientPosition": "HFS",
  "PercentPhaseFOV": 100,
  "PhaseEncodingDirection": "j",
  "PhaseEncodingSteps": 104,
  "PhaseResolution": 1,
  "PixelBandwidth": 2290,
  "ProcedureStepDescription": "video_friends",
  "ProtocolName": "func_task-friends-s01e08b",
  "PulseSequenceDetails": "%CustomerSeq%_cmrr_mbep2d_bold",
  "ReceiveCoilActiveElements": "HC1-7;NC1,2",
  "ReceiveCoilName": "HeadNeck_64",
  "ReconMatrixPE": 104,
  "RepetitionTime": 1.49,
  "SAR": 0.041116,
  "ScanOptions": "FS",
  "ScanningSequence": "EP",
  "SequenceName": "epfid2d1_104",
  "SequenceVariant": "SK_SS",
  "SeriesDescription": "func_task-friends-s01e08b",
  "SeriesNumber": 15,
  "ShimSetting": [637, -7206, -8814, 764, 91, -13, 19, -2],
  "SliceThickness": 2,
  "SliceTiming": [0, 0.785, 0.0975, 0.8825, 0.195, 0.98, 0.295, 1.0775, 0.3925, 1.175, 0.49, 1.275, 0.5875, 1.3725, 0.685, 0, 0.785, 0.0975, 0.8825, 0.195, 0.98, 0.295, 1.0775, 0.3925, 1.175, 0.49, 1.275, 0.5875, 1.3725, 0.685, 0, 0.785, 0.0975, 0.8825, 0.195, 0.98, 0.295, 1.0775, 0.3925, 1.175, 0.49, 1.275, 0.5875, 1.3725, 0.685, 0, 0.785, 0.0975, 0.8825, 0.195, 0.98, 0.295, 1.0775, 0.3925, 1.175, 0.49, 1.275, 0.5875, 1.3725, 0.685],
  "SoftwareVersions": "syngo_MR_E11",
  "SpacingBetweenSlices": 2,
  "StationName": "MRC35049",
  "TaskName": "friends",
  "TotalReadoutTime": 0.0576811,
  "TxRefAmp": 253.374,
  "WipMemBlock": "841d3f42-b272-428c-aac1-2f8330a4d516||Sequence: R016 ve11c/master r/e634e98; Dec 19 2017 11:00:25 by eja",
  "dcmmeta_affine": [
    [-1.9966460466384888, -0.08403324335813522, 0.07964219897985458, 104.89108276367188],
    [-0.10325580835342407, 1.9147794246673584, -0.5682939291000366, -68.1041030883789],
    [0.0523708276450634, 0.5714526772499084, 1.9159069061279297, -55.63705825805664],
    [0.0, 0.0, 0.0, 1.0]
],
  "dcmmeta_reorient_transform": [
    [0.0, -1.0, 0.0, 103.0],
    [1.0, 0.0, 0.0, 0.0],
    [0.0, 0.0, 1.0, 0.0],
    [0.0, 0.0, 0.0, 1.0]
],
  "dcmmeta_shape": [104, 104, 60, 476],
  "dcmmeta_slice_dim": 2,
  "dcmmeta_version": 0.6,
  "global": {
    "const": {
      "AcquisitionMatrix": [104, 0, 0, 104],
      "AngioFlag": "N",
      "BitsAllocated": 16,
      "BitsStored": 16,
      "BodyPartExamined": "BRAIN",
      "Columns": 832,
      "EchoNumbers": 1,
      "EchoTime": 37.0,
      "EchoTrainLength": 104,
      "FlipAngle": 52.0,
      "HighBit": 15,
      "ImageOrientationPatient": [0.99832303576437, 0.05162790277173, 0.02618541421503, -0.0420166208393, 0.95738971300167, -0.2857263393736],
      "ImagePositionPatient": [-792.42672571176, -863.68300567345, 192.16836207932],
      "ImageType": [
        "ORIGINAL",
        "PRIMARY",
        "M",
        "MB",
        "ND",
        "MOSAIC"
],
      "ImagedNucleus": "1H",
      "ImagingFrequency": 123.259472,
      "InPlanePhaseEncodingDirection": "COL",
      "MRAcquisitionType": "2D",
      "MagneticFieldStrength": 3.0,
      "Manufacturer": "SIEMENS",
      "ManufacturerModelName": "Prisma_fit",
      "Modality": "MR",
      "NumberOfAverages": 1.0,
      "NumberOfPhaseEncodingSteps": 104,
      "PercentPhaseFieldOfView": 100.0,
      "PercentSampling": 100.0,
      "PerformedProcedureStepStartTime": "103940.202000",
      "PhotometricInterpretation": "MONOCHROME2",
      "PixelBandwidth": 2290.0,
      "PixelRepresentation": 0,
      "PixelSpacing": [2.0, 2.0],
      "ProtocolName": "func_task-friends-s01e08b",
      "RepetitionTime": 1490.0,
      "Rows": 832,
      "SAR": 0.04111600756626,
      "SamplesPerPixel": 1,
      "ScanOptions": "FS",
      "ScanningSequence": "EP",
      "SequenceName": "epfid2d1_104",
      "SequenceVariant": [
        "SK",
        "SS"
],
      "SeriesDescription": "func_task-friends-s01e08b",
      "SeriesNumber": 15,
      "SeriesTime": "113616.457000",
      "SliceLocation": -29.769259140141,
      "SliceThickness": 2.0,
      "SmallestImagePixelValue": 0,
      "SoftwareVersions": "syngo MR E11",
      "SpacingBetweenSlices": 2.0000000661347,
      "SpecificCharacterSet": "ISO_IR 100",
      "StudyID": "1",
      "StudyTime": "103940.150000",
      "TransmitCoilName": "Body",
      "VariableFlipAngleFlag": "N",
      "WindowCenterWidthExplanation": "Algo1",
      "dBdt": 0.0},
    "slices": {}
  },
  "time": {
    "samples": {
      "AcquisitionNumber": [1, 2, 3, 4, 5, 6, 7, 8, 9, 10, 11, 12, 13, 14, 15, 16, 17, 18, 19, 20, 21, 22, 23, 24, 25, 26, 27, 28, 29, 30, 31, 32, 33, 34, 35, 36, 37, 38, 39, 40, 41, 42, 43, 44, 45, 46, 47, 48, 49, 50, 51, 52, 53, 54, 55, 56, 57, 58, 59, 60, 61, 62, 63, 64, 65, 66, 67, 68, 69, 70, 71, 72, 73, 74, 75, 76, 77, 78, 79, 80, 81, 82, 83, 84, 85, 86, 87, 88, 89, 90, 91, 92, 93, 94, 95, 96, 97, 98, 99, 100, 101, 102, 103, 104, 105, 106, 107, 108, 109, 110, 111, 112, 113, 114, 115, 116, 117, 118, 119, 120, 121, 122, 123, 124, 125, 126, 127, 128, 129, 130, 131, 132, 133, 134, 135, 136, 137, 138, 139, 140, 141, 142, 143, 144, 145, 146, 147, 148, 149, 150, 151, 152, 153, 154, 155, 156, 157, 158, 159, 160, 161, 162, 163, 164, 165, 166, 167, 168, 169, 170, 171, 172, 173, 174, 175, 176, 177, 178, 179, 180, 181, 182, 183, 184, 185, 186, 187, 188, 189, 190, 191, 192, 193, 194, 195, 196, 197, 198, 199, 200, 201, 202, 203, 204, 205, 206, 207, 208, 209, 210, 211, 212, 213, 214, 215, 216, 217, 218, 219, 220, 221, 222, 223, 224, 225, 226, 227, 228, 229, 230, 231, 232, 233, 234, 235, 236, 237, 238, 239, 240, 241, 242, 243, 244, 245, 246, 247, 248, 249, 250, 251, 252, 253, 254, 255, 256, 257, 258, 259, 260, 261, 262, 263, 264, 265, 266, 267, 268, 269, 270, 271, 272, 273, 274, 275, 276, 277, 278, 279, 280, 281, 282, 283, 284, 285, 286, 287, 288, 289, 290, 291, 292, 293, 294, 295, 296, 297, 298, 299, 300, 301, 302, 303, 304, 305, 306, 307, 308, 309, 310, 311, 312, 313, 314, 315, 316, 317, 318, 319, 320, 321, 322, 323, 324, 325, 326, 327, 328, 329, 330, 331, 332, 333, 334, 335, 336, 337, 338, 339, 340, 341, 342, 343, 344, 345, 346, 347, 348, 349, 350, 351, 352, 353, 354, 355, 356, 357, 358, 359, 360, 361, 362, 363, 364, 365, 366, 367, 368, 369, 370, 371, 372, 373, 374, 375, 376, 377, 378, 379, 380, 381, 382, 383, 384, 385, 386, 387, 388, 389, 390, 391, 392, 393, 394, 395, 396, 397, 398, 399, 400, 401, 402, 403, 404, 405, 406, 407, 408, 409, 410, 411, 412, 413, 414, 415, 416, 417, 418, 419, 420, 421, 422, 423, 424, 425, 426, 427, 428, 429, 430, 431, 432, 433, 434, 435, 436, 437, 438, 439, 440, 441, 442, 443, 444, 445, 446, 447, 448, 449, 450, 451, 452, 453, 454, 455, 456, 457, 458, 459, 460, 461, 462, 463, 464, 465, 466, 467, 468, 469, 470, 471, 472, 473, 474, 475, 476],
      "AcquisitionTime": ["113513.957500", "113515.447500", "113516.937500", "113518.427500", "113519.917500", "113521.407500", "113522.897500", "113524.387500", "113525.877500", "113527.367500", "113528.857500", "113530.347500", "113531.837500", "113533.327500", "113534.817500", "113536.307500", "113537.797500", "113539.287500", "113540.777500", "113542.267500", "113543.757500", "113545.247500", "113546.737500", "113548.227500", "113549.717500", "113551.207500", "113552.697500", "113554.187500", "113555.677500", "113557.167500", "113558.657500", "113600.147500", "113601.637500", "113603.127500", "113604.617500", "113606.107500", "113607.597500", "113609.087500", "113610.577500", "113612.067500", "113613.557500", "113615.047500", "113616.537500", "113618.027500", "113619.517500", "113621.007500", "113622.497500", "113623.987500", "113625.477500", "113626.967500", "113628.457500", "113629.947500", "113631.437500", "113632.927500", "113634.417500", "113635.907500", "113637.397500", "113638.887500", "113640.377500", "113641.867500", "113643.357500", "113644.847500", "113646.337500", "113647.827500", "113649.317500", "113650.807500", "113652.297500", "113653.787500", "113655.277500", "113656.767500", "113658.257500", "113659.747500", "113701.237500", "113702.727500", "113704.217500", "113705.707500", "113707.197500", "113708.687500", "113710.177500", "113711.667500", "113713.157500", "113714.647500", "113716.137500", "113717.627500", "113719.117500", "113720.607500", "113722.097500", "113723.587500", "113725.077500", "113726.567500", "113728.057500", "113729.547500", "113731.037500", "113732.527500", "113734.017500", "113735.507500", "113736.997500", "113738.487500", "113739.977500", "113741.467500", "113742.957500", "113744.447500", "113745.937500", "113747.427500", "113748.917500", "113750.407500", "113751.897500", "113753.387500", "113754.877500", "113756.367500", "113757.857500", "113759.347500", "113800.837500", "113802.327500", "113803.817500", "113805.307500", "113806.797500", "113808.287500", "113809.777500", "113811.267500", "113812.757500", "113814.247500", "113815.737500", "113817.227500", "113818.717500", "113820.207500", "113821.697500", "113823.187500", "113824.677500", "113826.167500", "113827.657500", "113829.147500", "113830.637500", "113832.127500", "113833.617500", "113835.107500", "113836.597500", "113838.087500", "113839.577500", "113841.067500", "113842.557500", "113844.047500", "113845.537500", "113847.027500", "113848.517500", "113850.007500", "113851.497500", "113852.987500", "113854.477500", "113855.967500", "113857.457500", "113858.947500", "113900.437500", "113901.927500", "113903.417500", "113904.907500", "113906.397500", "113907.887500", "113909.377500", "113910.867500", "113912.357500", "113913.847500", "113915.337500", "113916.827500", "113918.317500", "113919.807500", "113921.297500", "113922.787500", "113924.277500", "113925.767500", "113927.257500", "113928.747500", "113930.237500", "113931.727500", "113933.217500", "113934.707500", "113936.197500", "113937.687500", "113939.177500", "113940.667500", "113942.157500", "113943.647500", "113945.137500", "113946.627500", "113948.117500", "113949.607500", "113951.097500", "113952.587500", "113954.077500", "113955.567500", "113957.057500", "113958.547500", "114000.037500", "114001.527500", "114003.017500", "114004.507500", "114005.997500", "114007.487500", "114008.977500", "114010.467500", "114011.957500", "114013.447500", "114014.937500", "114016.427500", "114017.917500", "114019.407500", "114020.897500", "114022.387500", "114023.877500", "114025.367500", "114026.857500", "114028.347500", "114029.837500", "114031.327500", "114032.817500", "114034.307500", "114035.797500", "114037.287500", "114038.777500", "114040.267500", "114041.757500", "114043.247500", "114044.737500", "114046.227500", "114047.717500", "114049.207500", "114050.697500", "114052.187500", "114053.677500", "114055.167500", "114056.657500", "114058.147500", "114059.637500", "114101.127500", "114102.617500", "114104.107500", "114105.597500", "114107.087500", "114108.577500", "114110.067500", "114111.557500", "114113.047500", "114114.537500", "114116.027500", "114117.517500", "114119.007500", "114120.497500", "114121.987500", "114123.477500", "114124.967500", "114126.457500", "114127.947500", "114129.437500", "114130.927500", "114132.417500", "114133.907500", "114135.397500", "114136.887500", "114138.377500", "114139.867500", "114141.357500", "114142.847500", "114144.337500", "114145.827500", "114147.317500", "114148.807500", "114150.297500", "114151.787500", "114153.277500", "114154.767500", "114156.257500", "114157.747500", "114159.237500", "114200.727500", "114202.217500", "114203.707500", "114205.197500", "114206.687500", "114208.177500", "114209.667500", "114211.157500", "114212.647500", "114214.137500", "114215.627500", "114217.117500", "114218.607500", "114220.097500", "114221.587500", "114223.077500", "114224.567500", "114226.057500", "114227.547500", "114229.037500", "114230.527500", "114232.017500", "114233.507500", "114234.997500", "114236.487500", "114237.977500", "114239.467500", "114240.957500", "114242.447500", "114243.937500", "114245.427500", "114246.917500", "114248.407500", "114249.897500", "114251.387500", "114252.877500", "114254.367500", "114255.857500", "114257.347500", "114258.837500", "114300.327500", "114301.817500", "114303.307500", "114304.797500", "114306.287500", "114307.777500", "114309.267500", "114310.757500", "114312.247500", "114313.737500", "114315.227500", "114316.717500", "114318.207500", "114319.697500", "114321.187500", "114322.677500", "114324.167500", "114325.657500", "114327.147500", "114328.637500", "114330.127500", "114331.617500", "114333.107500", "114334.597500", "114336.087500", "114337.577500", "114339.067500", "114340.557500", "114342.047500", "114343.537500", "114345.027500", "114346.517500", "114348.007500", "114349.497500", "114350.987500", "114352.477500", "114353.967500", "114355.457500", "114356.947500", "114358.437500", "114359.927500", "114401.417500", "114402.907500", "114404.397500", "114405.887500", "114407.377500", "114408.867500", "114410.357500", "114411.847500", "114413.337500", "114414.827500", "114416.317500", "114417.807500", "114419.297500", "114420.787500", "114422.277500", "114423.767500", "114425.257500", "114426.747500", "114428.237500", "114429.727500", "114431.217500", "114432.707500", "114434.197500", "114435.687500", "114437.177500", "114438.667500", "114440.157500", "114441.647500", "114443.137500", "114444.627500", "114446.117500", "114447.607500", "114449.097500", "114450.587500", "114452.077500", "114453.567500", "114455.057500", "114456.547500", "114458.037500", "114459.527500", "114501.017500", "114502.507500", "114503.997500", "114505.487500", "114506.977500", "114508.467500", "114509.957500", "114511.447500", "114512.937500", "114514.427500", "114515.917500", "114517.407500", "114518.897500", "114520.387500", "114521.877500", "114523.367500", "114524.857500", "114526.347500", "114527.837500", "114529.327500", "114530.817500", "114532.307500", "114533.797500", "114535.287500", "114536.777500", "114538.267500", "114539.757500", "114541.247500", "114542.737500", "114544.227500", "114545.717500", "114547.207500", "114548.697500", "114550.187500", "114551.677500", "114553.167500", "114554.657500", "114556.147500", "114557.637500", "114559.127500", "114600.617500", "114602.107500", "114603.597500", "114605.087500", "114606.577500", "114608.067500", "114609.557500", "114611.047500", "114612.537500", "114614.027500", "114615.517500", "114617.007500", "114618.497500", "114619.987500", "114621.477500", "114622.967500", "114624.457500", "114625.947500", "114627.437500", "114628.927500", "114630.417500", "114631.907500", "114633.397500", "114634.887500", "114636.377500", "114637.867500", "114639.357500", "114640.847500", "114642.337500", "114643.827500", "114645.317500", "114646.807500", "114648.297500", "114649.787500", "114651.277500", "114652.767500", "114654.257500", "114655.747500", "114657.237500", "114658.727500", "114700.217500", "114701.707500"],
      "ContentTime": ["113616.459000", "113616.463000", "113616.466000", "113616.469000", "113616.472000", "113616.475000", "113616.478000", "113616.481000", "113616.484000", "113636.433000", "113636.436000", "113636.439000", "113636.442000", "113636.444000", "113636.447000", "113636.450000", "113636.453000", "113636.456000", "113636.459000", "113636.467000", "113636.470000", "113636.473000", "113636.476000", "113636.479000", "113636.482000", "113636.485000", "113636.488000", "113636.491000", "113636.494000", "113656.434000", "113656.437000", "113656.440000", "113656.443000", "113656.446000", "113656.449000", "113656.452000", "113656.454000", "113656.457000", "113656.460000", "113656.463000", "113656.466000", "113656.469000", "113656.472000", "113656.475000", "113656.478000", "113656.484000", "113656.487000", "113656.490000", "113656.493000", "113656.496000", "113716.434000", "113716.437000", "113716.440000", "113716.443000", "113716.446000", "113716.449000", "113716.452000", "113716.454000", "113716.457000", "113716.460000", "113716.463000", "113716.466000", "113716.469000", "113716.472000", "113716.474000", "113716.477000", "113716.480000", "113716.490000", "113716.493000", "113716.495000", "113736.434000", "113736.437000", "113736.444000", "113736.447000", "113736.450000", "113736.452000", "113736.455000", "113736.458000", "113736.461000", "113736.470000", "113736.472000", "113736.475000", "113736.478000", "113736.481000", "113736.484000", "113736.487000", "113736.490000", "113736.493000", "113736.496000", "113736.499000", "113816.434000", "113816.437000", "113816.440000", "113816.443000", "113816.446000", "113816.449000", "113816.452000", "113816.455000", "113816.457000", "113816.460000", "113816.463000", "113816.466000", "113816.469000", "113816.472000", "113816.475000", "113816.478000", "113816.505000", "113816.508000", "113816.511000", "113816.513000", "113816.516000", "113816.519000", "113816.522000", "113816.525000", "113816.528000", "113816.531000", "113816.535000", "113816.538000", "113816.540000", "113816.543000", "113816.546000", "113856.433000", "113856.436000", "113856.439000", "113856.442000", "113856.445000", "113856.448000", "113856.451000", "113856.453000", "113856.456000", "113856.459000", "113856.462000", "113856.465000", "113856.468000", "113856.471000", "113856.474000", "113856.477000", "113856.480000", "113856.483000", "113856.485000", "113856.488000", "113856.491000", "113856.494000", "113856.497000", "113856.500000", "113856.503000", "113856.506000", "113856.509000", "113936.434000", "113936.437000", "113936.440000", "113936.443000", "113936.446000", "113936.449000", "113936.451000", "113936.454000", "113936.457000", "113936.460000", "113936.463000", "113936.466000", "113936.469000", "113936.472000", "113936.475000", "113936.477000", "113936.480000", "113936.483000", "113936.486000", "113936.489000", "113936.492000", "113936.495000", "113936.497000", "113936.500000", "113936.503000", "113936.506000", "113936.509000", "114016.435000", "114016.438000", "114016.441000", "114016.444000", "114016.447000", "114016.450000", "114016.453000", "114016.456000", "114016.459000", "114016.462000", "114016.464000", "114016.467000", "114016.470000", "114016.473000", "114016.476000", "114016.479000", "114016.482000", "114016.485000", "114016.488000", "114016.490000", "114016.493000", "114016.496000", "114016.499000", "114016.502000", "114016.505000", "114016.508000", "114016.511000", "114056.433000", "114056.436000", "114056.439000", "114056.442000", "114056.445000", "114056.448000", "114056.451000", "114056.454000", "114056.456000", "114056.459000", "114056.462000", "114056.465000", "114056.468000", "114056.471000", "114056.474000", "114056.477000", "114056.480000", "114056.483000", "114056.485000", "114056.488000", "114056.491000", "114056.494000", "114056.497000", "114056.500000", "114056.503000", "114056.506000", "114056.509000", "114136.434000", "114136.437000", "114136.440000", "114136.443000", "114136.446000", "114136.449000", "114136.452000", "114136.455000", "114136.458000", "114136.461000", "114136.464000", "114136.467000", "114136.469000", "114136.473000", "114136.475000", "114136.478000", "114136.481000", "114136.484000", "114136.487000", "114136.490000", "114136.493000", "114136.496000", "114136.499000", "114136.502000", "114136.504000", "114136.508000", "114136.510000", "114216.434000", "114216.437000", "114216.440000", "114216.443000", "114216.446000", "114216.449000", "114216.452000", "114216.455000", "114216.458000", "114216.460000", "114216.463000", "114216.466000", "114216.469000", "114216.472000", "114216.475000", "114216.478000", "114216.481000", "114216.484000", "114216.487000", "114216.490000", "114216.492000", "114216.495000", "114216.498000", "114216.501000", "114216.504000", "114216.507000", "114256.434000", "114256.437000", "114256.440000", "114256.443000", "114256.446000", "114256.449000", "114256.452000", "114256.455000", "114256.458000", "114256.461000", "114256.474000", "114256.477000", "114256.480000", "114256.483000", "114256.486000", "114256.489000", "114256.492000", "114256.495000", "114256.498000", "114256.501000", "114256.503000", "114256.506000", "114256.509000", "114256.512000", "114256.515000", "114256.518000", "114256.528000", "114336.433000", "114336.436000", "114336.439000", "114336.442000", "114336.445000", "114336.448000", "114336.451000", "114336.454000", "114336.457000", "114336.460000", "114336.463000", "114336.466000", "114336.469000", "114336.472000", "114336.475000", "114336.478000", "114336.480000", "114336.483000", "114336.486000", "114336.489000", "114336.492000", "114336.495000", "114336.498000", "114336.501000", "114336.504000", "114336.507000", "114336.510000", "114416.434000", "114416.437000", "114416.440000", "114416.443000", "114416.446000", "114416.449000", "114416.451000", "114416.454000", "114416.457000", "114416.460000", "114416.463000", "114416.466000", "114416.469000", "114416.472000", "114416.475000", "114416.478000", "114416.481000", "114416.484000", "114416.487000", "114416.489000", "114416.492000", "114416.495000", "114416.498000", "114416.501000", "114416.504000", "114416.507000", "114416.510000", "114456.434000", "114456.437000", "114456.440000", "114456.443000", "114456.446000", "114456.449000", "114456.451000", "114456.455000", "114456.457000", "114456.460000", "114456.463000", "114456.466000", "114456.469000", "114456.472000", "114456.475000", "114456.478000", "114456.481000", "114456.484000", "114456.487000", "114456.490000", "114456.493000", "114456.496000", "114456.498000", "114456.501000", "114456.504000", "114456.507000", "114456.510000", "114516.434000", "114516.437000", "114516.440000", "114516.443000", "114516.446000", "114516.449000", "114516.461000", "114516.464000", "114516.467000", "114516.470000", "114516.473000", "114516.476000", "114516.479000", "114556.433000", "114556.436000", "114556.439000", "114556.442000", "114556.445000", "114556.448000", "114556.450000", "114556.453000", "114556.456000", "114556.459000", "114556.462000", "114556.465000", "114556.468000", "114556.471000", "114556.474000", "114556.477000", "114556.480000", "114556.483000", "114556.485000", "114556.488000", "114556.491000", "114556.494000", "114556.497000", "114556.500000", "114556.503000", "114556.506000", "114556.509000", "114636.434000", "114636.437000", "114636.440000", "114636.443000", "114636.446000", "114636.449000", "114636.451000", "114636.454000", "114636.457000", "114636.460000", "114636.463000", "114636.466000", "114636.469000", "114636.472000", "114636.475000", "114636.478000", "114636.480000", "114636.484000", "114636.486000", "114636.489000", "114636.492000", "114636.495000", "114636.498000", "114636.501000", "114636.504000", "114636.507000", "114636.510000", "114704.175000", "114704.178000", "114704.181000", "114704.184000", "114704.193000", "114704.196000", "114704.199000", "114704.202000", "114704.205000", "114704.208000", "114704.211000", "114704.213000", "114704.217000", "114704.219000", "114704.222000", "114704.225000", "114704.228000", "114704.231000", "114704.234000"],
