{
  "AcquisitionMatrixPE": 104,
  "AcquisitionNumber": 1,
  "AcquisitionTime": "11:10:12.577500",
  "BandwidthPerPixelPhaseEncode": 17.17,
  "BaseResolution": 104,
  "BodyPartExamined": "BRAIN",
  "CoilString": "HC1-7;NC1_2",
  "ConsistencyInfo": "N4_VE11C_LATEST_20160120",
  "ConversionSoftware": "dcm2niix",
  "ConversionSoftwareVersion": "v1.0.20190720  (JP2:OpenJPEG) GCC7.3.0",
  "DerivedVendorReportedEchoSpacing": 0.000560011,
  "DeviceSerialNumber": "167006",
  "DwellTime": 2.1e-06,
  "EchoTime": 0.037,
  "EchoTrainLength": 104,
  "EffectiveEchoSpacing": 0.000560011,
  "FlipAngle": 52,
  "ImageComments": "Unaliased_MB4_PE3_LB",
  "ImageOrientationPatientDICOM": [0.998323, 0.0516279, 0.0261854, -0.0420166, 0.95739, -0.285726],
  "ImageType": [
    "ORIGINAL",
    "PRIMARY",
    "M",
    "MB",
    "ND",
    "MOSAIC"
],
  "ImagingFrequency": 123.259,
  "InPlanePhaseEncodingDirectionDICOM": "COL",
  "InstitutionAddress": "Chemin_Queen-Mary_4565_Montreal_District_CA_H3W_1W5",
  "InstitutionName": "IUGM",
  "InstitutionalDepartmentName": "Department",
  "MRAcquisitionType": "2D",
  "MagneticFieldStrength": 3,
  "Manufacturer": "Siemens",
  "ManufacturersModelName": "Prisma_fit",
  "Modality": "MR",
  "MultibandAccelerationFactor": 4,
  "PartialFourier": 1,
  "PatientPosition": "HFS",
  "PercentPhaseFOV": 100,
  "PhaseEncodingDirection": "j",
  "PhaseEncodingSteps": 104,
  "PhaseResolution": 1,
  "PixelBandwidth": 2290,
  "ProcedureStepDescription": "video_friends",
  "ProtocolName": "func_task-friends-s01e07b",
  "PulseSequenceDetails": "%CustomerSeq%_cmrr_mbep2d_bold",
  "ReceiveCoilActiveElements": "HC1-7;NC1,2",
  "ReceiveCoilName": "HeadNeck_64",
  "ReconMatrixPE": 104,
  "RepetitionTime": 1.49,
  "SAR": 0.0411219,
  "ScanOptions": "FS",
  "ScanningSequence": "EP",
  "SequenceName": "epfid2d1_104",
  "SequenceVariant": "SK_SS",
  "SeriesDescription": "func_task-friends-s01e07b",
  "SeriesNumber": 11,
  "ShimSetting": [637, -7206, -8814, 764, 91, -13, 19, -2],
  "SliceThickness": 2,
  "SliceTiming": [0, 0.785, 0.1, 0.8825, 0.1975, 0.98, 0.295, 1.08, 0.3925, 1.1775, 0.49, 1.275, 0.59, 1.3725, 0.6875, 0, 0.785, 0.1, 0.8825, 0.1975, 0.98, 0.295, 1.08, 0.3925, 1.1775, 0.49, 1.275, 0.59, 1.3725, 0.6875, 0, 0.785, 0.1, 0.8825, 0.1975, 0.98, 0.295, 1.08, 0.3925, 1.1775, 0.49, 1.275, 0.59, 1.3725, 0.6875, 0, 0.785, 0.1, 0.8825, 0.1975, 0.98, 0.295, 1.08, 0.3925, 1.1775, 0.49, 1.275, 0.59, 1.3725, 0.6875],
  "SoftwareVersions": "syngo_MR_E11",
  "SpacingBetweenSlices": 2,
  "StationName": "MRC35049",
  "TaskName": "friends",
  "TotalReadoutTime": 0.0576811,
  "TxRefAmp": 253.374,
  "WipMemBlock": "bf0912df-90b6-455c-8823-81a31640d84b||Sequence: R016 ve11c/master r/e634e98; Dec 19 2017 11:00:25 by eja",
  "dcmmeta_affine": [
    [-1.9966460466384888, -0.08403324335813522, 0.07964219897985458, 104.89108276367188],
    [-0.10325580835342407, 1.9147794246673584, -0.5682939291000366, -68.1041030883789],
    [0.0523708276450634, 0.5714526772499084, 1.9159069061279297, -55.63705825805664],
    [0.0, 0.0, 0.0, 1.0]
],
  "dcmmeta_reorient_transform": [
    [0.0, -1.0, 0.0, 103.0],
    [1.0, 0.0, 0.0, 0.0],
    [0.0, 0.0, 1.0, 0.0],
    [0.0, 0.0, 0.0, 1.0]
],
  "dcmmeta_shape": [104, 104, 60, 493],
  "dcmmeta_slice_dim": 2,
  "dcmmeta_version": 0.6,
  "global": {
    "const": {
      "AcquisitionMatrix": [104, 0, 0, 104],
      "AngioFlag": "N",
      "BitsAllocated": 16,
      "BitsStored": 16,
      "BodyPartExamined": "BRAIN",
      "Columns": 832,
      "EchoNumbers": 1,
      "EchoTime": 37.0,
      "EchoTrainLength": 104,
      "FlipAngle": 52.0,
      "HighBit": 15,
      "ImageOrientationPatient": [0.99832303576437, 0.05162790277173, 0.02618541421503, -0.0420166208393, 0.95738971300167, -0.2857263393736],
      "ImagePositionPatient": [-792.42672571176, -863.68300567345, 192.16836207932],
      "ImageType": [
        "ORIGINAL",
        "PRIMARY",
        "M",
        "MB",
        "ND",
        "MOSAIC"
],
      "ImagedNucleus": "1H",
      "ImagingFrequency": 123.259454,
      "InPlanePhaseEncodingDirection": "COL",
      "MRAcquisitionType": "2D",
      "MagneticFieldStrength": 3.0,
      "Manufacturer": "SIEMENS",
      "ManufacturerModelName": "Prisma_fit",
      "Modality": "MR",
      "NumberOfAverages": 1.0,
      "NumberOfPhaseEncodingSteps": 104,
      "PercentPhaseFieldOfView": 100.0,
      "PercentSampling": 100.0,
      "PerformedProcedureStepStartTime": "103940.202000",
      "PhotometricInterpretation": "MONOCHROME2",
      "PixelBandwidth": 2290.0,
      "PixelRepresentation": 0,
      "PixelSpacing": [2.0, 2.0],
      "ProtocolName": "func_task-friends-s01e07b",
      "RepetitionTime": 1490.0,
      "Rows": 832,
      "SAR": 0.04112189537961,
      "SamplesPerPixel": 1,
      "ScanOptions": "FS",
      "ScanningSequence": "EP",
      "SequenceName": "epfid2d1_104",
      "SequenceVariant": [
        "SK",
        "SS"
],
      "SeriesDescription": "func_task-friends-s01e07b",
      "SeriesNumber": 11,
      "SeriesTime": "111127.229000",
      "SliceLocation": -29.769259140141,
      "SliceThickness": 2.0,
      "SmallestImagePixelValue": 0,
      "SoftwareVersions": "syngo MR E11",
      "SpacingBetweenSlices": 2.0000000661347,
      "SpecificCharacterSet": "ISO_IR 100",
      "StudyID": "1",
      "StudyTime": "103940.150000",
      "TransmitCoilName": "Body",
      "VariableFlipAngleFlag": "N",
      "WindowCenterWidthExplanation": "Algo1",
      "dBdt": 0.0},
    "slices": {}
  },
  "time": {
    "samples": {
      "AcquisitionNumber": [1, 2, 3, 4, 5, 6, 7, 8, 9, 10, 11, 12, 13, 14, 15, 16, 17, 18, 19, 20, 21, 22, 23, 24, 25, 26, 27, 28, 29, 30, 31, 32, 33, 34, 35, 36, 37, 38, 39, 40, 41, 42, 43, 44, 45, 46, 47, 48, 49, 50, 51, 52, 53, 54, 55, 56, 57, 58, 59, 60, 61, 62, 63, 64, 65, 66, 67, 68, 69, 70, 71, 72, 73, 74, 75, 76, 77, 78, 79, 80, 81, 82, 83, 84, 85, 86, 87, 88, 89, 90, 91, 92, 93, 94, 95, 96, 97, 98, 99, 100, 101, 102, 103, 104, 105, 106, 107, 108, 109, 110, 111, 112, 113, 114, 115, 116, 117, 118, 119, 120, 121, 122, 123, 124, 125, 126, 127, 128, 129, 130, 131, 132, 133, 134, 135, 136, 137, 138, 139, 140, 141, 142, 143, 144, 145, 146, 147, 148, 149, 150, 151, 152, 153, 154, 155, 156, 157, 158, 159, 160, 161, 162, 163, 164, 165, 166, 167, 168, 169, 170, 171, 172, 173, 174, 175, 176, 177, 178, 179, 180, 181, 182, 183, 184, 185, 186, 187, 188, 189, 190, 191, 192, 193, 194, 195, 196, 197, 198, 199, 200, 201, 202, 203, 204, 205, 206, 207, 208, 209, 210, 211, 212, 213, 214, 215, 216, 217, 218, 219, 220, 221, 222, 223, 224, 225, 226, 227, 228, 229, 230, 231, 232, 233, 234, 235, 236, 237, 238, 239, 240, 241, 242, 243, 244, 245, 246, 247, 248, 249, 250, 251, 252, 253, 254, 255, 256, 257, 258, 259, 260, 261, 262, 263, 264, 265, 266, 267, 268, 269, 270, 271, 272, 273, 274, 275, 276, 277, 278, 279, 280, 281, 282, 283, 284, 285, 286, 287, 288, 289, 290, 291, 292, 293, 294, 295, 296, 297, 298, 299, 300, 301, 302, 303, 304, 305, 306, 307, 308, 309, 310, 311, 312, 313, 314, 315, 316, 317, 318, 319, 320, 321, 322, 323, 324, 325, 326, 327, 328, 329, 330, 331, 332, 333, 334, 335, 336, 337, 338, 339, 340, 341, 342, 343, 344, 345, 346, 347, 348, 349, 350, 351, 352, 353, 354, 355, 356, 357, 358, 359, 360, 361, 362, 363, 364, 365, 366, 367, 368, 369, 370, 371, 372, 373, 374, 375, 376, 377, 378, 379, 380, 381, 382, 383, 384, 385, 386, 387, 388, 389, 390, 391, 392, 393, 394, 395, 396, 397, 398, 399, 400, 401, 402, 403, 404, 405, 406, 407, 408, 409, 410, 411, 412, 413, 414, 415, 416, 417, 418, 419, 420, 421, 422, 423, 424, 425, 426, 427, 428, 429, 430, 431, 432, 433, 434, 435, 436, 437, 438, 439, 440, 441, 442, 443, 444, 445, 446, 447, 448, 449, 450, 451, 452, 453, 454, 455, 456, 457, 458, 459, 460, 461, 462, 463, 464, 465, 466, 467, 468, 469, 470, 471, 472, 473, 474, 475, 476, 477, 478, 479, 480, 481, 482, 483, 484, 485, 486, 487, 488, 489, 490, 491, 492, 493],
      "AcquisitionTime": ["111012.577500", "111014.067500", "111015.557500", "111017.047500", "111018.537500", "111020.027500", "111021.517500", "111023.007500", "111024.497500", "111025.987500", "111027.477500", "111028.967500", "111030.457500", "111031.947500", "111033.437500", "111034.927500", "111036.417500", "111037.907500", "111039.397500", "111040.887500", "111042.377500", "111043.867500", "111045.357500", "111046.847500", "111048.337500", "111049.827500", "111051.317500", "111052.807500", "111054.297500", "111055.787500", "111057.277500", "111058.767500", "111100.257500", "111101.747500", "111103.237500", "111104.727500", "111106.217500", "111107.707500", "111109.197500", "111110.687500", "111112.177500", "111113.667500", "111115.157500", "111116.647500", "111118.137500", "111119.627500", "111121.117500", "111122.607500", "111124.097500", "111125.587500", "111127.077500", "111128.567500", "111130.057500", "111131.547500", "111133.037500", "111134.527500", "111136.017500", "111137.507500", "111138.997500", "111140.487500", "111141.977500", "111143.467500", "111144.957500", "111146.447500", "111147.937500", "111149.427500", "111150.917500", "111152.407500", "111153.897500", "111155.387500", "111156.877500", "111158.367500", "111159.857500", "111201.347500", "111202.837500", "111204.327500", "111205.817500", "111207.307500", "111208.797500", "111210.287500", "111211.777500", "111213.267500", "111214.757500", "111216.247500", "111217.737500", "111219.227500", "111220.717500", "111222.207500", "111223.697500", "111225.187500", "111226.677500", "111228.167500", "111229.657500", "111231.147500", "111232.637500", "111234.127500", "111235.617500", "111237.107500", "111238.597500", "111240.087500", "111241.577500", "111243.067500", "111244.557500", "111246.047500", "111247.537500", "111249.027500", "111250.517500", "111252.007500", "111253.497500", "111254.987500", "111256.477500", "111257.967500", "111259.457500", "111300.947500", "111302.437500", "111303.927500", "111305.417500", "111306.907500", "111308.397500", "111309.887500", "111311.377500", "111312.867500", "111314.357500", "111315.847500", "111317.337500", "111318.827500", "111320.317500", "111321.807500", "111323.297500", "111324.787500", "111326.277500", "111327.767500", "111329.257500", "111330.747500", "111332.237500", "111333.727500", "111335.217500", "111336.707500", "111338.197500", "111339.687500", "111341.177500", "111342.667500", "111344.157500", "111345.647500", "111347.137500", "111348.627500", "111350.117500", "111351.607500", "111353.097500", "111354.587500", "111356.077500", "111357.567500", "111359.057500", "111400.547500", "111402.037500", "111403.527500", "111405.017500", "111406.507500", "111407.997500", "111409.487500", "111410.977500", "111412.467500", "111413.957500", "111415.447500", "111416.937500", "111418.427500", "111419.917500", "111421.407500", "111422.897500", "111424.387500", "111425.877500", "111427.367500", "111428.857500", "111430.347500", "111431.837500", "111433.327500", "111434.817500", "111436.307500", "111437.797500", "111439.287500", "111440.777500", "111442.267500", "111443.757500", "111445.247500", "111446.737500", "111448.227500", "111449.717500", "111451.207500", "111452.697500", "111454.187500", "111455.677500", "111457.167500", "111458.657500", "111500.147500", "111501.637500", "111503.127500", "111504.617500", "111506.107500", "111507.597500", "111509.087500", "111510.577500", "111512.067500", "111513.557500", "111515.047500", "111516.537500", "111518.027500", "111519.517500", "111521.007500", "111522.497500", "111523.987500", "111525.477500", "111526.967500", "111528.457500", "111529.947500", "111531.437500", "111532.927500", "111534.417500", "111535.907500", "111537.397500", "111538.887500", "111540.377500", "111541.867500", "111543.357500", "111544.847500", "111546.337500", "111547.827500", "111549.317500", "111550.807500", "111552.297500", "111553.787500", "111555.277500", "111556.767500", "111558.257500", "111559.747500", "111601.237500", "111602.727500", "111604.217500", "111605.707500", "111607.197500", "111608.687500", "111610.177500", "111611.667500", "111613.157500", "111614.647500", "111616.137500", "111617.627500", "111619.117500", "111620.607500", "111622.097500", "111623.587500", "111625.077500", "111626.567500", "111628.057500", "111629.547500", "111631.037500", "111632.527500", "111634.017500", "111635.507500", "111636.997500", "111638.487500", "111639.977500", "111641.467500", "111642.957500", "111644.447500", "111645.937500", "111647.427500", "111648.917500", "111650.407500", "111651.897500", "111653.387500", "111654.877500", "111656.367500", "111657.857500", "111659.347500", "111700.837500", "111702.327500", "111703.817500", "111705.307500", "111706.797500", "111708.287500", "111709.777500", "111711.267500", "111712.757500", "111714.247500", "111715.737500", "111717.227500", "111718.717500", "111720.207500", "111721.697500", "111723.187500", "111724.677500", "111726.167500", "111727.657500", "111729.147500", "111730.637500", "111732.127500", "111733.617500", "111735.107500", "111736.597500", "111738.087500", "111739.577500", "111741.067500", "111742.557500", "111744.047500", "111745.537500", "111747.027500", "111748.517500", "111750.007500", "111751.497500", "111752.987500", "111754.477500", "111755.967500", "111757.457500", "111758.947500", "111800.437500", "111801.927500", "111803.417500", "111804.907500", "111806.397500", "111807.887500", "111809.377500", "111810.867500", "111812.357500", "111813.847500", "111815.337500", "111816.827500", "111818.317500", "111819.807500", "111821.297500", "111822.787500", "111824.277500", "111825.767500", "111827.257500", "111828.747500", "111830.237500", "111831.727500", "111833.217500", "111834.707500", "111836.197500", "111837.687500", "111839.177500", "111840.667500", "111842.157500", "111843.647500", "111845.137500", "111846.627500", "111848.117500", "111849.607500", "111851.097500", "111852.587500", "111854.077500", "111855.567500", "111857.057500", "111858.547500", "111900.037500", "111901.527500", "111903.017500", "111904.507500", "111905.997500", "111907.487500", "111908.977500", "111910.467500", "111911.957500", "111913.447500", "111914.937500", "111916.427500", "111917.917500", "111919.407500", "111920.897500", "111922.387500", "111923.877500", "111925.367500", "111926.857500", "111928.347500", "111929.837500", "111931.327500", "111932.817500", "111934.307500", "111935.797500", "111937.287500", "111938.777500", "111940.267500", "111941.757500", "111943.247500", "111944.737500", "111946.227500", "111947.717500", "111949.207500", "111950.697500", "111952.187500", "111953.677500", "111955.167500", "111956.657500", "111958.147500", "111959.637500", "112001.127500", "112002.617500", "112004.107500", "112005.597500", "112007.087500", "112008.577500", "112010.067500", "112011.557500", "112013.047500", "112014.537500", "112016.027500", "112017.517500", "112019.007500", "112020.497500", "112021.987500", "112023.477500", "112024.967500", "112026.457500", "112027.947500", "112029.437500", "112030.927500", "112032.417500", "112033.907500", "112035.397500", "112036.887500", "112038.377500", "112039.867500", "112041.357500", "112042.847500", "112044.337500", "112045.827500", "112047.317500", "112048.807500", "112050.297500", "112051.787500", "112053.277500", "112054.767500", "112056.257500", "112057.747500", "112059.237500", "112100.727500", "112102.217500", "112103.707500", "112105.197500", "112106.687500", "112108.177500", "112109.667500", "112111.157500", "112112.647500", "112114.137500", "112115.627500", "112117.117500", "112118.607500", "112120.097500", "112121.587500", "112123.077500", "112124.567500", "112126.057500", "112127.547500", "112129.037500", "112130.527500", "112132.017500", "112133.507500", "112134.997500", "112136.487500", "112137.977500", "112139.467500", "112140.957500", "112142.447500", "112143.937500", "112145.427500", "112146.917500", "112148.407500", "112149.897500", "112151.387500", "112152.877500", "112154.367500", "112155.857500", "112157.347500", "112158.837500", "112200.327500", "112201.817500", "112203.307500", "112204.797500", "112206.287500", "112207.777500", "112209.267500", "112210.757500", "112212.247500", "112213.737500", "112215.227500", "112216.717500", "112218.207500", "112219.697500", "112221.187500", "112222.677500", "112224.167500", "112225.657500"],
      "ContentTime": ["111127.231000", "111127.239000", "111127.241000", "111127.245000", "111127.249000", "111127.251000", "111127.254000", "111127.257000", "111127.260000", "111127.263000", "111127.266000", "111127.269000", "111127.276000", "111127.279000", "111127.282000", "111127.285000", "111127.288000", "111127.291000", "111127.294000", "111127.297000", "111147.200000", "111147.203000", "111147.206000", "111147.209000", "111147.212000", "111147.215000", "111147.218000", "111147.221000", "111147.224000", "111147.227000", "111147.229000", "111147.232000", "111147.235000", "111147.239000", "111147.241000", "111147.244000", "111147.247000", "111147.250000", "111147.253000", "111147.256000", "111207.200000", "111207.203000", "111207.206000", "111207.208000", "111207.212000", "111207.224000", "111207.226000", "111207.229000", "111207.232000", "111207.235000", "111207.238000", "111207.241000", "111207.244000", "111207.247000", "111207.249000", "111207.252000", "111207.255000", "111207.258000", "111207.261000", "111207.264000", "111227.200000", "111227.203000", "111227.206000", "111227.209000", "111227.212000", "111227.215000", "111227.218000", "111227.221000", "111227.224000", "111227.226000", "111227.229000", "111227.232000", "111227.235000", "111227.238000", "111227.241000", "111227.243000", "111227.246000", "111227.249000", "111227.252000", "111227.255000", "111247.200000", "111247.203000", "111247.206000", "111247.209000", "111247.212000", "111247.215000", "111247.218000", "111247.221000", "111247.223000", "111247.226000", "111247.230000", "111247.233000", "111247.236000", "111247.239000", "111247.242000", "111247.246000", "111247.249000", "111247.252000", "111247.255000", "111247.258000", "111327.200000", "111327.203000", "111327.206000", "111327.209000", "111327.213000", "111327.216000", "111327.220000", "111327.223000", "111327.226000", "111327.229000", "111327.232000", "111327.235000", "111327.238000", "111327.241000", "111327.244000", "111327.247000", "111327.250000", "111327.253000", "111327.256000", "111327.259000", "111327.261000", "111327.264000", "111327.267000", "111327.270000", "111327.273000", "111327.276000", "111327.279000", "111327.282000", "111327.285000", "111407.200000", "111407.203000", "111407.206000", "111407.209000", "111407.212000", "111407.215000", "111407.218000", "111407.221000", "111407.224000", "111407.226000", "111407.229000", "111407.232000", "111407.235000", "111407.238000", "111407.241000", "111407.244000", "111407.247000", "111407.260000", "111407.263000", "111407.266000", "111407.269000", "111407.271000", "111407.274000", "111407.277000", "111407.280000", "111407.283000", "111407.286000", "111447.200000", "111447.203000", "111447.206000", "111447.209000", "111447.212000", "111447.215000", "111447.218000", "111447.221000", "111447.224000", "111447.226000", "111447.229000", "111447.232000", "111447.235000", "111447.238000", "111447.241000", "111447.250000", "111447.253000", "111447.256000", "111447.259000", "111447.262000", "111447.265000", "111447.268000", "111447.271000", "111447.274000", "111447.277000", "111447.279000", "111447.282000", "111527.200000", "111527.203000", "111527.206000", "111527.209000", "111527.212000", "111527.215000", "111527.218000", "111527.221000", "111527.224000", "111527.227000", "111527.230000", "111527.232000", "111527.235000", "111527.238000", "111527.241000", "111527.244000", "111527.247000", "111527.250000", "111527.253000", "111527.256000", "111527.259000", "111527.261000", "111527.264000", "111527.267000", "111527.270000", "111527.273000", "111527.276000", "111607.200000", "111607.203000", "111607.206000", "111607.209000", "111607.212000", "111607.215000", "111607.219000", "111607.222000", "111607.225000", "111607.228000", "111607.231000", "111607.234000", "111607.237000", "111607.240000", "111607.242000", "111607.245000", "111607.248000", "111607.251000", "111607.254000", "111607.257000", "111607.260000", "111607.269000", "111607.272000", "111607.275000", "111607.278000", "111607.281000", "111607.284000", "111647.199000", "111647.202000", "111647.205000", "111647.208000", "111647.211000", "111647.214000", "111647.217000", "111647.220000", "111647.223000", "111647.226000", "111647.229000", "111647.232000", "111647.235000", "111647.238000", "111647.241000", "111647.244000", "111647.247000", "111647.250000", "111647.253000", "111647.256000", "111647.259000", "111647.262000", "111647.264000", "111647.267000", "111647.270000", "111647.273000", "111647.276000", "111727.200000", "111727.203000", "111727.206000", "111727.209000", "111727.212000", "111727.215000", "111727.218000", "111727.221000", "111727.224000", "111727.227000", "111727.229000", "111727.232000", "111727.235000", "111727.238000", "111727.241000", "111727.244000", "111727.247000", "111727.250000", "111727.253000", "111727.256000", "111727.259000", "111727.262000", "111727.265000", "111727.268000", "111727.271000", "111727.274000", "111727.277000", "111807.200000", "111807.204000", "111807.208000", "111807.212000", "111807.216000", "111807.219000", "111807.222000", "111807.225000", "111807.228000", "111807.231000", "111807.234000", "111807.237000", "111807.240000", "111807.243000", "111807.245000", "111807.248000", "111807.251000", "111807.254000", "111807.257000", "111807.260000", "111807.264000", "111807.266000", "111807.269000", "111807.272000", "111807.275000", "111807.278000", "111827.200000", "111827.203000", "111827.206000", "111827.209000", "111827.212000", "111827.215000", "111827.218000", "111827.221000", "111827.224000", "111827.227000", "111827.230000", "111827.233000", "111827.236000", "111827.238000", "111907.199000", "111907.202000", "111907.205000", "111907.208000", "111907.211000", "111907.214000", "111907.217000", "111907.220000", "111907.223000", "111907.226000", "111907.229000", "111907.232000", "111907.235000", "111907.237000", "111907.241000", "111907.243000", "111907.246000", "111907.262000", "111907.265000", "111907.268000", "111907.271000", "111907.274000", "111907.277000", "111907.280000", "111907.282000", "111907.285000", "111907.288000", "111947.200000", "111947.203000", "111947.206000", "111947.209000", "111947.212000", "111947.215000", "111947.218000", "111947.221000", "111947.224000", "111947.227000", "111947.230000", "111947.232000", "111947.235000", "111947.238000", "111947.241000", "111947.244000", "111947.247000", "111947.250000", "111947.253000", "111947.256000", "111947.259000", "111947.262000", "111947.265000", "111947.268000", "111947.270000", "111947.273000", "111947.276000", "112027.200000", "112027.203000", "112027.206000", "112027.209000", "112027.212000", "112027.215000", "112027.218000", "112027.221000", "112027.224000", "112027.227000", "112027.230000", "112027.233000", "112027.236000", "112027.239000", "112027.242000", "112027.245000", "112027.248000", "112027.251000", "112027.254000", "112027.257000", "112027.259000", "112027.263000", "112027.267000", "112027.269000", "112027.272000", "112027.275000", "112107.199000", "112107.202000", "112107.205000", "112107.208000", "112107.211000", "112107.214000", "112107.217000", "112107.220000", "112107.223000", "112107.226000", "112107.229000", "112107.232000", "112107.235000", "112107.237000", "112107.241000", "112107.243000", "112107.246000", "112107.249000", "112107.252000", "112107.255000", "112107.258000", "112107.261000", "112107.264000", "112107.267000", "112107.270000", "112107.273000", "112107.276000", "112147.200000", "112147.203000", "112147.206000", "112147.209000", "112147.212000", "112147.215000", "112147.218000", "112147.221000", "112147.224000", "112147.227000", "112147.230000", "112147.233000", "112147.236000", "112147.239000", "112147.242000", "112147.244000", "112147.247000", "112147.250000", "112147.253000", "112147.256000", "112147.259000", "112147.262000", "112147.265000", "112147.268000", "112147.271000", "112147.274000", "112147.277000", "112227.200000", "112227.203000", "112227.206000", "112227.209000", "112227.212000", "112227.215000", "112227.218000", "112227.221000", "112227.224000", "112227.227000", "112227.230000", "112227.232000", "112227.235000", "112227.238000", "112227.241000", "112227.244000", "112227.247000", "112227.250000", "112227.253000", "112227.256000", "112227.259000", "112227.262000", "112227.265000", "112227.268000", "112227.271000", "112227.274000", "112227.276000", "112228.124000"],
