{
  "AcquisitionMatrixPE": 104,
  "AcquisitionNumber": 1,
  "AcquisitionTime": "10:02:17.142500",
  "BandwidthPerPixelPhaseEncode": 17.17,
  "BaseResolution": 104,
  "BodyPartExamined": "BRAIN",
  "CoilString": "HC1-7;NC1_2",
  "ConsistencyInfo": "N4_VE11C_LATEST_20160120",
  "ConversionSoftware": "dcm2niix",
  "ConversionSoftwareVersion": "v1.0.20190720  (JP2:OpenJPEG) GCC7.3.0",
  "DerivedVendorReportedEchoSpacing": 0.000560011,
  "DeviceSerialNumber": "167006",
  "DwellTime": 2.1e-06,
  "EchoTime": 0.037,
  "EchoTrainLength": 104,
  "EffectiveEchoSpacing": 0.000560011,
  "FlipAngle": 52,
  "ImageComments": "Unaliased_MB4_PE3_LB",
  "ImageOrientationPatientDICOM": [0.998374, -0.0181375, -0.0540417, 0.00836418, 0.98438, -0.175857],
  "ImageType": [
    "ORIGINAL",
    "PRIMARY",
    "M",
    "MB",
    "ND",
    "MOSAIC"
],
  "ImagingFrequency": 123.259,
  "InPlanePhaseEncodingDirectionDICOM": "COL",
  "InstitutionAddress": "Chemin_Queen-Mary_4565_Montreal_District_CA_H3W_1W5",
  "InstitutionName": "IUGM",
  "InstitutionalDepartmentName": "Department",
  "MRAcquisitionType": "2D",
  "MagneticFieldStrength": 3,
  "Manufacturer": "Siemens",
  "ManufacturersModelName": "Prisma_fit",
  "Modality": "MR",
  "MultibandAccelerationFactor": 4,
  "PartialFourier": 1,
  "PatientPosition": "HFS",
  "PercentPhaseFOV": 100,
  "PhaseEncodingDirection": "j",
  "PhaseEncodingSteps": 104,
  "PhaseResolution": 1,
  "PixelBandwidth": 2290,
  "ProcedureStepDescription": "video_friends",
  "ProtocolName": "func_task-friends-s01e16b",
  "PulseSequenceDetails": "%CustomerSeq%_cmrr_mbep2d_bold",
  "ReceiveCoilActiveElements": "HC1-7;NC1,2",
  "ReceiveCoilName": "HeadNeck_64",
  "ReconMatrixPE": 104,
  "RepetitionTime": 1.49,
  "SAR": 0.0341946,
  "ScanOptions": "FS",
  "ScanningSequence": "EP",
  "SequenceName": "epfid2d1_104",
  "SequenceVariant": "SK_SS",
  "SeriesDescription": "func_task-friends-s01e16b",
  "SeriesNumber": 11,
  "ShimSetting": [606, -7263, -8848, 555, -27, -373, 20, 37],
  "SliceThickness": 2,
  "SliceTiming": [0, 0.785, 0.0975, 0.8825, 0.195, 0.98, 0.295, 1.0775, 0.3925, 1.175, 0.49, 1.275, 0.5875, 1.3725, 0.685, 0, 0.785, 0.0975, 0.8825, 0.195, 0.98, 0.295, 1.0775, 0.3925, 1.175, 0.49, 1.275, 0.5875, 1.3725, 0.685, 0, 0.785, 0.0975, 0.8825, 0.195, 0.98, 0.295, 1.0775, 0.3925, 1.175, 0.49, 1.275, 0.5875, 1.3725, 0.685, 0, 0.785, 0.0975, 0.8825, 0.195, 0.98, 0.295, 1.0775, 0.3925, 1.175, 0.49, 1.275, 0.5875, 1.3725, 0.685],
  "SoftwareVersions": "syngo_MR_E11",
  "SpacingBetweenSlices": 2,
  "StationName": "MRC35049",
  "TaskName": "friends",
  "TotalReadoutTime": 0.0576811,
  "TxRefAmp": 218.996,
  "WipMemBlock": "09b138f1-beb9-4a04-a55c-eac669f4691e||Sequence: R016 ve11c/master r/e634e98; Dec 19 2017 11:00:25 by eja",
  "dcmmeta_affine": [
    [-1.9967478513717651, 0.016728367656469345, -0.1127743199467659, 99.57508850097656],
    [0.03627495467662811, 1.9687604904174805, -0.3502374291419983, -86.92195892333984],
    [-0.10808335989713669, 0.3517133593559265, 1.9658626317977905, -51.02448272705078],
    [0.0, 0.0, 0.0, 1.0]
],
  "dcmmeta_reorient_transform": [
    [0.0, -1.0, 0.0, 103.0],
    [1.0, 0.0, 0.0, 0.0],
    [0.0, 0.0, 1.0, 0.0],
    [0.0, 0.0, 0.0, 1.0]
],
  "dcmmeta_shape": [104, 104, 60, 483],
  "dcmmeta_slice_dim": 2,
  "dcmmeta_version": 0.6,
  "global": {
    "const": {
      "AcquisitionMatrix": [104, 0, 0, 104],
      "AngioFlag": "N",
      "BitsAllocated": 16,
      "BitsStored": 16,
      "BodyPartExamined": "BRAIN",
      "Columns": 832,
      "EchoNumbers": 1,
      "EchoTime": 37.0,
      "EchoTrainLength": 104,
      "FlipAngle": 52.0,
      "HighBit": 15,
      "ImageOrientationPatient": [0.99837394232696, -0.0181374767269, -0.0540416804006, 0.00836418409494, 0.98438024635701, -0.1758566774579],
      "ImagePositionPatient": [-834.20346748886, -819.28510955353, 152.56799813032],
      "ImageType": [
        "ORIGINAL",
        "PRIMARY",
        "M",
        "MB",
        "ND",
        "MOSAIC"
],
      "ImagedNucleus": "1H",
      "ImagingFrequency": 123.259117,
      "InPlanePhaseEncodingDirection": "COL",
      "MRAcquisitionType": "2D",
      "MagneticFieldStrength": 3.0,
      "Manufacturer": "SIEMENS",
      "ManufacturerModelName": "Prisma_fit",
      "Modality": "MR",
      "NumberOfAverages": 1.0,
      "NumberOfPhaseEncodingSteps": 104,
      "PercentPhaseFieldOfView": 100.0,
      "PercentSampling": 100.0,
      "PerformedProcedureStepStartTime": "092213.464000",
      "PhotometricInterpretation": "MONOCHROME2",
      "PixelBandwidth": 2290.0,
      "PixelRepresentation": 0,
      "PixelSpacing": [2.0, 2.0],
      "ProtocolName": "func_task-friends-s01e16b",
      "RepetitionTime": 1490.0,
      "Rows": 832,
      "SAR": 0.03419455279754,
      "SamplesPerPixel": 1,
      "ScanOptions": "FS",
      "ScanningSequence": "EP",
      "SequenceName": "epfid2d1_104",
      "SequenceVariant": [
        "SK",
        "SS"
],
      "SeriesDescription": "func_task-friends-s01e16b",
      "SeriesNumber": 11,
      "SeriesTime": "100343.078000",
      "SliceLocation": -40.546655353143,
      "SliceThickness": 2.0,
      "SmallestImagePixelValue": 0,
      "SoftwareVersions": "syngo MR E11",
      "SpacingBetweenSlices": 2.0000000132355,
      "SpecificCharacterSet": "ISO_IR 100",
      "StudyID": "1",
      "StudyTime": "092213.384000",
      "TransmitCoilName": "Body",
      "VariableFlipAngleFlag": "N",
      "WindowCenterWidthExplanation": "Algo1",
      "dBdt": 0.0},
    "slices": {}
  },
  "time": {
    "samples": {
      "AcquisitionNumber": [1, 2, 3, 4, 5, 6, 7, 8, 9, 10, 11, 12, 13, 14, 15, 16, 17, 18, 19, 20, 21, 22, 23, 24, 25, 26, 27, 28, 29, 30, 31, 32, 33, 34, 35, 36, 37, 38, 39, 40, 41, 42, 43, 44, 45, 46, 47, 48, 49, 50, 51, 52, 53, 54, 55, 56, 57, 58, 59, 60, 61, 62, 63, 64, 65, 66, 67, 68, 69, 70, 71, 72, 73, 74, 75, 76, 77, 78, 79, 80, 81, 82, 83, 84, 85, 86, 87, 88, 89, 90, 91, 92, 93, 94, 95, 96, 97, 98, 99, 100, 101, 102, 103, 104, 105, 106, 107, 108, 109, 110, 111, 112, 113, 114, 115, 116, 117, 118, 119, 120, 121, 122, 123, 124, 125, 126, 127, 128, 129, 130, 131, 132, 133, 134, 135, 136, 137, 138, 139, 140, 141, 142, 143, 144, 145, 146, 147, 148, 149, 150, 151, 152, 153, 154, 155, 156, 157, 158, 159, 160, 161, 162, 163, 164, 165, 166, 167, 168, 169, 170, 171, 172, 173, 174, 175, 176, 177, 178, 179, 180, 181, 182, 183, 184, 185, 186, 187, 188, 189, 190, 191, 192, 193, 194, 195, 196, 197, 198, 199, 200, 201, 202, 203, 204, 205, 206, 207, 208, 209, 210, 211, 212, 213, 214, 215, 216, 217, 218, 219, 220, 221, 222, 223, 224, 225, 226, 227, 228, 229, 230, 231, 232, 233, 234, 235, 236, 237, 238, 239, 240, 241, 242, 243, 244, 245, 246, 247, 248, 249, 250, 251, 252, 253, 254, 255, 256, 257, 258, 259, 260, 261, 262, 263, 264, 265, 266, 267, 268, 269, 270, 271, 272, 273, 274, 275, 276, 277, 278, 279, 280, 281, 282, 283, 284, 285, 286, 287, 288, 289, 290, 291, 292, 293, 294, 295, 296, 297, 298, 299, 300, 301, 302, 303, 304, 305, 306, 307, 308, 309, 310, 311, 312, 313, 314, 315, 316, 317, 318, 319, 320, 321, 322, 323, 324, 325, 326, 327, 328, 329, 330, 331, 332, 333, 334, 335, 336, 337, 338, 339, 340, 341, 342, 343, 344, 345, 346, 347, 348, 349, 350, 351, 352, 353, 354, 355, 356, 357, 358, 359, 360, 361, 362, 363, 364, 365, 366, 367, 368, 369, 370, 371, 372, 373, 374, 375, 376, 377, 378, 379, 380, 381, 382, 383, 384, 385, 386, 387, 388, 389, 390, 391, 392, 393, 394, 395, 396, 397, 398, 399, 400, 401, 402, 403, 404, 405, 406, 407, 408, 409, 410, 411, 412, 413, 414, 415, 416, 417, 418, 419, 420, 421, 422, 423, 424, 425, 426, 427, 428, 429, 430, 431, 432, 433, 434, 435, 436, 437, 438, 439, 440, 441, 442, 443, 444, 445, 446, 447, 448, 449, 450, 451, 452, 453, 454, 455, 456, 457, 458, 459, 460, 461, 462, 463, 464, 465, 466, 467, 468, 469, 470, 471, 472, 473, 474, 475, 476, 477, 478, 479, 480, 481, 482, 483],
      "AcquisitionTime": ["100217.142500", "100218.632500", "100220.122500", "100221.612500", "100223.102500", "100224.592500", "100226.082500", "100227.572500", "100229.062500", "100230.552500", "100232.042500", "100233.532500", "100235.022500", "100236.512500", "100238.002500", "100239.492500", "100240.982500", "100242.472500", "100243.962500", "100245.452500", "100246.942500", "100248.432500", "100249.922500", "100251.412500", "100252.902500", "100254.392500", "100255.882500", "100257.372500", "100258.862500", "100300.352500", "100301.842500", "100303.332500", "100304.822500", "100306.312500", "100307.802500", "100309.292500", "100310.782500", "100312.272500", "100313.762500", "100315.252500", "100316.742500", "100318.232500", "100319.722500", "100321.212500", "100322.702500", "100324.192500", "100325.682500", "100327.172500", "100328.662500", "100330.152500", "100331.642500", "100333.132500", "100334.622500", "100336.112500", "100337.602500", "100339.092500", "100340.582500", "100342.072500", "100343.562500", "100345.052500", "100346.542500", "100348.032500", "100349.522500", "100351.012500", "100352.502500", "100353.992500", "100355.482500", "100356.972500", "100358.462500", "100359.952500", "100401.442500", "100402.932500", "100404.422500", "100405.912500", "100407.402500", "100408.892500", "100410.382500", "100411.872500", "100413.362500", "100414.852500", "100416.342500", "100417.832500", "100419.322500", "100420.812500", "100422.302500", "100423.792500", "100425.282500", "100426.772500", "100428.262500", "100429.752500", "100431.242500", "100432.732500", "100434.222500", "100435.712500", "100437.202500", "100438.692500", "100440.182500", "100441.672500", "100443.162500", "100444.652500", "100446.142500", "100447.632500", "100449.122500", "100450.612500", "100452.102500", "100453.592500", "100455.082500", "100456.572500", "100458.062500", "100459.552500", "100501.042500", "100502.532500", "100504.022500", "100505.512500", "100507.002500", "100508.492500", "100509.982500", "100511.472500", "100512.962500", "100514.452500", "100515.942500", "100517.432500", "100518.922500", "100520.412500", "100521.902500", "100523.392500", "100524.882500", "100526.372500", "100527.862500", "100529.352500", "100530.842500", "100532.332500", "100533.822500", "100535.312500", "100536.802500", "100538.292500", "100539.782500", "100541.272500", "100542.762500", "100544.252500", "100545.742500", "100547.232500", "100548.722500", "100550.212500", "100551.702500", "100553.192500", "100554.682500", "100556.172500", "100557.662500", "100559.152500", "100600.642500", "100602.132500", "100603.622500", "100605.112500", "100606.602500", "100608.092500", "100609.582500", "100611.072500", "100612.562500", "100614.052500", "100615.542500", "100617.032500", "100618.522500", "100620.012500", "100621.502500", "100622.992500", "100624.482500", "100625.972500", "100627.462500", "100628.952500", "100630.442500", "100631.932500", "100633.422500", "100634.912500", "100636.402500", "100637.892500", "100639.382500", "100640.872500", "100642.362500", "100643.852500", "100645.342500", "100646.832500", "100648.322500", "100649.812500", "100651.302500", "100652.792500", "100654.282500", "100655.772500", "100657.262500", "100658.752500", "100700.242500", "100701.732500", "100703.222500", "100704.712500", "100706.202500", "100707.692500", "100709.182500", "100710.672500", "100712.162500", "100713.652500", "100715.142500", "100716.632500", "100718.122500", "100719.612500", "100721.102500", "100722.592500", "100724.082500", "100725.572500", "100727.062500", "100728.552500", "100730.042500", "100731.532500", "100733.022500", "100734.512500", "100736.002500", "100737.492500", "100738.982500", "100740.472500", "100741.962500", "100743.452500", "100744.942500", "100746.432500", "100747.922500", "100749.412500", "100750.902500", "100752.392500", "100753.882500", "100755.372500", "100756.862500", "100758.352500", "100759.842500", "100801.332500", "100802.822500", "100804.312500", "100805.802500", "100807.292500", "100808.782500", "100810.272500", "100811.762500", "100813.252500", "100814.742500", "100816.232500", "100817.722500", "100819.212500", "100820.702500", "100822.192500", "100823.682500", "100825.172500", "100826.662500", "100828.152500", "100829.642500", "100831.132500", "100832.622500", "100834.112500", "100835.602500", "100837.092500", "100838.582500", "100840.072500", "100841.562500", "100843.052500", "100844.542500", "100846.032500", "100847.522500", "100849.012500", "100850.502500", "100851.992500", "100853.482500", "100854.972500", "100856.462500", "100857.952500", "100859.442500", "100900.932500", "100902.422500", "100903.912500", "100905.402500", "100906.892500", "100908.382500", "100909.872500", "100911.362500", "100912.852500", "100914.342500", "100915.832500", "100917.322500", "100918.812500", "100920.302500", "100921.792500", "100923.282500", "100924.772500", "100926.262500", "100927.752500", "100929.242500", "100930.732500", "100932.222500", "100933.712500", "100935.202500", "100936.692500", "100938.182500", "100939.672500", "100941.162500", "100942.652500", "100944.142500", "100945.632500", "100947.122500", "100948.612500", "100950.102500", "100951.592500", "100953.082500", "100954.572500", "100956.062500", "100957.552500", "100959.042500", "101000.532500", "101002.022500", "101003.512500", "101005.002500", "101006.492500", "101007.982500", "101009.472500", "101010.962500", "101012.452500", "101013.942500", "101015.432500", "101016.922500", "101018.412500", "101019.902500", "101021.392500", "101022.882500", "101024.372500", "101025.862500", "101027.352500", "101028.842500", "101030.332500", "101031.822500", "101033.312500", "101034.802500", "101036.292500", "101037.782500", "101039.272500", "101040.762500", "101042.252500", "101043.742500", "101045.232500", "101046.722500", "101048.212500", "101049.702500", "101051.192500", "101052.682500", "101054.172500", "101055.662500", "101057.152500", "101058.642500", "101100.132500", "101101.622500", "101103.112500", "101104.602500", "101106.092500", "101107.582500", "101109.072500", "101110.562500", "101112.052500", "101113.542500", "101115.032500", "101116.522500", "101118.012500", "101119.502500", "101120.992500", "101122.482500", "101123.972500", "101125.462500", "101126.952500", "101128.442500", "101129.932500", "101131.422500", "101132.912500", "101134.402500", "101135.892500", "101137.382500", "101138.872500", "101140.362500", "101141.852500", "101143.342500", "101144.832500", "101146.322500", "101147.812500", "101149.302500", "101150.792500", "101152.282500", "101153.772500", "101155.262500", "101156.752500", "101158.242500", "101159.732500", "101201.222500", "101202.712500", "101204.202500", "101205.692500", "101207.182500", "101208.672500", "101210.162500", "101211.652500", "101213.142500", "101214.632500", "101216.122500", "101217.612500", "101219.102500", "101220.592500", "101222.082500", "101223.572500", "101225.062500", "101226.552500", "101228.042500", "101229.532500", "101231.022500", "101232.512500", "101234.002500", "101235.492500", "101236.982500", "101238.472500", "101239.962500", "101241.452500", "101242.942500", "101244.432500", "101245.922500", "101247.412500", "101248.902500", "101250.392500", "101251.882500", "101253.372500", "101254.862500", "101256.352500", "101257.842500", "101259.332500", "101300.822500", "101302.312500", "101303.802500", "101305.292500", "101306.782500", "101308.272500", "101309.762500", "101311.252500", "101312.742500", "101314.232500", "101315.722500", "101317.212500", "101318.702500", "101320.192500", "101321.682500", "101323.172500", "101324.662500", "101326.152500", "101327.642500", "101329.132500", "101330.622500", "101332.112500", "101333.602500", "101335.092500", "101336.582500", "101338.072500", "101339.562500", "101341.052500", "101342.542500", "101344.032500", "101345.522500", "101347.012500", "101348.502500", "101349.992500", "101351.482500", "101352.972500", "101354.462500", "101355.952500", "101357.442500", "101358.932500", "101400.422500", "101401.912500", "101403.402500", "101404.892500", "101406.382500", "101407.872500", "101409.362500", "101410.852500", "101412.342500", "101413.832500", "101415.322500"],
      "ContentTime": ["100343.080000", "100343.084000", "100343.087000", "100343.090000", "100343.093000", "100343.095000", "100343.098000", "100343.101000", "100343.104000", "100343.107000", "100343.182000", "100343.185000", "100343.188000", "100343.191000", "100343.194000", "100343.197000", "100343.200000", "100343.203000", "100343.206000", "100343.208000", "100343.211000", "100343.214000", "100343.217000", "100343.220000", "100343.223000", "100343.226000", "100343.229000", "100343.232000", "100343.235000", "100343.238000", "100343.241000", "100343.244000", "100343.247000", "100403.050000", "100403.053000", "100403.056000", "100403.059000", "100403.062000", "100403.064000", "100403.067000", "100403.070000", "100403.073000", "100403.076000", "100403.079000", "100403.082000", "100403.085000", "100403.088000", "100403.091000", "100403.094000", "100403.097000", "100403.099000", "100403.102000", "100403.105000", "100423.050000", "100423.060000", "100423.063000", "100423.066000", "100423.069000", "100423.072000", "100423.075000", "100423.077000", "100423.080000", "100423.083000", "100423.086000", "100423.089000", "100423.092000", "100423.095000", "100423.098000", "100423.100000", "100423.103000", "100423.106000", "100423.109000", "100423.112000", "100443.050000", "100443.053000", "100443.056000", "100443.059000", "100443.061000", "100443.064000", "100443.067000", "100443.070000", "100443.073000", "100443.076000", "100443.079000", "100443.091000", "100443.094000", "100443.097000", "100443.100000", "100443.103000", "100443.106000", "100443.109000", "100443.112000", "100443.115000", "100523.050000", "100523.054000", "100523.056000", "100523.059000", "100523.062000", "100523.065000", "100523.068000", "100523.071000", "100523.074000", "100523.077000", "100523.079000", "100523.082000", "100523.085000", "100523.088000", "100523.091000", "100523.094000", "100523.097000", "100523.100000", "100523.103000", "100523.105000", "100523.108000", "100523.111000", "100523.114000", "100523.117000", "100523.120000", "100523.123000", "100523.137000", "100523.140000", "100523.142000", "100523.145000", "100523.148000", "100603.050000", "100603.053000", "100603.056000", "100603.059000", "100603.062000", "100603.064000", "100603.067000", "100603.070000", "100603.073000", "100603.076000", "100603.079000", "100603.082000", "100603.085000", "100603.088000", "100603.091000", "100603.093000", "100603.096000", "100603.099000", "100603.102000", "100603.105000", "100603.108000", "100603.111000", "100603.114000", "100603.117000", "100603.120000", "100603.122000", "100603.125000", "100643.050000", "100643.053000", "100643.056000", "100643.059000", "100643.062000", "100643.065000", "100643.068000", "100643.071000", "100643.074000", "100643.077000", "100643.080000", "100643.082000", "100643.085000", "100643.088000", "100643.091000", "100643.094000", "100643.097000", "100643.100000", "100643.103000", "100643.106000", "100643.108000", "100643.111000", "100643.114000", "100643.117000", "100643.120000", "100643.129000", "100643.132000", "100723.051000", "100723.054000", "100723.057000", "100723.060000", "100723.063000", "100723.065000", "100723.068000", "100723.071000", "100723.074000", "100723.077000", "100723.080000", "100723.083000", "100723.086000", "100723.089000", "100723.092000", "100723.094000", "100723.097000", "100723.100000", "100723.103000", "100723.106000", "100723.109000", "100723.112000", "100723.115000", "100723.118000", "100723.121000", "100723.124000", "100723.126000", "100803.050000", "100803.053000", "100803.056000", "100803.059000", "100803.061000", "100803.064000", "100803.067000", "100803.070000", "100803.073000", "100803.076000", "100803.079000", "100803.082000", "100803.085000", "100803.088000", "100803.090000", "100803.093000", "100803.096000", "100803.099000", "100803.102000", "100803.105000", "100803.108000", "100803.111000", "100803.114000", "100803.117000", "100803.120000", "100803.123000", "100843.050000", "100843.053000", "100843.056000", "100843.059000", "100843.062000", "100843.065000", "100843.067000", "100843.070000", "100843.073000", "100843.076000", "100843.079000", "100843.082000", "100843.085000", "100843.088000", "100843.091000", "100843.094000", "100843.097000", "100843.099000", "100843.102000", "100843.105000", "100843.108000", "100843.119000", "100843.122000", "100843.125000", "100843.128000", "100843.131000", "100843.133000", "100923.050000", "100923.053000", "100923.056000", "100923.059000", "100923.062000", "100923.065000", "100923.067000", "100923.070000", "100923.073000", "100923.076000", "100923.079000", "100923.082000", "100923.085000", "100923.088000", "100923.091000", "100923.094000", "100923.096000", "100923.099000", "100923.102000", "100923.105000", "100923.108000", "100923.111000", "100923.114000", "100923.117000", "100923.120000", "100923.123000", "100923.126000", "101003.050000", "101003.053000", "101003.056000", "101003.059000", "101003.062000", "101003.065000", "101003.067000", "101003.070000", "101003.073000", "101003.076000", "101003.079000", "101003.082000", "101003.085000", "101003.088000", "101003.091000", "101003.094000", "101003.097000", "101003.100000", "101003.102000", "101003.105000", "101003.108000", "101003.111000", "101003.114000", "101003.117000", "101003.120000", "101003.123000", "101003.126000", "101043.050000", "101043.053000", "101043.056000", "101043.059000", "101043.062000", "101043.065000", "101043.067000", "101043.070000", "101043.073000", "101043.096000", "101043.099000", "101043.102000", "101043.105000", "101043.108000", "101043.111000", "101043.113000", "101043.116000", "101043.119000", "101043.122000", "101043.125000", "101043.138000", "101043.141000", "101043.143000", "101043.146000", "101043.149000", "101043.152000", "101043.155000", "101123.050000", "101123.053000", "101123.056000", "101123.059000", "101123.062000", "101123.065000", "101123.067000", "101123.070000", "101123.073000", "101123.076000", "101123.079000", "101123.082000", "101123.085000", "101123.088000", "101123.091000", "101123.094000", "101123.097000", "101123.100000", "101123.103000", "101123.105000", "101123.108000", "101123.111000", "101123.114000", "101123.117000", "101123.120000", "101123.123000", "101123.126000", "101143.050000", "101143.053000", "101143.056000", "101143.059000", "101143.062000", "101143.065000", "101143.068000", "101143.071000", "101143.073000", "101143.076000", "101143.079000", "101143.082000", "101143.085000", "101223.050000", "101223.053000", "101223.056000", "101223.059000", "101223.062000", "101223.065000", "101223.067000", "101223.070000", "101223.073000", "101223.076000", "101223.079000", "101223.082000", "101223.085000", "101223.088000", "101223.091000", "101223.094000", "101223.097000", "101223.100000", "101223.102000", "101223.105000", "101223.108000", "101223.111000", "101223.114000", "101223.117000", "101223.120000", "101223.123000", "101223.126000", "101303.050000", "101303.053000", "101303.056000", "101303.059000", "101303.062000", "101303.065000", "101303.068000", "101303.071000", "101303.073000", "101303.076000", "101303.079000", "101303.082000", "101303.085000", "101303.088000", "101303.091000", "101303.094000", "101303.097000", "101303.100000", "101303.102000", "101303.105000", "101303.108000", "101303.111000", "101303.114000", "101303.117000", "101303.120000", "101303.123000", "101303.126000", "101343.050000", "101343.053000", "101343.056000", "101343.059000", "101343.062000", "101343.065000", "101343.067000", "101343.070000", "101343.073000", "101343.076000", "101343.079000", "101343.082000", "101343.085000", "101343.088000", "101343.091000", "101343.094000", "101343.097000", "101343.099000", "101343.102000", "101343.105000", "101343.108000", "101343.111000", "101343.114000", "101343.117000", "101343.120000", "101343.123000", "101343.126000", "101417.091000", "101417.094000", "101417.097000", "101417.100000", "101417.103000", "101417.106000", "101417.109000", "101417.112000", "101417.115000", "101417.118000", "101417.121000", "101417.124000", "101417.127000", "101417.130000", "101417.133000", "101417.136000", "101417.139000", "101417.142000", "101417.145000", "101417.148000", "101417.151000", "101417.154000", "101417.157000"],
