{
  "AcquisitionMatrixPE": 104,
  "AcquisitionNumber": 1,
  "AcquisitionTime": "20:17:49.632500",
  "BandwidthPerPixelPhaseEncode": 17.17,
  "BaseResolution": 104,
  "BodyPartExamined": "BRAIN",
  "CoilString": "HC1-7;NC1_2",
  "ConsistencyInfo": "N4_VE11C_LATEST_20160120",
  "ConversionSoftware": "dcm2niix",
  "ConversionSoftwareVersion": "v1.0.20190720  (JP2:OpenJPEG) GCC7.3.0",
  "DerivedVendorReportedEchoSpacing": 0.000560011,
  "DeviceSerialNumber": "167006",
  "DwellTime": 2.1e-06,
  "EchoTime": 0.037,
  "EchoTrainLength": 104,
  "EffectiveEchoSpacing": 0.000560011,
  "FlipAngle": 52,
  "ImageComments": "Unaliased_MB4_PE3_LB",
  "ImageOrientationPatientDICOM": [0.999854, -0.0132422, -0.0107974, 0.00802746, 0.921917, -0.387304],
  "ImageType": [
    "ORIGINAL",
    "PRIMARY",
    "M",
    "MB",
    "ND",
    "MOSAIC"
],
  "ImagingFrequency": 123.259,
  "InPlanePhaseEncodingDirectionDICOM": "COL",
  "InstitutionAddress": "Chemin_Queen-Mary_4565_Montreal_District_CA_H3W_1W5",
  "InstitutionName": "IUGM",
  "InstitutionalDepartmentName": "Department",
  "MRAcquisitionType": "2D",
  "MagneticFieldStrength": 3,
  "Manufacturer": "Siemens",
  "ManufacturersModelName": "Prisma_fit",
  "Modality": "MR",
  "MultibandAccelerationFactor": 4,
  "PartialFourier": 1,
  "PatientPosition": "HFS",
  "PercentPhaseFOV": 100,
  "PhaseEncodingDirection": "j",
  "PhaseEncodingSteps": 104,
  "PhaseResolution": 1,
  "PixelBandwidth": 2290,
  "ProcedureStepDescription": "video_friends",
  "ProtocolName": "func_task-friends-s02e06b",
  "PulseSequenceDetails": "%CustomerSeq%_cmrr_mbep2d_bold",
  "ReceiveCoilActiveElements": "HC1-7;NC1,2",
  "ReceiveCoilName": "HeadNeck_64",
  "ReconMatrixPE": 104,
  "RepetitionTime": 1.49,
  "SAR": 0.0323607,
  "ScanOptions": "FS",
  "ScanningSequence": "EP",
  "SequenceName": "epfid2d1_104",
  "SequenceVariant": "SK_SS",
  "SeriesDescription": "func_task-friends-s02e06b",
  "SeriesNumber": 27,
  "ShimSetting": [610, -7261, -8853, 409, -8, -459, 4, 34],
  "SliceThickness": 2,
  "SliceTiming": [0, 0.7825, 0.0975, 0.8825, 0.195, 0.98, 0.2925, 1.0775, 0.3925, 1.175, 0.49, 1.2725, 0.5875, 1.3725, 0.685, 0, 0.7825, 0.0975, 0.8825, 0.195, 0.98, 0.2925, 1.0775, 0.3925, 1.175, 0.49, 1.2725, 0.5875, 1.3725, 0.685, 0, 0.7825, 0.0975, 0.8825, 0.195, 0.98, 0.2925, 1.0775, 0.3925, 1.175, 0.49, 1.2725, 0.5875, 1.3725, 0.685, 0, 0.7825, 0.0975, 0.8825, 0.195, 0.98, 0.2925, 1.0775, 0.3925, 1.175, 0.49, 1.2725, 0.5875, 1.3725, 0.685],
  "SoftwareVersions": "syngo_MR_E11",
  "SpacingBetweenSlices": 2,
  "StationName": "MRC35049",
  "TaskName": "friends",
  "TotalReadoutTime": 0.0576811,
  "TxRefAmp": 233.046,
  "WipMemBlock": "03f59ab6-cee1-411f-93ef-63919ad1fec7||Sequence: R016 ve11c/master r/e634e98; Dec 19 2017 11:00:25 by eja",
  "dcmmeta_affine": [
    [-1.9997080564498901, 0.0160549134016037, -0.0301661379635334, 99.83773040771484],
    [0.02648431621491909, 1.8438340425491333, -0.7743218541145325, -69.74796295166016],
    [-0.02159484289586544, 0.774608314037323, 1.8437775373458862, -76.148681640625],
    [0.0, 0.0, 0.0, 1.0]
],
  "dcmmeta_reorient_transform": [
    [0.0, -1.0, 0.0, 103.0],
    [1.0, 0.0, 0.0, 0.0],
    [0.0, 0.0, 1.0, 0.0],
    [0.0, 0.0, 0.0, 1.0]
],
  "dcmmeta_shape": [104, 104, 60, 500],
  "dcmmeta_slice_dim": 2,
  "dcmmeta_version": 0.6,
  "global": {
    "const": {
      "AcquisitionMatrix": [104, 0, 0, 104],
      "AngioFlag": "N",
      "BitsAllocated": 16,
      "BitsStored": 16,
      "BodyPartExamined": "BRAIN",
      "Columns": 832,
      "EchoNumbers": 1,
      "EchoTime": 37.0,
      "EchoTrainLength": 104,
      "FlipAngle": 52.0,
      "HighBit": 15,
      "ImageOrientationPatient": [0.99985401982113, -0.0132421578088, -0.0107974211779, 0.0080274567593, 0.92191704983191, -0.3873041610507],
      "ImagePositionPatient": [-835.22910305922, -781.6822669381, 293.45392629577],
      "ImageType": [
        "ORIGINAL",
        "PRIMARY",
        "M",
        "MB",
        "ND",
        "MOSAIC"
],
      "ImagedNucleus": "1H",
      "ImagingFrequency": 123.259139,
      "InPlanePhaseEncodingDirection": "COL",
      "MRAcquisitionType": "2D",
      "MagneticFieldStrength": 3.0,
      "Manufacturer": "SIEMENS",
      "ManufacturerModelName": "Prisma_fit",
      "Modality": "MR",
      "NumberOfAverages": 1.0,
      "NumberOfPhaseEncodingSteps": 104,
      "PercentPhaseFieldOfView": 100.0,
      "PercentSampling": 100.0,
      "PerformedProcedureStepStartTime": "180717.497000",
      "PhotometricInterpretation": "MONOCHROME2",
      "PixelBandwidth": 2290.0,
      "PixelRepresentation": 0,
      "PixelSpacing": [2.0, 2.0],
      "ProtocolName": "func_task-friends-s02e06b",
      "RepetitionTime": 1490.0,
      "Rows": 832,
      "SAR": 0.03236066605759,
      "SamplesPerPixel": 1,
      "ScanOptions": "FS",
      "ScanningSequence": "EP",
      "SequenceName": "epfid2d1_104",
      "SequenceVariant": [
        "SK",
        "SS"
],
      "SeriesDescription": "func_task-friends-s02e06b",
      "SeriesNumber": 27,
      "SeriesTime": "201915.016000",
      "SliceLocation": -44.702786039578,
      "SliceThickness": 2.0,
      "SmallestImagePixelValue": 0,
      "SoftwareVersions": "syngo MR E11",
      "SpacingBetweenSlices": 1.9999999463414,
      "SpecificCharacterSet": "ISO_IR 100",
      "StudyID": "1",
      "StudyTime": "180717.362000",
      "TransmitCoilName": "Body",
      "VariableFlipAngleFlag": "N",
      "WindowCenterWidthExplanation": "Algo1",
      "dBdt": 0.0},
    "slices": {}
  },
  "time": {
    "samples": {
      "AcquisitionNumber": [1, 2, 3, 4, 5, 6, 7, 8, 9, 10, 11, 12, 13, 14, 15, 16, 17, 18, 19, 20, 21, 22, 23, 24, 25, 26, 27, 28, 29, 30, 31, 32, 33, 34, 35, 36, 37, 38, 39, 40, 41, 42, 43, 44, 45, 46, 47, 48, 49, 50, 51, 52, 53, 54, 55, 56, 57, 58, 59, 60, 61, 62, 63, 64, 65, 66, 67, 68, 69, 70, 71, 72, 73, 74, 75, 76, 77, 78, 79, 80, 81, 82, 83, 84, 85, 86, 87, 88, 89, 90, 91, 92, 93, 94, 95, 96, 97, 98, 99, 100, 101, 102, 103, 104, 105, 106, 107, 108, 109, 110, 111, 112, 113, 114, 115, 116, 117, 118, 119, 120, 121, 122, 123, 124, 125, 126, 127, 128, 129, 130, 131, 132, 133, 134, 135, 136, 137, 138, 139, 140, 141, 142, 143, 144, 145, 146, 147, 148, 149, 150, 151, 152, 153, 154, 155, 156, 157, 158, 159, 160, 161, 162, 163, 164, 165, 166, 167, 168, 169, 170, 171, 172, 173, 174, 175, 176, 177, 178, 179, 180, 181, 182, 183, 184, 185, 186, 187, 188, 189, 190, 191, 192, 193, 194, 195, 196, 197, 198, 199, 200, 201, 202, 203, 204, 205, 206, 207, 208, 209, 210, 211, 212, 213, 214, 215, 216, 217, 218, 219, 220, 221, 222, 223, 224, 225, 226, 227, 228, 229, 230, 231, 232, 233, 234, 235, 236, 237, 238, 239, 240, 241, 242, 243, 244, 245, 246, 247, 248, 249, 250, 251, 252, 253, 254, 255, 256, 257, 258, 259, 260, 261, 262, 263, 264, 265, 266, 267, 268, 269, 270, 271, 272, 273, 274, 275, 276, 277, 278, 279, 280, 281, 282, 283, 284, 285, 286, 287, 288, 289, 290, 291, 292, 293, 294, 295, 296, 297, 298, 299, 300, 301, 302, 303, 304, 305, 306, 307, 308, 309, 310, 311, 312, 313, 314, 315, 316, 317, 318, 319, 320, 321, 322, 323, 324, 325, 326, 327, 328, 329, 330, 331, 332, 333, 334, 335, 336, 337, 338, 339, 340, 341, 342, 343, 344, 345, 346, 347, 348, 349, 350, 351, 352, 353, 354, 355, 356, 357, 358, 359, 360, 361, 362, 363, 364, 365, 366, 367, 368, 369, 370, 371, 372, 373, 374, 375, 376, 377, 378, 379, 380, 381, 382, 383, 384, 385, 386, 387, 388, 389, 390, 391, 392, 393, 394, 395, 396, 397, 398, 399, 400, 401, 402, 403, 404, 405, 406, 407, 408, 409, 410, 411, 412, 413, 414, 415, 416, 417, 418, 419, 420, 421, 422, 423, 424, 425, 426, 427, 428, 429, 430, 431, 432, 433, 434, 435, 436, 437, 438, 439, 440, 441, 442, 443, 444, 445, 446, 447, 448, 449, 450, 451, 452, 453, 454, 455, 456, 457, 458, 459, 460, 461, 462, 463, 464, 465, 466, 467, 468, 469, 470, 471, 472, 473, 474, 475, 476, 477, 478, 479, 480, 481, 482, 483, 484, 485, 486, 487, 488, 489, 490, 491, 492, 493, 494, 495, 496, 497, 498, 499, 500],
      "AcquisitionTime": ["201749.632500", "201751.122500", "201752.612500", "201754.102500", "201755.592500", "201757.082500", "201758.572500", "201800.062500", "201801.552500", "201803.042500", "201804.532500", "201806.022500", "201807.512500", "201809.002500", "201810.492500", "201811.982500", "201813.472500", "201814.962500", "201816.452500", "201817.942500", "201819.432500", "201820.922500", "201822.412500", "201823.902500", "201825.392500", "201826.882500", "201828.372500", "201829.862500", "201831.352500", "201832.842500", "201834.332500", "201835.822500", "201837.312500", "201838.802500", "201840.292500", "201841.782500", "201843.272500", "201844.762500", "201846.252500", "201847.742500", "201849.232500", "201850.722500", "201852.212500", "201853.702500", "201855.192500", "201856.682500", "201858.172500", "201859.662500", "201901.152500", "201902.642500", "201904.132500", "201905.622500", "201907.112500", "201908.602500", "201910.092500", "201911.582500", "201913.072500", "201914.562500", "201916.052500", "201917.542500", "201919.032500", "201920.522500", "201922.012500", "201923.502500", "201924.992500", "201926.482500", "201927.972500", "201929.462500", "201930.952500", "201932.442500", "201933.932500", "201935.422500", "201936.912500", "201938.402500", "201939.892500", "201941.382500", "201942.872500", "201944.362500", "201945.852500", "201947.342500", "201948.832500", "201950.322500", "201951.812500", "201953.302500", "201954.792500", "201956.282500", "201957.772500", "201959.262500", "202000.752500", "202002.242500", "202003.732500", "202005.222500", "202006.712500", "202008.202500", "202009.692500", "202011.182500", "202012.672500", "202014.162500", "202015.652500", "202017.142500", "202018.632500", "202020.122500", "202021.612500", "202023.102500", "202024.592500", "202026.082500", "202027.572500", "202029.062500", "202030.552500", "202032.042500", "202033.532500", "202035.022500", "202036.512500", "202038.002500", "202039.492500", "202040.982500", "202042.472500", "202043.962500", "202045.452500", "202046.942500", "202048.432500", "202049.922500", "202051.412500", "202052.902500", "202054.392500", "202055.882500", "202057.372500", "202058.862500", "202100.352500", "202101.842500", "202103.332500", "202104.822500", "202106.312500", "202107.802500", "202109.292500", "202110.782500", "202112.272500", "202113.762500", "202115.252500", "202116.742500", "202118.232500", "202119.722500", "202121.212500", "202122.702500", "202124.192500", "202125.682500", "202127.172500", "202128.662500", "202130.152500", "202131.642500", "202133.132500", "202134.622500", "202136.112500", "202137.602500", "202139.092500", "202140.582500", "202142.072500", "202143.562500", "202145.052500", "202146.542500", "202148.032500", "202149.522500", "202151.012500", "202152.502500", "202153.992500", "202155.482500", "202156.972500", "202158.462500", "202159.952500", "202201.442500", "202202.932500", "202204.422500", "202205.912500", "202207.402500", "202208.892500", "202210.382500", "202211.872500", "202213.362500", "202214.852500", "202216.342500", "202217.832500", "202219.322500", "202220.812500", "202222.302500", "202223.792500", "202225.282500", "202226.772500", "202228.262500", "202229.752500", "202231.242500", "202232.732500", "202234.222500", "202235.712500", "202237.202500", "202238.692500", "202240.182500", "202241.672500", "202243.162500", "202244.652500", "202246.142500", "202247.632500", "202249.122500", "202250.612500", "202252.102500", "202253.592500", "202255.082500", "202256.572500", "202258.062500", "202259.552500", "202301.042500", "202302.532500", "202304.022500", "202305.512500", "202307.002500", "202308.492500", "202309.982500", "202311.472500", "202312.962500", "202314.452500", "202315.942500", "202317.432500", "202318.922500", "202320.412500", "202321.902500", "202323.392500", "202324.882500", "202326.372500", "202327.862500", "202329.352500", "202330.842500", "202332.332500", "202333.822500", "202335.312500", "202336.802500", "202338.292500", "202339.782500", "202341.272500", "202342.762500", "202344.252500", "202345.742500", "202347.232500", "202348.722500", "202350.212500", "202351.702500", "202353.192500", "202354.682500", "202356.172500", "202357.662500", "202359.152500", "202400.642500", "202402.132500", "202403.622500", "202405.112500", "202406.602500", "202408.092500", "202409.582500", "202411.072500", "202412.562500", "202414.052500", "202415.542500", "202417.032500", "202418.522500", "202420.012500", "202421.502500", "202422.992500", "202424.482500", "202425.972500", "202427.462500", "202428.952500", "202430.442500", "202431.932500", "202433.422500", "202434.912500", "202436.402500", "202437.892500", "202439.382500", "202440.872500", "202442.362500", "202443.852500", "202445.342500", "202446.832500", "202448.322500", "202449.812500", "202451.302500", "202452.792500", "202454.282500", "202455.772500", "202457.262500", "202458.752500", "202500.242500", "202501.732500", "202503.222500", "202504.712500", "202506.202500", "202507.692500", "202509.182500", "202510.672500", "202512.162500", "202513.652500", "202515.142500", "202516.632500", "202518.122500", "202519.612500", "202521.102500", "202522.592500", "202524.082500", "202525.572500", "202527.062500", "202528.552500", "202530.042500", "202531.532500", "202533.022500", "202534.512500", "202536.002500", "202537.492500", "202538.982500", "202540.472500", "202541.962500", "202543.452500", "202544.942500", "202546.432500", "202547.922500", "202549.412500", "202550.902500", "202552.392500", "202553.882500", "202555.372500", "202556.862500", "202558.352500", "202559.842500", "202601.332500", "202602.822500", "202604.312500", "202605.802500", "202607.292500", "202608.782500", "202610.272500", "202611.762500", "202613.252500", "202614.742500", "202616.232500", "202617.722500", "202619.212500", "202620.702500", "202622.192500", "202623.682500", "202625.172500", "202626.662500", "202628.152500", "202629.642500", "202631.132500", "202632.622500", "202634.112500", "202635.602500", "202637.092500", "202638.582500", "202640.072500", "202641.562500", "202643.052500", "202644.542500", "202646.032500", "202647.522500", "202649.012500", "202650.502500", "202651.992500", "202653.482500", "202654.972500", "202656.462500", "202657.952500", "202659.442500", "202700.932500", "202702.422500", "202703.912500", "202705.402500", "202706.892500", "202708.382500", "202709.872500", "202711.362500", "202712.852500", "202714.342500", "202715.832500", "202717.322500", "202718.812500", "202720.302500", "202721.792500", "202723.282500", "202724.772500", "202726.262500", "202727.752500", "202729.242500", "202730.732500", "202732.222500", "202733.712500", "202735.202500", "202736.692500", "202738.182500", "202739.672500", "202741.162500", "202742.652500", "202744.142500", "202745.632500", "202747.122500", "202748.612500", "202750.102500", "202751.592500", "202753.082500", "202754.572500", "202756.062500", "202757.552500", "202759.042500", "202800.532500", "202802.022500", "202803.512500", "202805.002500", "202806.492500", "202807.982500", "202809.472500", "202810.962500", "202812.452500", "202813.942500", "202815.432500", "202816.922500", "202818.412500", "202819.902500", "202821.392500", "202822.882500", "202824.372500", "202825.862500", "202827.352500", "202828.842500", "202830.332500", "202831.822500", "202833.312500", "202834.802500", "202836.292500", "202837.782500", "202839.272500", "202840.762500", "202842.252500", "202843.742500", "202845.232500", "202846.722500", "202848.212500", "202849.702500", "202851.192500", "202852.682500", "202854.172500", "202855.662500", "202857.152500", "202858.642500", "202900.132500", "202901.622500", "202903.112500", "202904.602500", "202906.092500", "202907.582500", "202909.072500", "202910.562500", "202912.052500", "202913.542500", "202915.032500", "202916.522500", "202918.012500", "202919.502500", "202920.992500", "202922.482500", "202923.972500", "202925.462500", "202926.952500", "202928.442500", "202929.932500", "202931.422500", "202932.912500", "202934.402500", "202935.892500", "202937.382500", "202938.872500", "202940.362500", "202941.852500", "202943.342500", "202944.832500", "202946.322500", "202947.812500", "202949.302500", "202950.792500", "202952.282500", "202953.772500", "202955.262500", "202956.752500", "202958.242500", "202959.732500", "203001.222500", "203002.712500", "203004.202500", "203005.692500", "203007.182500", "203008.672500", "203010.162500", "203011.652500", "203013.142500"],
      "ContentTime": ["201915.019000", "201915.022000", "201915.025000", "201915.028000", "201915.031000", "201915.034000", "201915.037000", "201915.040000", "201915.043000", "201915.046000", "201915.048000", "201915.051000", "201915.054000", "201915.057000", "201915.060000", "201915.063000", "201915.066000", "201915.069000", "201915.072000", "201915.075000", "201915.080000", "201915.083000", "201915.086000", "201915.089000", "201915.092000", "201915.095000", "201915.098000", "201915.101000", "201915.103000", "201915.106000", "201915.109000", "201934.982000", "201934.985000", "201934.988000", "201934.991000", "201934.994000", "201934.996000", "201935.000000", "201935.003000", "201935.006000", "201935.009000", "201935.012000", "201935.015000", "201935.018000", "201935.021000", "201935.024000", "201935.026000", "201935.029000", "201935.032000", "201935.035000", "201935.038000", "201954.981000", "201954.997000", "201955.007000", "201955.010000", "201955.013000", "201955.016000", "201955.019000", "201955.022000", "201955.025000", "201955.028000", "201955.030000", "201955.033000", "201955.036000", "201955.039000", "201955.042000", "201955.045000", "201955.048000", "201955.051000", "201955.054000", "201955.057000", "202014.981000", "202014.984000", "202014.987000", "202014.990000", "202014.993000", "202014.996000", "202015.000000", "202015.002000", "202015.005000", "202015.008000", "202015.011000", "202015.014000", "202015.017000", "202015.020000", "202015.023000", "202015.026000", "202015.029000", "202015.031000", "202015.034000", "202015.037000", "202054.981000", "202054.984000", "202054.987000", "202054.990000", "202054.993000", "202054.996000", "202055.000000", "202055.007000", "202055.010000", "202055.013000", "202055.016000", "202055.024000", "202055.027000", "202055.030000", "202055.033000", "202055.036000", "202055.039000", "202055.042000", "202055.045000", "202055.048000", "202055.051000", "202055.053000", "202055.056000", "202055.059000", "202055.062000", "202055.065000", "202055.068000", "202055.071000", "202055.074000", "202055.077000", "202055.080000", "202055.083000", "202055.086000", "202134.982000", "202134.985000", "202134.988000", "202134.991000", "202134.994000", "202134.997000", "202135.001000", "202135.004000", "202135.007000", "202135.010000", "202135.013000", "202135.016000", "202135.019000", "202135.022000", "202135.025000", "202135.028000", "202135.031000", "202135.034000", "202135.037000", "202135.040000", "202135.043000", "202135.047000", "202135.050000", "202135.053000", "202135.056000", "202135.059000", "202214.981000", "202214.984000", "202214.987000", "202214.990000", "202214.993000", "202214.996000", "202215.000000", "202215.003000", "202215.006000", "202215.009000", "202215.012000", "202215.023000", "202215.026000", "202215.029000", "202215.032000", "202215.035000", "202215.038000", "202215.041000", "202215.044000", "202215.047000", "202215.050000", "202215.053000", "202215.055000", "202215.058000", "202215.061000", "202215.064000", "202215.067000", "202254.981000", "202254.984000", "202254.987000", "202254.990000", "202254.993000", "202254.996000", "202255.000000", "202255.003000", "202255.006000", "202255.008000", "202255.012000", "202255.014000", "202255.017000", "202255.020000", "202255.023000", "202255.026000", "202255.029000", "202255.032000", "202255.035000", "202255.038000", "202255.041000", "202255.044000", "202255.046000", "202255.049000", "202255.052000", "202255.055000", "202255.058000", "202334.981000", "202334.984000", "202334.987000", "202334.990000", "202334.993000", "202334.996000", "202335.000000", "202335.003000", "202335.006000", "202335.009000", "202335.012000", "202335.014000", "202335.017000", "202335.020000", "202335.023000", "202335.026000", "202335.029000", "202335.032000", "202335.035000", "202335.038000", "202335.041000", "202335.044000", "202335.046000", "202335.049000", "202335.052000", "202335.055000", "202335.058000", "202414.982000", "202414.985000", "202414.988000", "202414.991000", "202414.994000", "202414.997000", "202415.001000", "202415.004000", "202415.007000", "202415.010000", "202415.013000", "202415.016000", "202415.018000", "202415.021000", "202415.024000", "202415.027000", "202415.030000", "202415.033000", "202415.036000", "202415.039000", "202415.042000", "202415.045000", "202415.048000", "202415.061000", "202415.064000", "202415.067000", "202415.070000", "202454.981000", "202454.984000", "202454.987000", "202454.990000", "202454.993000", "202454.996000", "202455.000000", "202455.003000", "202455.006000", "202455.009000", "202455.012000", "202455.015000", "202455.018000", "202455.021000", "202455.023000", "202455.026000", "202455.029000", "202455.032000", "202455.035000", "202455.038000", "202455.041000", "202455.044000", "202455.047000", "202455.050000", "202455.053000", "202455.056000", "202455.059000", "202534.981000", "202534.984000", "202534.987000", "202534.990000", "202534.993000", "202534.996000", "202535.000000", "202535.003000", "202535.006000", "202535.009000", "202535.012000", "202535.014000", "202535.017000", "202535.020000", "202535.023000", "202535.026000", "202535.029000", "202535.032000", "202535.035000", "202535.038000", "202535.041000", "202535.044000", "202535.047000", "202535.050000", "202535.052000", "202535.055000", "202535.058000", "202554.981000", "202554.984000", "202554.987000", "202554.990000", "202554.993000", "202554.996000", "202555.000000", "202555.003000", "202555.006000", "202555.009000", "202555.012000", "202555.015000", "202555.018000", "202634.982000", "202634.985000", "202634.988000", "202634.991000", "202634.994000", "202634.997000", "202635.001000", "202635.004000", "202635.007000", "202635.010000", "202635.013000", "202635.016000", "202635.019000", "202635.021000", "202635.024000", "202635.027000", "202635.030000", "202635.033000", "202635.036000", "202635.039000", "202635.042000", "202635.045000", "202635.048000", "202635.051000", "202635.054000", "202635.057000", "202635.060000", "202714.981000", "202714.984000", "202714.987000", "202714.990000", "202714.993000", "202714.996000", "202715.000000", "202715.003000", "202715.006000", "202715.009000", "202715.012000", "202715.015000", "202715.018000", "202715.021000", "202715.024000", "202715.026000", "202715.029000", "202715.032000", "202715.035000", "202715.038000", "202715.041000", "202715.044000", "202715.047000", "202715.050000", "202715.053000", "202715.056000", "202715.059000", "202754.981000", "202754.985000", "202754.988000", "202754.991000", "202754.994000", "202754.997000", "202755.001000", "202755.004000", "202755.007000", "202755.010000", "202755.013000", "202755.016000", "202755.019000", "202755.022000", "202755.024000", "202755.027000", "202755.030000", "202755.033000", "202755.036000", "202755.039000", "202755.042000", "202755.045000", "202755.048000", "202755.058000", "202755.061000", "202755.064000", "202834.982000", "202834.985000", "202834.988000", "202834.991000", "202834.994000", "202834.997000", "202835.001000", "202835.004000", "202835.007000", "202835.010000", "202835.013000", "202835.016000", "202835.018000", "202835.021000", "202835.024000", "202835.027000", "202835.030000", "202835.033000", "202835.036000", "202835.039000", "202835.042000", "202835.045000", "202835.048000", "202835.050000", "202835.070000", "202835.073000", "202835.076000", "202914.981000", "202914.984000", "202914.987000", "202914.990000", "202914.993000", "202914.996000", "202915.000000", "202915.003000", "202915.006000", "202915.009000", "202915.012000", "202915.014000", "202915.017000", "202915.020000", "202915.023000", "202915.026000", "202915.029000", "202915.032000", "202915.035000", "202915.038000", "202915.041000", "202915.044000", "202915.047000", "202915.050000", "202915.053000", "202915.055000", "202915.058000", "202954.981000", "202954.984000", "202954.987000", "202954.990000", "202954.993000", "202954.996000", "202955.000000", "202955.003000", "202955.006000", "202955.009000", "202955.012000", "202955.015000", "202955.018000", "202955.021000", "202955.024000", "202955.027000", "202955.030000", "202955.033000", "202955.036000", "202955.039000", "202955.042000", "202955.045000", "202955.048000", "202955.051000", "202955.055000", "202955.058000", "202955.061000", "203015.089000", "203015.092000", "203015.095000", "203015.098000", "203015.101000", "203015.104000", "203015.106000", "203015.109000", "203015.112000", "203015.115000", "203015.118000", "203015.121000", "203015.124000", "203015.127000"],
