{
  "AcquisitionMatrixPE": 104,
  "AcquisitionNumber": 1,
  "AcquisitionTime": "19:17:52.937500",
  "BandwidthPerPixelPhaseEncode": 17.17,
  "BaseResolution": 104,
  "BodyPartExamined": "BRAIN",
  "CoilString": "HC1-7;NC1_2",
  "ConsistencyInfo": "N4_VE11C_LATEST_20160120",
  "ConversionSoftware": "dcm2niix",
  "ConversionSoftwareVersion": "v1.0.20190720  (JP2:OpenJPEG) GCC7.3.0",
  "DerivedVendorReportedEchoSpacing": 0.000560011,
  "DeviceSerialNumber": "167006",
  "DwellTime": 2.1e-06,
  "EchoTime": 0.037,
  "EchoTrainLength": 104,
  "EffectiveEchoSpacing": 0.000560011,
  "FlipAngle": 52,
  "ImageComments": "Unaliased_MB4_PE3_LB",
  "ImageOrientationPatientDICOM": [0.999854, -0.0132422, -0.0107974, 0.00802746, 0.921917, -0.387304],
  "ImageType": [
    "ORIGINAL",
    "PRIMARY",
    "M",
    "MB",
    "ND",
    "MOSAIC"
],
  "ImagingFrequency": 123.259,
  "InPlanePhaseEncodingDirectionDICOM": "COL",
  "InstitutionAddress": "Chemin_Queen-Mary_4565_Montreal_District_CA_H3W_1W5",
  "InstitutionName": "IUGM",
  "InstitutionalDepartmentName": "Department",
  "MRAcquisitionType": "2D",
  "MagneticFieldStrength": 3,
  "Manufacturer": "Siemens",
  "ManufacturersModelName": "Prisma_fit",
  "Modality": "MR",
  "MultibandAccelerationFactor": 4,
  "PartialFourier": 1,
  "PatientPosition": "HFS",
  "PercentPhaseFOV": 100,
  "PhaseEncodingDirection": "j",
  "PhaseEncodingSteps": 104,
  "PhaseResolution": 1,
  "PixelBandwidth": 2290,
  "ProcedureStepDescription": "video_friends",
  "ProtocolName": "func_task-friends-s02e04a",
  "PulseSequenceDetails": "%CustomerSeq%_cmrr_mbep2d_bold",
  "ReceiveCoilActiveElements": "HC1-7;NC1,2",
  "ReceiveCoilName": "HeadNeck_64",
  "ReconMatrixPE": 104,
  "RepetitionTime": 1.49,
  "SAR": 0.0323477,
  "ScanOptions": "FS",
  "ScanningSequence": "EP",
  "SequenceName": "epfid2d1_104",
  "SequenceVariant": "SK_SS",
  "SeriesDescription": "func_task-friends-s02e04a",
  "SeriesNumber": 17,
  "ShimSetting": [610, -7261, -8853, 409, -8, -459, 4, 34],
  "SliceThickness": 2,
  "SliceTiming": [0, 0.7825, 0.0975, 0.88, 0.195, 0.98, 0.2925, 1.0775, 0.39, 1.175, 0.49, 1.2725, 0.5875, 1.37, 0.685, 0, 0.7825, 0.0975, 0.88, 0.195, 0.98, 0.2925, 1.0775, 0.39, 1.175, 0.49, 1.2725, 0.5875, 1.37, 0.685, 0, 0.7825, 0.0975, 0.88, 0.195, 0.98, 0.2925, 1.0775, 0.39, 1.175, 0.49, 1.2725, 0.5875, 1.37, 0.685, 0, 0.7825, 0.0975, 0.88, 0.195, 0.98, 0.2925, 1.0775, 0.39, 1.175, 0.49, 1.2725, 0.5875, 1.37, 0.685],
  "SoftwareVersions": "syngo_MR_E11",
  "SpacingBetweenSlices": 2,
  "StationName": "MRC35049",
  "TaskName": "friends",
  "TotalReadoutTime": 0.0576811,
  "TxRefAmp": 233.046,
  "WipMemBlock": "8534dd33-cba2-447c-8470-8ba2b53c9003||Sequence: R016 ve11c/master r/e634e98; Dec 19 2017 11:00:25 by eja",
  "dcmmeta_affine": [
    [-1.9997080564498901, 0.0160549134016037, -0.0301661379635334, 99.83773040771484],
    [0.02648431621491909, 1.8438340425491333, -0.7743218541145325, -69.74796295166016],
    [-0.02159484289586544, 0.774608314037323, 1.8437775373458862, -76.148681640625],
    [0.0, 0.0, 0.0, 1.0]
],
  "dcmmeta_reorient_transform": [
    [0.0, -1.0, 0.0, 103.0],
    [1.0, 0.0, 0.0, 0.0],
    [0.0, 0.0, 1.0, 0.0],
    [0.0, 0.0, 0.0, 1.0]
],
  "dcmmeta_shape": [104, 104, 60, 454],
  "dcmmeta_slice_dim": 2,
  "dcmmeta_version": 0.6,
  "global": {
    "const": {
      "AcquisitionMatrix": [104, 0, 0, 104],
      "AngioFlag": "N",
      "BitsAllocated": 16,
      "BitsStored": 16,
      "BodyPartExamined": "BRAIN",
      "Columns": 832,
      "EchoNumbers": 1,
      "EchoTime": 37.0,
      "EchoTrainLength": 104,
      "FlipAngle": 52.0,
      "HighBit": 15,
      "ImageOrientationPatient": [0.99985401982113, -0.0132421578088, -0.0107974211779, 0.0080274567593, 0.92191704983191, -0.3873041610507],
      "ImagePositionPatient": [-835.22910305922, -781.6822669381, 293.45392629577],
      "ImageType": [
        "ORIGINAL",
        "PRIMARY",
        "M",
        "MB",
        "ND",
        "MOSAIC"
],
      "ImagedNucleus": "1H",
      "ImagingFrequency": 123.259128,
      "InPlanePhaseEncodingDirection": "COL",
      "MRAcquisitionType": "2D",
      "MagneticFieldStrength": 3.0,
      "Manufacturer": "SIEMENS",
      "ManufacturerModelName": "Prisma_fit",
      "Modality": "MR",
      "NumberOfAverages": 1.0,
      "NumberOfPhaseEncodingSteps": 104,
      "PercentPhaseFieldOfView": 100.0,
      "PercentSampling": 100.0,
      "PerformedProcedureStepStartTime": "180717.497000",
      "PhotometricInterpretation": "MONOCHROME2",
      "PixelBandwidth": 2290.0,
      "PixelRepresentation": 0,
      "PixelSpacing": [2.0, 2.0],
      "ProtocolName": "func_task-friends-s02e04a",
      "RepetitionTime": 1490.0,
      "Rows": 832,
      "SAR": 0.03234771135809,
      "SamplesPerPixel": 1,
      "ScanOptions": "FS",
      "ScanningSequence": "EP",
      "SequenceName": "epfid2d1_104",
      "SequenceVariant": [
        "SK",
        "SS"
],
      "SeriesDescription": "func_task-friends-s02e04a",
      "SeriesNumber": 17,
      "SeriesTime": "191911.256000",
      "SliceLocation": -44.702786039578,
      "SliceThickness": 2.0,
      "SmallestImagePixelValue": 0,
      "SoftwareVersions": "syngo MR E11",
      "SpacingBetweenSlices": 1.9999999463414,
      "SpecificCharacterSet": "ISO_IR 100",
      "StudyID": "1",
      "StudyTime": "180717.362000",
      "TransmitCoilName": "Body",
      "VariableFlipAngleFlag": "N",
      "WindowCenterWidthExplanation": "Algo1",
      "dBdt": 0.0},
    "slices": {}
  },
  "time": {
    "samples": {
      "AcquisitionNumber": [1, 2, 3, 4, 5, 6, 7, 8, 9, 10, 11, 12, 13, 14, 15, 16, 17, 18, 19, 20, 21, 22, 23, 24, 25, 26, 27, 28, 29, 30, 31, 32, 33, 34, 35, 36, 37, 38, 39, 40, 41, 42, 43, 44, 45, 46, 47, 48, 49, 50, 51, 52, 53, 54, 55, 56, 57, 58, 59, 60, 61, 62, 63, 64, 65, 66, 67, 68, 69, 70, 71, 72, 73, 74, 75, 76, 77, 78, 79, 80, 81, 82, 83, 84, 85, 86, 87, 88, 89, 90, 91, 92, 93, 94, 95, 96, 97, 98, 99, 100, 101, 102, 103, 104, 105, 106, 107, 108, 109, 110, 111, 112, 113, 114, 115, 116, 117, 118, 119, 120, 121, 122, 123, 124, 125, 126, 127, 128, 129, 130, 131, 132, 133, 134, 135, 136, 137, 138, 139, 140, 141, 142, 143, 144, 145, 146, 147, 148, 149, 150, 151, 152, 153, 154, 155, 156, 157, 158, 159, 160, 161, 162, 163, 164, 165, 166, 167, 168, 169, 170, 171, 172, 173, 174, 175, 176, 177, 178, 179, 180, 181, 182, 183, 184, 185, 186, 187, 188, 189, 190, 191, 192, 193, 194, 195, 196, 197, 198, 199, 200, 201, 202, 203, 204, 205, 206, 207, 208, 209, 210, 211, 212, 213, 214, 215, 216, 217, 218, 219, 220, 221, 222, 223, 224, 225, 226, 227, 228, 229, 230, 231, 232, 233, 234, 235, 236, 237, 238, 239, 240, 241, 242, 243, 244, 245, 246, 247, 248, 249, 250, 251, 252, 253, 254, 255, 256, 257, 258, 259, 260, 261, 262, 263, 264, 265, 266, 267, 268, 269, 270, 271, 272, 273, 274, 275, 276, 277, 278, 279, 280, 281, 282, 283, 284, 285, 286, 287, 288, 289, 290, 291, 292, 293, 294, 295, 296, 297, 298, 299, 300, 301, 302, 303, 304, 305, 306, 307, 308, 309, 310, 311, 312, 313, 314, 315, 316, 317, 318, 319, 320, 321, 322, 323, 324, 325, 326, 327, 328, 329, 330, 331, 332, 333, 334, 335, 336, 337, 338, 339, 340, 341, 342, 343, 344, 345, 346, 347, 348, 349, 350, 351, 352, 353, 354, 355, 356, 357, 358, 359, 360, 361, 362, 363, 364, 365, 366, 367, 368, 369, 370, 371, 372, 373, 374, 375, 376, 377, 378, 379, 380, 381, 382, 383, 384, 385, 386, 387, 388, 389, 390, 391, 392, 393, 394, 395, 396, 397, 398, 399, 400, 401, 402, 403, 404, 405, 406, 407, 408, 409, 410, 411, 412, 413, 414, 415, 416, 417, 418, 419, 420, 421, 422, 423, 424, 425, 426, 427, 428, 429, 430, 431, 432, 433, 434, 435, 436, 437, 438, 439, 440, 441, 442, 443, 444, 445, 446, 447, 448, 449, 450, 451, 452, 453, 454],
      "AcquisitionTime": ["191752.937500", "191754.427500", "191755.917500", "191757.407500", "191758.897500", "191800.387500", "191801.877500", "191803.367500", "191804.857500", "191806.347500", "191807.837500", "191809.327500", "191810.817500", "191812.307500", "191813.797500", "191815.287500", "191816.777500", "191818.267500", "191819.757500", "191821.247500", "191822.737500", "191824.227500", "191825.717500", "191827.207500", "191828.697500", "191830.187500", "191831.677500", "191833.167500", "191834.657500", "191836.147500", "191837.637500", "191839.127500", "191840.617500", "191842.107500", "191843.597500", "191845.087500", "191846.577500", "191848.067500", "191849.557500", "191851.047500", "191852.537500", "191854.027500", "191855.517500", "191857.007500", "191858.497500", "191859.987500", "191901.477500", "191902.967500", "191904.457500", "191905.947500", "191907.437500", "191908.927500", "191910.417500", "191911.907500", "191913.397500", "191914.887500", "191916.377500", "191917.867500", "191919.357500", "191920.847500", "191922.337500", "191923.827500", "191925.317500", "191926.807500", "191928.297500", "191929.787500", "191931.277500", "191932.767500", "191934.257500", "191935.747500", "191937.237500", "191938.727500", "191940.217500", "191941.707500", "191943.197500", "191944.687500", "191946.177500", "191947.667500", "191949.157500", "191950.647500", "191952.137500", "191953.627500", "191955.117500", "191956.607500", "191958.097500", "191959.587500", "192001.077500", "192002.567500", "192004.057500", "192005.547500", "192007.037500", "192008.527500", "192010.017500", "192011.507500", "192012.997500", "192014.487500", "192015.977500", "192017.467500", "192018.957500", "192020.447500", "192021.937500", "192023.427500", "192024.917500", "192026.407500", "192027.897500", "192029.387500", "192030.877500", "192032.367500", "192033.857500", "192035.347500", "192036.837500", "192038.327500", "192039.817500", "192041.307500", "192042.797500", "192044.287500", "192045.777500", "192047.267500", "192048.757500", "192050.247500", "192051.737500", "192053.227500", "192054.717500", "192056.207500", "192057.697500", "192059.187500", "192100.677500", "192102.167500", "192103.657500", "192105.147500", "192106.637500", "192108.127500", "192109.617500", "192111.107500", "192112.597500", "192114.087500", "192115.577500", "192117.067500", "192118.557500", "192120.047500", "192121.537500", "192123.027500", "192124.517500", "192126.007500", "192127.497500", "192128.987500", "192130.477500", "192131.967500", "192133.457500", "192134.947500", "192136.437500", "192137.927500", "192139.417500", "192140.907500", "192142.397500", "192143.887500", "192145.377500", "192146.867500", "192148.357500", "192149.847500", "192151.337500", "192152.827500", "192154.317500", "192155.807500", "192157.297500", "192158.787500", "192200.277500", "192201.767500", "192203.257500", "192204.747500", "192206.237500", "192207.727500", "192209.217500", "192210.707500", "192212.197500", "192213.687500", "192215.177500", "192216.667500", "192218.157500", "192219.647500", "192221.137500", "192222.627500", "192224.117500", "192225.607500", "192227.097500", "192228.587500", "192230.077500", "192231.567500", "192233.057500", "192234.547500", "192236.037500", "192237.527500", "192239.017500", "192240.507500", "192241.997500", "192243.487500", "192244.977500", "192246.467500", "192247.957500", "192249.447500", "192250.937500", "192252.427500", "192253.917500", "192255.407500", "192256.897500", "192258.387500", "192259.877500", "192301.367500", "192302.857500", "192304.347500", "192305.837500", "192307.327500", "192308.817500", "192310.307500", "192311.797500", "192313.287500", "192314.777500", "192316.267500", "192317.757500", "192319.247500", "192320.737500", "192322.227500", "192323.717500", "192325.207500", "192326.697500", "192328.187500", "192329.677500", "192331.167500", "192332.657500", "192334.147500", "192335.637500", "192337.127500", "192338.617500", "192340.107500", "192341.597500", "192343.087500", "192344.577500", "192346.067500", "192347.557500", "192349.047500", "192350.537500", "192352.027500", "192353.517500", "192355.007500", "192356.497500", "192357.987500", "192359.477500", "192400.967500", "192402.457500", "192403.947500", "192405.437500", "192406.927500", "192408.417500", "192409.907500", "192411.397500", "192412.887500", "192414.377500", "192415.867500", "192417.357500", "192418.847500", "192420.337500", "192421.827500", "192423.317500", "192424.807500", "192426.297500", "192427.787500", "192429.277500", "192430.767500", "192432.257500", "192433.747500", "192435.237500", "192436.727500", "192438.217500", "192439.707500", "192441.197500", "192442.687500", "192444.177500", "192445.667500", "192447.157500", "192448.647500", "192450.137500", "192451.627500", "192453.117500", "192454.607500", "192456.097500", "192457.587500", "192459.077500", "192500.567500", "192502.057500", "192503.547500", "192505.037500", "192506.527500", "192508.017500", "192509.507500", "192510.997500", "192512.487500", "192513.977500", "192515.467500", "192516.957500", "192518.447500", "192519.937500", "192521.427500", "192522.917500", "192524.407500", "192525.897500", "192527.387500", "192528.877500", "192530.367500", "192531.857500", "192533.347500", "192534.837500", "192536.327500", "192537.817500", "192539.307500", "192540.797500", "192542.287500", "192543.777500", "192545.267500", "192546.757500", "192548.247500", "192549.737500", "192551.227500", "192552.717500", "192554.207500", "192555.697500", "192557.187500", "192558.677500", "192600.167500", "192601.657500", "192603.147500", "192604.637500", "192606.127500", "192607.617500", "192609.107500", "192610.597500", "192612.087500", "192613.577500", "192615.067500", "192616.557500", "192618.047500", "192619.537500", "192621.027500", "192622.517500", "192624.007500", "192625.497500", "192626.987500", "192628.477500", "192629.967500", "192631.457500", "192632.947500", "192634.437500", "192635.927500", "192637.417500", "192638.907500", "192640.397500", "192641.887500", "192643.377500", "192644.867500", "192646.357500", "192647.847500", "192649.337500", "192650.827500", "192652.317500", "192653.807500", "192655.297500", "192656.787500", "192658.277500", "192659.767500", "192701.257500", "192702.747500", "192704.237500", "192705.727500", "192707.217500", "192708.707500", "192710.197500", "192711.687500", "192713.177500", "192714.667500", "192716.157500", "192717.647500", "192719.137500", "192720.627500", "192722.117500", "192723.607500", "192725.097500", "192726.587500", "192728.077500", "192729.567500", "192731.057500", "192732.547500", "192734.037500", "192735.527500", "192737.017500", "192738.507500", "192739.997500", "192741.487500", "192742.977500", "192744.467500", "192745.957500", "192747.447500", "192748.937500", "192750.427500", "192751.917500", "192753.407500", "192754.897500", "192756.387500", "192757.877500", "192759.367500", "192800.857500", "192802.347500", "192803.837500", "192805.327500", "192806.817500", "192808.307500", "192809.797500", "192811.287500", "192812.777500", "192814.267500", "192815.757500", "192817.247500", "192818.737500", "192820.227500", "192821.717500", "192823.207500", "192824.697500", "192826.187500", "192827.677500", "192829.167500", "192830.657500", "192832.147500", "192833.637500", "192835.127500", "192836.617500", "192838.107500", "192839.597500", "192841.087500", "192842.577500", "192844.067500", "192845.557500", "192847.047500", "192848.537500", "192850.027500", "192851.517500", "192853.007500", "192854.497500", "192855.987500", "192857.477500", "192858.967500", "192900.457500", "192901.947500", "192903.437500", "192904.927500", "192906.417500", "192907.907500"],
      "ContentTime": ["191911.259000", "191911.262000", "191911.265000", "191911.268000", "191911.271000", "191911.274000", "191911.277000", "191911.280000", "191911.282000", "191911.285000", "191911.288000", "191911.291000", "191911.294000", "191911.297000", "191911.300000", "191911.314000", "191911.317000", "191911.320000", "191911.323000", "191911.326000", "191911.329000", "191911.337000", "191911.340000", "191931.227000", "191931.230000", "191931.233000", "191931.236000", "191931.239000", "191931.242000", "191931.245000", "191931.248000", "191931.251000", "191931.254000", "191931.257000", "191931.260000", "191931.263000", "191931.266000", "191931.269000", "191931.272000", "191931.275000", "191931.278000", "191931.281000", "191931.284000", "191951.227000", "191951.230000", "191951.233000", "191951.236000", "191951.239000", "191951.242000", "191951.245000", "191951.248000", "191951.251000", "191951.254000", "191951.257000", "191951.260000", "191951.263000", "191951.266000", "191951.269000", "191951.272000", "191951.274000", "191951.277000", "191951.280000", "191951.283000", "191951.286000", "192011.227000", "192011.231000", "192011.234000", "192011.237000", "192011.240000", "192011.243000", "192011.246000", "192011.249000", "192011.252000", "192011.255000", "192011.257000", "192011.260000", "192011.263000", "192011.266000", "192011.269000", "192011.272000", "192011.275000", "192011.278000", "192011.281000", "192011.284000", "192031.227000", "192031.230000", "192031.233000", "192031.236000", "192031.239000", "192031.242000", "192031.245000", "192031.248000", "192031.251000", "192031.254000", "192031.257000", "192031.260000", "192031.263000", "192031.265000", "192031.268000", "192031.271000", "192031.274000", "192031.277000", "192031.280000", "192031.283000", "192111.227000", "192111.230000", "192111.233000", "192111.236000", "192111.239000", "192111.242000", "192111.245000", "192111.248000", "192111.251000", "192111.254000", "192111.257000", "192111.260000", "192111.263000", "192111.266000", "192111.268000", "192111.271000", "192111.274000", "192111.277000", "192111.280000", "192111.283000", "192111.286000", "192111.289000", "192111.292000", "192111.295000", "192111.297000", "192111.300000", "192111.314000", "192111.317000", "192151.227000", "192151.249000", "192151.252000", "192151.255000", "192151.258000", "192151.261000", "192151.264000", "192151.266000", "192151.269000", "192151.272000", "192151.275000", "192151.278000", "192151.281000", "192151.284000", "192151.287000", "192151.290000", "192151.293000", "192151.296000", "192151.299000", "192151.302000", "192151.304000", "192151.307000", "192151.310000", "192151.313000", "192151.316000", "192151.319000", "192151.322000", "192231.227000", "192231.230000", "192231.233000", "192231.236000", "192231.239000", "192231.242000", "192231.245000", "192231.247000", "192231.250000", "192231.253000", "192231.256000", "192231.259000", "192231.262000", "192231.265000", "192231.268000", "192231.271000", "192231.274000", "192231.277000", "192231.279000", "192231.282000", "192231.285000", "192231.288000", "192231.291000", "192231.294000", "192231.297000", "192231.300000", "192231.303000", "192311.227000", "192311.230000", "192311.233000", "192311.236000", "192311.239000", "192311.242000", "192311.245000", "192311.248000", "192311.250000", "192311.253000", "192311.256000", "192311.259000", "192311.262000", "192311.265000", "192311.268000", "192311.271000", "192311.274000", "192311.277000", "192311.280000", "192311.283000", "192311.286000", "192311.289000", "192311.292000", "192311.295000", "192311.298000", "192311.300000", "192351.227000", "192351.230000", "192351.233000", "192351.236000", "192351.239000", "192351.242000", "192351.253000", "192351.256000", "192351.259000", "192351.262000", "192351.265000", "192351.268000", "192351.271000", "192351.274000", "192351.277000", "192351.280000", "192351.283000", "192351.286000", "192351.288000", "192351.291000", "192351.294000", "192351.297000", "192351.300000", "192351.303000", "192351.306000", "192351.309000", "192351.312000", "192431.227000", "192431.230000", "192431.233000", "192431.236000", "192431.239000", "192431.242000", "192431.245000", "192431.248000", "192431.251000", "192431.253000", "192431.256000", "192431.259000", "192431.262000", "192431.265000", "192431.268000", "192431.271000", "192431.274000", "192431.277000", "192431.280000", "192431.283000", "192431.286000", "192431.289000", "192431.291000", "192431.305000", "192431.308000", "192431.310000", "192431.315000", "192511.227000", "192511.230000", "192511.233000", "192511.236000", "192511.239000", "192511.242000", "192511.245000", "192511.248000", "192511.251000", "192511.254000", "192511.257000", "192511.260000", "192511.263000", "192511.266000", "192511.269000", "192511.272000", "192511.275000", "192511.278000", "192511.280000", "192511.283000", "192511.286000", "192511.289000", "192511.292000", "192511.295000", "192511.298000", "192511.301000", "192511.304000", "192551.227000", "192551.230000", "192551.233000", "192551.236000", "192551.239000", "192551.242000", "192551.245000", "192551.248000", "192551.251000", "192551.254000", "192551.257000", "192551.260000", "192551.263000", "192551.266000", "192551.269000", "192551.273000", "192551.276000", "192551.278000", "192551.282000", "192551.284000", "192551.287000", "192551.290000", "192551.293000", "192551.296000", "192551.299000", "192551.302000", "192551.305000", "192631.227000", "192631.237000", "192631.240000", "192631.243000", "192631.246000", "192631.249000", "192631.252000", "192631.255000", "192631.258000", "192631.261000", "192631.264000", "192631.266000", "192631.269000", "192631.272000", "192631.275000", "192631.278000", "192631.281000", "192631.284000", "192631.287000", "192631.290000", "192631.293000", "192631.296000", "192631.299000", "192631.302000", "192631.305000", "192631.308000", "192631.311000", "192711.227000", "192711.230000", "192711.233000", "192711.236000", "192711.239000", "192711.242000", "192711.245000", "192711.248000", "192711.250000", "192711.253000", "192711.256000", "192711.259000", "192711.262000", "192711.265000", "192711.268000", "192711.271000", "192711.274000", "192711.277000", "192711.280000", "192711.283000", "192711.286000", "192711.288000", "192711.291000", "192711.294000", "192711.297000", "192711.300000", "192711.303000", "192751.227000", "192751.230000", "192751.233000", "192751.236000", "192751.239000", "192751.242000", "192751.245000", "192751.248000", "192751.251000", "192751.254000", "192751.257000", "192751.259000", "192751.262000", "192751.266000", "192751.268000", "192751.271000", "192751.274000", "192751.277000", "192751.280000", "192751.283000", "192751.292000", "192751.296000", "192751.298000", "192751.301000", "192751.305000", "192751.308000", "192831.227000", "192831.230000", "192831.233000", "192831.236000", "192831.239000", "192831.242000", "192831.245000", "192831.248000", "192831.251000", "192831.254000", "192831.257000", "192831.260000", "192831.263000", "192831.266000", "192831.269000", "192831.272000", "192831.275000", "192831.278000", "192831.281000", "192831.284000", "192831.286000", "192831.290000", "192831.292000", "192831.295000", "192831.298000", "192831.301000", "192831.304000", "192910.470000", "192910.474000", "192910.477000", "192910.480000", "192910.490000", "192910.493000", "192910.496000", "192910.499000", "192910.503000", "192910.506000", "192910.509000", "192910.512000", "192910.515000", "192910.518000", "192910.521000", "192910.524000", "192910.527000", "192910.530000", "192910.533000", "192910.536000", "192910.539000", "192910.541000", "192910.545000", "192910.548000", "192910.551000", "192910.554000", "192910.556000"],
