{
  "AcquisitionMatrixPE": 104,
  "AcquisitionNumber": 1,
  "AcquisitionTime": "18:41:41.392500",
  "BandwidthPerPixelPhaseEncode": 17.17,
  "BaseResolution": 104,
  "BodyPartExamined": "BRAIN",
  "CoilString": "HC1-7;NC1_2",
  "ConsistencyInfo": "N4_VE11C_LATEST_20160120",
  "ConversionSoftware": "dcm2niix",
  "ConversionSoftwareVersion": "v1.0.20190720  (JP2:OpenJPEG) GCC7.3.0",
  "DerivedVendorReportedEchoSpacing": 0.000560011,
  "DeviceSerialNumber": "167006",
  "DwellTime": 2.1e-06,
  "EchoTime": 0.037,
  "EchoTrainLength": 104,
  "EffectiveEchoSpacing": 0.000560011,
  "FlipAngle": 52,
  "ImageComments": "Unaliased_MB4_PE3_LB",
  "ImageOrientationPatientDICOM": [0.999854, -0.0132422, -0.0107974, 0.00802746, 0.921917, -0.387304],
  "ImageType": [
    "ORIGINAL",
    "PRIMARY",
    "M",
    "MB",
    "ND",
    "MOSAIC"
],
  "ImagingFrequency": 123.259,
  "InPlanePhaseEncodingDirectionDICOM": "COL",
  "InstitutionAddress": "Chemin_Queen-Mary_4565_Montreal_District_CA_H3W_1W5",
  "InstitutionName": "IUGM",
  "InstitutionalDepartmentName": "Department",
  "MRAcquisitionType": "2D",
  "MagneticFieldStrength": 3,
  "Manufacturer": "Siemens",
  "ManufacturersModelName": "Prisma_fit",
  "Modality": "MR",
  "MultibandAccelerationFactor": 4,
  "PartialFourier": 1,
  "PatientPosition": "HFS",
  "PercentPhaseFOV": 100,
  "PhaseEncodingDirection": "j",
  "PhaseEncodingSteps": 104,
  "PhaseResolution": 1,
  "PixelBandwidth": 2290,
  "ProcedureStepDescription": "video_friends",
  "ProtocolName": "func_task-friends-s02e02b",
  "PulseSequenceDetails": "%CustomerSeq%_cmrr_mbep2d_bold",
  "ReceiveCoilActiveElements": "HC1-7;NC1,2",
  "ReceiveCoilName": "HeadNeck_64",
  "ReconMatrixPE": 104,
  "RepetitionTime": 1.49,
  "SAR": 0.0323465,
  "ScanOptions": "FS",
  "ScanningSequence": "EP",
  "SequenceName": "epfid2d1_104",
  "SequenceVariant": "SK_SS",
  "SeriesDescription": "func_task-friends-s02e02b",
  "SeriesNumber": 11,
  "ShimSetting": [610, -7261, -8853, 409, -8, -459, 4, 34],
  "SliceThickness": 2,
  "SliceTiming": [0, 0.785, 0.0975, 0.8825, 0.195, 0.98, 0.295, 1.0775, 0.3925, 1.175, 0.49, 1.275, 0.5875, 1.3725, 0.685, 0, 0.785, 0.0975, 0.8825, 0.195, 0.98, 0.295, 1.0775, 0.3925, 1.175, 0.49, 1.275, 0.5875, 1.3725, 0.685, 0, 0.785, 0.0975, 0.8825, 0.195, 0.98, 0.295, 1.0775, 0.3925, 1.175, 0.49, 1.275, 0.5875, 1.3725, 0.685, 0, 0.785, 0.0975, 0.8825, 0.195, 0.98, 0.295, 1.0775, 0.3925, 1.175, 0.49, 1.275, 0.5875, 1.3725, 0.685],
  "SoftwareVersions": "syngo_MR_E11",
  "SpacingBetweenSlices": 2,
  "StationName": "MRC35049",
  "TaskName": "friends",
  "TotalReadoutTime": 0.0576811,
  "TxRefAmp": 233.046,
  "WipMemBlock": "fb7b44e2-d1f2-4e72-bc48-d5037772efcf||Sequence: R016 ve11c/master r/e634e98; Dec 19 2017 11:00:25 by eja",
  "dcmmeta_affine": [
    [-1.9997080564498901, 0.0160549134016037, -0.0301661379635334, 99.83773040771484],
    [0.02648431621491909, 1.8438340425491333, -0.7743218541145325, -69.74796295166016],
    [-0.02159484289586544, 0.774608314037323, 1.8437775373458862, -76.148681640625],
    [0.0, 0.0, 0.0, 1.0]
],
  "dcmmeta_reorient_transform": [
    [0.0, -1.0, 0.0, 103.0],
    [1.0, 0.0, 0.0, 0.0],
    [0.0, 0.0, 1.0, 0.0],
    [0.0, 0.0, 0.0, 1.0]
],
  "dcmmeta_shape": [104, 104, 60, 450],
  "dcmmeta_slice_dim": 2,
  "dcmmeta_version": 0.6,
  "global": {
    "const": {
      "AcquisitionMatrix": [104, 0, 0, 104],
      "AngioFlag": "N",
      "BitsAllocated": 16,
      "BitsStored": 16,
      "BodyPartExamined": "BRAIN",
      "Columns": 832,
      "EchoNumbers": 1,
      "EchoTime": 37.0,
      "EchoTrainLength": 104,
      "FlipAngle": 52.0,
      "HighBit": 15,
      "ImageOrientationPatient": [0.99985401982113, -0.0132421578088, -0.0107974211779, 0.0080274567593, 0.92191704983191, -0.3873041610507],
      "ImagePositionPatient": [-835.22910305922, -781.6822669381, 293.45392629577],
      "ImageType": [
        "ORIGINAL",
        "PRIMARY",
        "M",
        "MB",
        "ND",
        "MOSAIC"
],
      "ImagedNucleus": "1H",
      "ImagingFrequency": 123.259115,
      "InPlanePhaseEncodingDirection": "COL",
      "MRAcquisitionType": "2D",
      "MagneticFieldStrength": 3.0,
      "Manufacturer": "SIEMENS",
      "ManufacturerModelName": "Prisma_fit",
      "Modality": "MR",
      "NumberOfAverages": 1.0,
      "NumberOfPhaseEncodingSteps": 104,
      "PercentPhaseFieldOfView": 100.0,
      "PercentSampling": 100.0,
      "PerformedProcedureStepStartTime": "180717.497000",
      "PhotometricInterpretation": "MONOCHROME2",
      "PixelBandwidth": 2290.0,
      "PixelRepresentation": 0,
      "PixelSpacing": [2.0, 2.0],
      "ProtocolName": "func_task-friends-s02e02b",
      "RepetitionTime": 1490.0,
      "Rows": 832,
      "SAR": 0.03234646205867,
      "SamplesPerPixel": 1,
      "ScanOptions": "FS",
      "ScanningSequence": "EP",
      "SequenceName": "epfid2d1_104",
      "SequenceVariant": [
        "SK",
        "SS"
],
      "SeriesDescription": "func_task-friends-s02e02b",
      "SeriesNumber": 11,
      "SeriesTime": "184311.257000",
      "SliceLocation": -44.702786039578,
      "SliceThickness": 2.0,
      "SmallestImagePixelValue": 0,
      "SoftwareVersions": "syngo MR E11",
      "SpacingBetweenSlices": 1.9999999463414,
      "SpecificCharacterSet": "ISO_IR 100",
      "StudyID": "1",
      "StudyTime": "180717.362000",
      "TransmitCoilName": "Body",
      "VariableFlipAngleFlag": "N",
      "WindowCenterWidthExplanation": "Algo1",
      "dBdt": 0.0},
    "slices": {}
  },
  "time": {
    "samples": {
      "AcquisitionNumber": [1, 2, 3, 4, 5, 6, 7, 8, 9, 10, 11, 12, 13, 14, 15, 16, 17, 18, 19, 20, 21, 22, 23, 24, 25, 26, 27, 28, 29, 30, 31, 32, 33, 34, 35, 36, 37, 38, 39, 40, 41, 42, 43, 44, 45, 46, 47, 48, 49, 50, 51, 52, 53, 54, 55, 56, 57, 58, 59, 60, 61, 62, 63, 64, 65, 66, 67, 68, 69, 70, 71, 72, 73, 74, 75, 76, 77, 78, 79, 80, 81, 82, 83, 84, 85, 86, 87, 88, 89, 90, 91, 92, 93, 94, 95, 96, 97, 98, 99, 100, 101, 102, 103, 104, 105, 106, 107, 108, 109, 110, 111, 112, 113, 114, 115, 116, 117, 118, 119, 120, 121, 122, 123, 124, 125, 126, 127, 128, 129, 130, 131, 132, 133, 134, 135, 136, 137, 138, 139, 140, 141, 142, 143, 144, 145, 146, 147, 148, 149, 150, 151, 152, 153, 154, 155, 156, 157, 158, 159, 160, 161, 162, 163, 164, 165, 166, 167, 168, 169, 170, 171, 172, 173, 174, 175, 176, 177, 178, 179, 180, 181, 182, 183, 184, 185, 186, 187, 188, 189, 190, 191, 192, 193, 194, 195, 196, 197, 198, 199, 200, 201, 202, 203, 204, 205, 206, 207, 208, 209, 210, 211, 212, 213, 214, 215, 216, 217, 218, 219, 220, 221, 222, 223, 224, 225, 226, 227, 228, 229, 230, 231, 232, 233, 234, 235, 236, 237, 238, 239, 240, 241, 242, 243, 244, 245, 246, 247, 248, 249, 250, 251, 252, 253, 254, 255, 256, 257, 258, 259, 260, 261, 262, 263, 264, 265, 266, 267, 268, 269, 270, 271, 272, 273, 274, 275, 276, 277, 278, 279, 280, 281, 282, 283, 284, 285, 286, 287, 288, 289, 290, 291, 292, 293, 294, 295, 296, 297, 298, 299, 300, 301, 302, 303, 304, 305, 306, 307, 308, 309, 310, 311, 312, 313, 314, 315, 316, 317, 318, 319, 320, 321, 322, 323, 324, 325, 326, 327, 328, 329, 330, 331, 332, 333, 334, 335, 336, 337, 338, 339, 340, 341, 342, 343, 344, 345, 346, 347, 348, 349, 350, 351, 352, 353, 354, 355, 356, 357, 358, 359, 360, 361, 362, 363, 364, 365, 366, 367, 368, 369, 370, 371, 372, 373, 374, 375, 376, 377, 378, 379, 380, 381, 382, 383, 384, 385, 386, 387, 388, 389, 390, 391, 392, 393, 394, 395, 396, 397, 398, 399, 400, 401, 402, 403, 404, 405, 406, 407, 408, 409, 410, 411, 412, 413, 414, 415, 416, 417, 418, 419, 420, 421, 422, 423, 424, 425, 426, 427, 428, 429, 430, 431, 432, 433, 434, 435, 436, 437, 438, 439, 440, 441, 442, 443, 444, 445, 446, 447, 448, 449, 450],
      "AcquisitionTime": ["184141.392500", "184142.882500", "184144.372500", "184145.862500", "184147.352500", "184148.842500", "184150.332500", "184151.822500", "184153.312500", "184154.802500", "184156.292500", "184157.782500", "184159.272500", "184200.762500", "184202.252500", "184203.742500", "184205.232500", "184206.722500", "184208.212500", "184209.702500", "184211.192500", "184212.682500", "184214.172500", "184215.662500", "184217.152500", "184218.642500", "184220.132500", "184221.622500", "184223.112500", "184224.602500", "184226.092500", "184227.582500", "184229.072500", "184230.562500", "184232.052500", "184233.542500", "184235.032500", "184236.522500", "184238.012500", "184239.502500", "184240.992500", "184242.482500", "184243.972500", "184245.462500", "184246.952500", "184248.442500", "184249.932500", "184251.422500", "184252.912500", "184254.402500", "184255.892500", "184257.382500", "184258.872500", "184300.362500", "184301.852500", "184303.342500", "184304.832500", "184306.322500", "184307.812500", "184309.302500", "184310.792500", "184312.282500", "184313.772500", "184315.262500", "184316.752500", "184318.242500", "184319.732500", "184321.222500", "184322.712500", "184324.202500", "184325.692500", "184327.182500", "184328.672500", "184330.162500", "184331.652500", "184333.142500", "184334.632500", "184336.122500", "184337.612500", "184339.102500", "184340.592500", "184342.082500", "184343.572500", "184345.062500", "184346.552500", "184348.042500", "184349.532500", "184351.022500", "184352.512500", "184354.002500", "184355.492500", "184356.982500", "184358.472500", "184359.962500", "184401.452500", "184402.942500", "184404.432500", "184405.922500", "184407.412500", "184408.902500", "184410.392500", "184411.882500", "184413.372500", "184414.862500", "184416.352500", "184417.842500", "184419.332500", "184420.822500", "184422.312500", "184423.802500", "184425.292500", "184426.782500", "184428.272500", "184429.762500", "184431.252500", "184432.742500", "184434.232500", "184435.722500", "184437.212500", "184438.702500", "184440.192500", "184441.682500", "184443.172500", "184444.662500", "184446.152500", "184447.642500", "184449.132500", "184450.622500", "184452.112500", "184453.602500", "184455.092500", "184456.582500", "184458.072500", "184459.562500", "184501.052500", "184502.542500", "184504.032500", "184505.522500", "184507.012500", "184508.502500", "184509.992500", "184511.482500", "184512.972500", "184514.462500", "184515.952500", "184517.442500", "184518.932500", "184520.422500", "184521.912500", "184523.402500", "184524.892500", "184526.382500", "184527.872500", "184529.362500", "184530.852500", "184532.342500", "184533.832500", "184535.322500", "184536.812500", "184538.302500", "184539.792500", "184541.282500", "184542.772500", "184544.262500", "184545.752500", "184547.242500", "184548.732500", "184550.222500", "184551.712500", "184553.202500", "184554.692500", "184556.182500", "184557.672500", "184559.162500", "184600.652500", "184602.142500", "184603.632500", "184605.122500", "184606.612500", "184608.102500", "184609.592500", "184611.082500", "184612.572500", "184614.062500", "184615.552500", "184617.042500", "184618.532500", "184620.022500", "184621.512500", "184623.002500", "184624.492500", "184625.982500", "184627.472500", "184628.962500", "184630.452500", "184631.942500", "184633.432500", "184634.922500", "184636.412500", "184637.902500", "184639.392500", "184640.882500", "184642.372500", "184643.862500", "184645.352500", "184646.842500", "184648.332500", "184649.822500", "184651.312500", "184652.802500", "184654.292500", "184655.782500", "184657.272500", "184658.762500", "184700.252500", "184701.742500", "184703.232500", "184704.722500", "184706.212500", "184707.702500", "184709.192500", "184710.682500", "184712.172500", "184713.662500", "184715.152500", "184716.642500", "184718.132500", "184719.622500", "184721.112500", "184722.602500", "184724.092500", "184725.582500", "184727.072500", "184728.562500", "184730.052500", "184731.542500", "184733.032500", "184734.522500", "184736.012500", "184737.502500", "184738.992500", "184740.482500", "184741.972500", "184743.462500", "184744.952500", "184746.442500", "184747.932500", "184749.422500", "184750.912500", "184752.402500", "184753.892500", "184755.382500", "184756.872500", "184758.362500", "184759.852500", "184801.342500", "184802.832500", "184804.322500", "184805.812500", "184807.302500", "184808.792500", "184810.282500", "184811.772500", "184813.262500", "184814.752500", "184816.242500", "184817.732500", "184819.222500", "184820.712500", "184822.202500", "184823.692500", "184825.182500", "184826.672500", "184828.162500", "184829.652500", "184831.142500", "184832.632500", "184834.122500", "184835.612500", "184837.102500", "184838.592500", "184840.082500", "184841.572500", "184843.062500", "184844.552500", "184846.042500", "184847.532500", "184849.022500", "184850.512500", "184852.002500", "184853.492500", "184854.982500", "184856.472500", "184857.962500", "184859.452500", "184900.942500", "184902.432500", "184903.922500", "184905.412500", "184906.902500", "184908.392500", "184909.882500", "184911.372500", "184912.862500", "184914.352500", "184915.842500", "184917.332500", "184918.822500", "184920.312500", "184921.802500", "184923.292500", "184924.782500", "184926.272500", "184927.762500", "184929.252500", "184930.742500", "184932.232500", "184933.722500", "184935.212500", "184936.702500", "184938.192500", "184939.682500", "184941.172500", "184942.662500", "184944.152500", "184945.642500", "184947.132500", "184948.622500", "184950.112500", "184951.602500", "184953.092500", "184954.582500", "184956.072500", "184957.562500", "184959.052500", "185000.542500", "185002.032500", "185003.522500", "185005.012500", "185006.502500", "185007.992500", "185009.482500", "185010.972500", "185012.462500", "185013.952500", "185015.442500", "185016.932500", "185018.422500", "185019.912500", "185021.402500", "185022.892500", "185024.382500", "185025.872500", "185027.362500", "185028.852500", "185030.342500", "185031.832500", "185033.322500", "185034.812500", "185036.302500", "185037.792500", "185039.282500", "185040.772500", "185042.262500", "185043.752500", "185045.242500", "185046.732500", "185048.222500", "185049.712500", "185051.202500", "185052.692500", "185054.182500", "185055.672500", "185057.162500", "185058.652500", "185100.142500", "185101.632500", "185103.122500", "185104.612500", "185106.102500", "185107.592500", "185109.082500", "185110.572500", "185112.062500", "185113.552500", "185115.042500", "185116.532500", "185118.022500", "185119.512500", "185121.002500", "185122.492500", "185123.982500", "185125.472500", "185126.962500", "185128.452500", "185129.942500", "185131.432500", "185132.922500", "185134.412500", "185135.902500", "185137.392500", "185138.882500", "185140.372500", "185141.862500", "185143.352500", "185144.842500", "185146.332500", "185147.822500", "185149.312500", "185150.802500", "185152.292500", "185153.782500", "185155.272500", "185156.762500", "185158.252500", "185159.742500", "185201.232500", "185202.722500", "185204.212500", "185205.702500", "185207.192500", "185208.682500", "185210.172500", "185211.662500", "185213.152500", "185214.642500", "185216.132500", "185217.622500", "185219.112500", "185220.602500", "185222.092500", "185223.582500", "185225.072500", "185226.562500", "185228.052500", "185229.542500", "185231.032500", "185232.522500", "185234.012500", "185235.502500", "185236.992500", "185238.482500", "185239.972500", "185241.462500", "185242.952500", "185244.442500", "185245.932500", "185247.422500", "185248.912500", "185250.402500"],
      "ContentTime": ["184311.260000", "184311.263000", "184311.266000", "184311.269000", "184311.272000", "184311.275000", "184311.285000", "184311.288000", "184311.291000", "184311.294000", "184311.297000", "184311.300000", "184311.311000", "184311.314000", "184311.317000", "184311.320000", "184311.323000", "184311.326000", "184311.329000", "184311.332000", "184311.335000", "184311.338000", "184311.341000", "184311.344000", "184311.347000", "184311.350000", "184311.353000", "184311.356000", "184311.359000", "184311.361000", "184311.364000", "184311.367000", "184311.370000", "184311.373000", "184311.376000", "184311.379000", "184331.227000", "184331.230000", "184331.233000", "184331.236000", "184331.239000", "184331.242000", "184331.245000", "184331.248000", "184331.251000", "184331.254000", "184331.257000", "184331.260000", "184331.263000", "184331.265000", "184331.268000", "184331.271000", "184331.274000", "184331.277000", "184331.280000", "184331.283000", "184351.227000", "184351.230000", "184351.233000", "184351.236000", "184351.239000", "184351.242000", "184351.245000", "184351.247000", "184351.250000", "184351.253000", "184351.256000", "184351.259000", "184351.262000", "184351.265000", "184351.268000", "184351.271000", "184351.274000", "184351.277000", "184351.279000", "184351.282000", "184411.227000", "184411.230000", "184411.233000", "184411.236000", "184411.239000", "184411.242000", "184411.245000", "184411.247000", "184411.250000", "184411.253000", "184411.256000", "184411.259000", "184411.262000", "184411.265000", "184411.268000", "184411.271000", "184411.274000", "184411.278000", "184411.281000", "184411.284000", "184451.227000", "184451.230000", "184451.233000", "184451.236000", "184451.239000", "184451.242000", "184451.245000", "184451.247000", "184451.250000", "184451.253000", "184451.256000", "184451.259000", "184451.262000", "184451.265000", "184451.268000", "184451.271000", "184451.274000", "184451.276000", "184451.279000", "184451.282000", "184451.285000", "184451.288000", "184451.291000", "184451.294000", "184451.297000", "184451.299000", "184451.302000", "184451.305000", "184451.308000", "184451.311000", "184451.314000", "184531.227000", "184531.230000", "184531.233000", "184531.237000", "184531.240000", "184531.243000", "184531.254000", "184531.257000", "184531.260000", "184531.263000", "184531.266000", "184531.269000", "184531.272000", "184531.275000", "184531.278000", "184531.281000", "184531.284000", "184531.287000", "184531.290000", "184531.293000", "184531.296000", "184531.299000", "184531.302000", "184531.305000", "184531.308000", "184531.311000", "184551.227000", "184551.230000", "184551.233000", "184551.236000", "184551.239000", "184551.242000", "184551.245000", "184551.248000", "184551.251000", "184551.254000", "184551.256000", "184551.259000", "184551.262000", "184551.265000", "184631.227000", "184631.230000", "184631.233000", "184631.236000", "184631.239000", "184631.242000", "184631.245000", "184631.248000", "184631.251000", "184631.254000", "184631.257000", "184631.260000", "184631.263000", "184631.265000", "184631.268000", "184631.271000", "184631.274000", "184631.277000", "184631.280000", "184631.283000", "184631.286000", "184631.289000", "184631.292000", "184631.295000", "184631.298000", "184631.301000", "184631.304000", "184711.227000", "184711.230000", "184711.233000", "184711.236000", "184711.239000", "184711.242000", "184711.245000", "184711.248000", "184711.251000", "184711.254000", "184711.257000", "184711.259000", "184711.262000", "184711.265000", "184711.268000", "184711.271000", "184711.274000", "184711.277000", "184711.280000", "184711.295000", "184711.297000", "184711.300000", "184711.303000", "184711.306000", "184711.309000", "184711.312000", "184711.315000", "184751.227000", "184751.230000", "184751.233000", "184751.236000", "184751.239000", "184751.242000", "184751.245000", "184751.248000", "184751.251000", "184751.254000", "184751.257000", "184751.259000", "184751.262000", "184751.265000", "184751.268000", "184751.271000", "184751.274000", "184751.277000", "184751.280000", "184751.283000", "184751.286000", "184751.289000", "184751.292000", "184751.296000", "184751.299000", "184751.302000", "184831.227000", "184831.230000", "184831.233000", "184831.236000", "184831.239000", "184831.242000", "184831.245000", "184831.248000", "184831.251000", "184831.254000", "184831.256000", "184831.259000", "184831.262000", "184831.269000", "184831.272000", "184831.275000", "184831.278000", "184831.281000", "184831.283000", "184831.286000", "184831.289000", "184831.292000", "184831.295000", "184831.298000", "184831.301000", "184831.304000", "184831.307000", "184911.227000", "184911.230000", "184911.233000", "184911.236000", "184911.239000", "184911.241000", "184911.244000", "184911.257000", "184911.260000", "184911.263000", "184911.266000", "184911.269000", "184911.272000", "184911.275000", "184911.278000", "184911.281000", "184911.283000", "184911.287000", "184911.290000", "184911.292000", "184911.295000", "184911.298000", "184911.301000", "184911.304000", "184911.307000", "184911.310000", "184911.313000", "184951.227000", "184951.230000", "184951.233000", "184951.236000", "184951.239000", "184951.242000", "184951.245000", "184951.248000", "184951.251000", "184951.254000", "184951.257000", "184951.260000", "184951.263000", "184951.266000", "184951.268000", "184951.271000", "184951.274000", "184951.277000", "184951.280000", "184951.283000", "184951.286000", "184951.296000", "184951.299000", "184951.302000", "184951.305000", "184951.308000", "184951.311000", "185031.227000", "185031.230000", "185031.233000", "185031.236000", "185031.239000", "185031.242000", "185031.245000", "185031.248000", "185031.251000", "185031.254000", "185031.260000", "185031.263000", "185031.266000", "185031.269000", "185031.272000", "185031.275000", "185031.278000", "185031.281000", "185031.284000", "185031.287000", "185031.290000", "185031.293000", "185031.296000", "185031.298000", "185031.301000", "185031.304000", "185031.307000", "185111.227000", "185111.230000", "185111.233000", "185111.236000", "185111.239000", "185111.242000", "185111.245000", "185111.248000", "185111.250000", "185111.253000", "185111.256000", "185111.259000", "185111.262000", "185111.265000", "185111.268000", "185111.271000", "185111.274000", "185111.277000", "185111.279000", "185111.282000", "185111.285000", "185111.288000", "185111.294000", "185111.297000", "185111.300000", "185111.303000", "185111.306000", "185151.227000", "185151.230000", "185151.234000", "185151.237000", "185151.240000", "185151.243000", "185151.246000", "185151.249000", "185151.252000", "185151.255000", "185151.258000", "185151.261000", "185151.264000", "185151.267000", "185151.270000", "185151.273000", "185151.276000", "185151.279000", "185151.282000", "185151.286000", "185151.306000", "185151.310000", "185151.313000", "185151.316000", "185151.319000", "185151.322000", "185231.227000", "185231.230000", "185231.233000", "185231.236000", "185231.239000", "185231.242000", "185231.245000", "185231.248000", "185231.251000", "185231.254000", "185231.257000", "185231.260000", "185231.263000", "185231.266000", "185231.269000", "185231.272000", "185231.275000", "185231.277000", "185231.280000", "185231.283000", "185231.286000", "185231.289000", "185231.292000", "185231.295000", "185231.298000", "185231.301000", "185231.304000", "185252.453000", "185252.456000", "185252.459000", "185252.462000", "185252.465000", "185252.468000", "185252.471000", "185252.474000", "185252.477000", "185252.480000", "185252.483000", "185252.486000", "185252.488000", "185252.492000", "185252.495000"],
