{
  "AcquisitionMatrixPE": 104,
  "AcquisitionNumber": 1,
  "AcquisitionTime": "19:41:22.157500",
  "BandwidthPerPixelPhaseEncode": 17.17,
  "BaseResolution": 104,
  "BodyPartExamined": "BRAIN",
  "CoilString": "HC1-7;NC1_2",
  "ConsistencyInfo": "N4_VE11C_LATEST_20160120",
  "ConversionSoftware": "dcm2niix",
  "ConversionSoftwareVersion": "v1.0.20190720  (JP2:OpenJPEG) GCC7.3.0",
  "DerivedVendorReportedEchoSpacing": 0.000560011,
  "DeviceSerialNumber": "167006",
  "DwellTime": 2.1e-06,
  "EchoTime": 0.037,
  "EchoTrainLength": 104,
  "EffectiveEchoSpacing": 0.000560011,
  "FlipAngle": 52,
  "ImageComments": "Unaliased_MB4_PE3_LB",
  "ImageOrientationPatientDICOM": [0.999854, -0.0132422, -0.0107974, 0.00802746, 0.921917, -0.387304],
  "ImageType": [
    "ORIGINAL",
    "PRIMARY",
    "M",
    "MB",
    "ND",
    "MOSAIC"
],
  "ImagingFrequency": 123.259,
  "InPlanePhaseEncodingDirectionDICOM": "COL",
  "InstitutionAddress": "Chemin_Queen-Mary_4565_Montreal_District_CA_H3W_1W5",
  "InstitutionName": "IUGM",
  "InstitutionalDepartmentName": "Department",
  "MRAcquisitionType": "2D",
  "MagneticFieldStrength": 3,
  "Manufacturer": "Siemens",
  "ManufacturersModelName": "Prisma_fit",
  "Modality": "MR",
  "MultibandAccelerationFactor": 4,
  "PartialFourier": 1,
  "PatientPosition": "HFS",
  "PercentPhaseFOV": 100,
  "PhaseEncodingDirection": "j",
  "PhaseEncodingSteps": 104,
  "PhaseResolution": 1,
  "PixelBandwidth": 2290,
  "ProcedureStepDescription": "video_friends",
  "ProtocolName": "func_task-friends-s02e05a",
  "PulseSequenceDetails": "%CustomerSeq%_cmrr_mbep2d_bold",
  "ReceiveCoilActiveElements": "HC1-7;NC1,2",
  "ReceiveCoilName": "HeadNeck_64",
  "ReconMatrixPE": 104,
  "RepetitionTime": 1.49,
  "SAR": 0.032348,
  "ScanOptions": "FS",
  "ScanningSequence": "EP",
  "SequenceName": "epfid2d1_104",
  "SequenceVariant": "SK_SS",
  "SeriesDescription": "func_task-friends-s02e05a",
  "SeriesNumber": 21,
  "ShimSetting": [610, -7261, -8853, 409, -8, -459, 4, 34],
  "SliceThickness": 2,
  "SliceTiming": [0, 0.785, 0.0975, 0.8825, 0.1975, 0.98, 0.295, 1.0775, 0.3925, 1.1775, 0.49, 1.275, 0.5875, 1.3725, 0.6875, 0, 0.785, 0.0975, 0.8825, 0.1975, 0.98, 0.295, 1.0775, 0.3925, 1.1775, 0.49, 1.275, 0.5875, 1.3725, 0.6875, 0, 0.785, 0.0975, 0.8825, 0.1975, 0.98, 0.295, 1.0775, 0.3925, 1.1775, 0.49, 1.275, 0.5875, 1.3725, 0.6875, 0, 0.785, 0.0975, 0.8825, 0.1975, 0.98, 0.295, 1.0775, 0.3925, 1.1775, 0.49, 1.275, 0.5875, 1.3725, 0.6875],
  "SoftwareVersions": "syngo_MR_E11",
  "SpacingBetweenSlices": 2,
  "StationName": "MRC35049",
  "TaskName": "friends",
  "TotalReadoutTime": 0.0576811,
  "TxRefAmp": 233.046,
  "WipMemBlock": "e9b43795-1e4d-49e7-9aa6-facefc1382a2||Sequence: R016 ve11c/master r/e634e98; Dec 19 2017 11:00:25 by eja",
  "dcmmeta_affine": [
    [-1.9997080564498901, 0.0160549134016037, -0.0301661379635334, 99.83773040771484],
    [0.02648431621491909, 1.8438340425491333, -0.7743218541145325, -69.74796295166016],
    [-0.02159484289586544, 0.774608314037323, 1.8437775373458862, -76.148681640625],
    [0.0, 0.0, 0.0, 1.0]
],
  "dcmmeta_reorient_transform": [
    [0.0, -1.0, 0.0, 103.0],
    [1.0, 0.0, 0.0, 0.0],
    [0.0, 0.0, 1.0, 0.0],
    [0.0, 0.0, 0.0, 1.0]
],
  "dcmmeta_shape": [104, 104, 60, 455],
  "dcmmeta_slice_dim": 2,
  "dcmmeta_version": 0.6,
  "global": {
    "const": {
      "AcquisitionMatrix": [104, 0, 0, 104],
      "AngioFlag": "N",
      "BitsAllocated": 16,
      "BitsStored": 16,
      "BodyPartExamined": "BRAIN",
      "Columns": 832,
      "EchoNumbers": 1,
      "EchoTime": 37.0,
      "EchoTrainLength": 104,
      "FlipAngle": 52.0,
      "HighBit": 15,
      "ImageOrientationPatient": [0.99985401982113, -0.0132421578088, -0.0107974211779, 0.0080274567593, 0.92191704983191, -0.3873041610507],
      "ImagePositionPatient": [-835.22910305922, -781.6822669381, 293.45392629577],
      "ImageType": [
        "ORIGINAL",
        "PRIMARY",
        "M",
        "MB",
        "ND",
        "MOSAIC"
],
      "ImagedNucleus": "1H",
      "ImagingFrequency": 123.259135,
      "InPlanePhaseEncodingDirection": "COL",
      "MRAcquisitionType": "2D",
      "MagneticFieldStrength": 3.0,
      "Manufacturer": "SIEMENS",
      "ManufacturerModelName": "Prisma_fit",
      "Modality": "MR",
      "NumberOfAverages": 1.0,
      "NumberOfPhaseEncodingSteps": 104,
      "PercentPhaseFieldOfView": 100.0,
      "PercentSampling": 100.0,
      "PerformedProcedureStepStartTime": "180717.497000",
      "PhotometricInterpretation": "MONOCHROME2",
      "PixelBandwidth": 2290.0,
      "PixelRepresentation": 0,
      "PixelSpacing": [2.0, 2.0],
      "ProtocolName": "func_task-friends-s02e05a",
      "RepetitionTime": 1490.0,
      "Rows": 832,
      "SAR": 0.03234802052049,
      "SamplesPerPixel": 1,
      "ScanOptions": "FS",
      "ScanningSequence": "EP",
      "SequenceName": "epfid2d1_104",
      "SequenceVariant": [
        "SK",
        "SS"
],
      "SeriesDescription": "func_task-friends-s02e05a",
      "SeriesNumber": 21,
      "SeriesTime": "194235.017000",
      "SliceLocation": -44.702786039578,
      "SliceThickness": 2.0,
      "SmallestImagePixelValue": 0,
      "SoftwareVersions": "syngo MR E11",
      "SpacingBetweenSlices": 1.9999999463414,
      "SpecificCharacterSet": "ISO_IR 100",
      "StudyID": "1",
      "StudyTime": "180717.362000",
      "TransmitCoilName": "Body",
      "VariableFlipAngleFlag": "N",
      "WindowCenterWidthExplanation": "Algo1",
      "dBdt": 0.0},
    "slices": {}
  },
  "time": {
    "samples": {
      "AcquisitionNumber": [1, 2, 3, 4, 5, 6, 7, 8, 9, 10, 11, 12, 13, 14, 15, 16, 17, 18, 19, 20, 21, 22, 23, 24, 25, 26, 27, 28, 29, 30, 31, 32, 33, 34, 35, 36, 37, 38, 39, 40, 41, 42, 43, 44, 45, 46, 47, 48, 49, 50, 51, 52, 53, 54, 55, 56, 57, 58, 59, 60, 61, 62, 63, 64, 65, 66, 67, 68, 69, 70, 71, 72, 73, 74, 75, 76, 77, 78, 79, 80, 81, 82, 83, 84, 85, 86, 87, 88, 89, 90, 91, 92, 93, 94, 95, 96, 97, 98, 99, 100, 101, 102, 103, 104, 105, 106, 107, 108, 109, 110, 111, 112, 113, 114, 115, 116, 117, 118, 119, 120, 121, 122, 123, 124, 125, 126, 127, 128, 129, 130, 131, 132, 133, 134, 135, 136, 137, 138, 139, 140, 141, 142, 143, 144, 145, 146, 147, 148, 149, 150, 151, 152, 153, 154, 155, 156, 157, 158, 159, 160, 161, 162, 163, 164, 165, 166, 167, 168, 169, 170, 171, 172, 173, 174, 175, 176, 177, 178, 179, 180, 181, 182, 183, 184, 185, 186, 187, 188, 189, 190, 191, 192, 193, 194, 195, 196, 197, 198, 199, 200, 201, 202, 203, 204, 205, 206, 207, 208, 209, 210, 211, 212, 213, 214, 215, 216, 217, 218, 219, 220, 221, 222, 223, 224, 225, 226, 227, 228, 229, 230, 231, 232, 233, 234, 235, 236, 237, 238, 239, 240, 241, 242, 243, 244, 245, 246, 247, 248, 249, 250, 251, 252, 253, 254, 255, 256, 257, 258, 259, 260, 261, 262, 263, 264, 265, 266, 267, 268, 269, 270, 271, 272, 273, 274, 275, 276, 277, 278, 279, 280, 281, 282, 283, 284, 285, 286, 287, 288, 289, 290, 291, 292, 293, 294, 295, 296, 297, 298, 299, 300, 301, 302, 303, 304, 305, 306, 307, 308, 309, 310, 311, 312, 313, 314, 315, 316, 317, 318, 319, 320, 321, 322, 323, 324, 325, 326, 327, 328, 329, 330, 331, 332, 333, 334, 335, 336, 337, 338, 339, 340, 341, 342, 343, 344, 345, 346, 347, 348, 349, 350, 351, 352, 353, 354, 355, 356, 357, 358, 359, 360, 361, 362, 363, 364, 365, 366, 367, 368, 369, 370, 371, 372, 373, 374, 375, 376, 377, 378, 379, 380, 381, 382, 383, 384, 385, 386, 387, 388, 389, 390, 391, 392, 393, 394, 395, 396, 397, 398, 399, 400, 401, 402, 403, 404, 405, 406, 407, 408, 409, 410, 411, 412, 413, 414, 415, 416, 417, 418, 419, 420, 421, 422, 423, 424, 425, 426, 427, 428, 429, 430, 431, 432, 433, 434, 435, 436, 437, 438, 439, 440, 441, 442, 443, 444, 445, 446, 447, 448, 449, 450, 451, 452, 453, 454, 455],
      "AcquisitionTime": ["194122.157500", "194123.647500", "194125.137500", "194126.627500", "194128.117500", "194129.607500", "194131.097500", "194132.587500", "194134.077500", "194135.567500", "194137.057500", "194138.547500", "194140.037500", "194141.527500", "194143.017500", "194144.507500", "194145.997500", "194147.487500", "194148.977500", "194150.467500", "194151.957500", "194153.447500", "194154.937500", "194156.427500", "194157.917500", "194159.407500", "194200.897500", "194202.387500", "194203.877500", "194205.367500", "194206.857500", "194208.347500", "194209.837500", "194211.327500", "194212.817500", "194214.307500", "194215.797500", "194217.287500", "194218.777500", "194220.267500", "194221.757500", "194223.247500", "194224.737500", "194226.227500", "194227.717500", "194229.207500", "194230.697500", "194232.187500", "194233.677500", "194235.167500", "194236.657500", "194238.147500", "194239.637500", "194241.127500", "194242.617500", "194244.107500", "194245.597500", "194247.087500", "194248.577500", "194250.067500", "194251.557500", "194253.047500", "194254.537500", "194256.027500", "194257.517500", "194259.007500", "194300.497500", "194301.987500", "194303.477500", "194304.967500", "194306.457500", "194307.947500", "194309.437500", "194310.927500", "194312.417500", "194313.907500", "194315.397500", "194316.887500", "194318.377500", "194319.867500", "194321.357500", "194322.847500", "194324.337500", "194325.827500", "194327.317500", "194328.807500", "194330.297500", "194331.787500", "194333.277500", "194334.767500", "194336.257500", "194337.747500", "194339.237500", "194340.727500", "194342.217500", "194343.707500", "194345.197500", "194346.687500", "194348.177500", "194349.667500", "194351.157500", "194352.647500", "194354.137500", "194355.627500", "194357.117500", "194358.607500", "194400.097500", "194401.587500", "194403.077500", "194404.567500", "194406.057500", "194407.547500", "194409.037500", "194410.527500", "194412.017500", "194413.507500", "194414.997500", "194416.487500", "194417.977500", "194419.467500", "194420.957500", "194422.447500", "194423.937500", "194425.427500", "194426.917500", "194428.407500", "194429.897500", "194431.387500", "194432.877500", "194434.367500", "194435.857500", "194437.347500", "194438.837500", "194440.327500", "194441.817500", "194443.307500", "194444.797500", "194446.287500", "194447.777500", "194449.267500", "194450.757500", "194452.247500", "194453.737500", "194455.227500", "194456.717500", "194458.207500", "194459.697500", "194501.187500", "194502.677500", "194504.167500", "194505.657500", "194507.147500", "194508.637500", "194510.127500", "194511.617500", "194513.107500", "194514.597500", "194516.087500", "194517.577500", "194519.067500", "194520.557500", "194522.047500", "194523.537500", "194525.027500", "194526.517500", "194528.007500", "194529.497500", "194530.987500", "194532.477500", "194533.967500", "194535.457500", "194536.947500", "194538.437500", "194539.927500", "194541.417500", "194542.907500", "194544.397500", "194545.887500", "194547.377500", "194548.867500", "194550.357500", "194551.847500", "194553.337500", "194554.827500", "194556.317500", "194557.807500", "194559.297500", "194600.787500", "194602.277500", "194603.767500", "194605.257500", "194606.747500", "194608.237500", "194609.727500", "194611.217500", "194612.707500", "194614.197500", "194615.687500", "194617.177500", "194618.667500", "194620.157500", "194621.647500", "194623.137500", "194624.627500", "194626.117500", "194627.607500", "194629.097500", "194630.587500", "194632.077500", "194633.567500", "194635.057500", "194636.547500", "194638.037500", "194639.527500", "194641.017500", "194642.507500", "194643.997500", "194645.487500", "194646.977500", "194648.467500", "194649.957500", "194651.447500", "194652.937500", "194654.427500", "194655.917500", "194657.407500", "194658.897500", "194700.387500", "194701.877500", "194703.367500", "194704.857500", "194706.347500", "194707.837500", "194709.327500", "194710.817500", "194712.307500", "194713.797500", "194715.287500", "194716.777500", "194718.267500", "194719.757500", "194721.247500", "194722.737500", "194724.227500", "194725.717500", "194727.207500", "194728.697500", "194730.187500", "194731.677500", "194733.167500", "194734.657500", "194736.147500", "194737.637500", "194739.127500", "194740.617500", "194742.107500", "194743.597500", "194745.087500", "194746.577500", "194748.067500", "194749.557500", "194751.047500", "194752.537500", "194754.027500", "194755.517500", "194757.007500", "194758.497500", "194759.987500", "194801.477500", "194802.967500", "194804.457500", "194805.947500", "194807.437500", "194808.927500", "194810.417500", "194811.907500", "194813.397500", "194814.887500", "194816.377500", "194817.867500", "194819.357500", "194820.847500", "194822.337500", "194823.827500", "194825.317500", "194826.807500", "194828.297500", "194829.787500", "194831.277500", "194832.767500", "194834.257500", "194835.747500", "194837.237500", "194838.727500", "194840.217500", "194841.707500", "194843.197500", "194844.687500", "194846.177500", "194847.667500", "194849.157500", "194850.647500", "194852.137500", "194853.627500", "194855.117500", "194856.607500", "194858.097500", "194859.587500", "194901.077500", "194902.567500", "194904.057500", "194905.547500", "194907.037500", "194908.527500", "194910.017500", "194911.507500", "194912.997500", "194914.487500", "194915.977500", "194917.467500", "194918.957500", "194920.447500", "194921.937500", "194923.427500", "194924.917500", "194926.407500", "194927.897500", "194929.387500", "194930.877500", "194932.367500", "194933.857500", "194935.347500", "194936.837500", "194938.327500", "194939.817500", "194941.307500", "194942.797500", "194944.287500", "194945.777500", "194947.267500", "194948.757500", "194950.247500", "194951.737500", "194953.227500", "194954.717500", "194956.207500", "194957.697500", "194959.187500", "195000.677500", "195002.167500", "195003.657500", "195005.147500", "195006.637500", "195008.127500", "195009.617500", "195011.107500", "195012.597500", "195014.087500", "195015.577500", "195017.067500", "195018.557500", "195020.047500", "195021.537500", "195023.027500", "195024.517500", "195026.007500", "195027.497500", "195028.987500", "195030.477500", "195031.967500", "195033.457500", "195034.947500", "195036.437500", "195037.927500", "195039.417500", "195040.907500", "195042.397500", "195043.887500", "195045.377500", "195046.867500", "195048.357500", "195049.847500", "195051.337500", "195052.827500", "195054.317500", "195055.807500", "195057.297500", "195058.787500", "195100.277500", "195101.767500", "195103.257500", "195104.747500", "195106.237500", "195107.727500", "195109.217500", "195110.707500", "195112.197500", "195113.687500", "195115.177500", "195116.667500", "195118.157500", "195119.647500", "195121.137500", "195122.627500", "195124.117500", "195125.607500", "195127.097500", "195128.587500", "195130.077500", "195131.567500", "195133.057500", "195134.547500", "195136.037500", "195137.527500", "195139.017500", "195140.507500", "195141.997500", "195143.487500", "195144.977500", "195146.467500", "195147.957500", "195149.447500", "195150.937500", "195152.427500", "195153.917500", "195155.407500", "195156.897500", "195158.387500", "195159.877500", "195201.367500", "195202.857500", "195204.347500", "195205.837500", "195207.327500", "195208.817500", "195210.307500", "195211.797500", "195213.287500", "195214.777500", "195216.267500", "195217.757500", "195219.247500", "195220.737500", "195222.227500", "195223.717500", "195225.207500", "195226.697500", "195228.187500", "195229.677500", "195231.167500", "195232.657500", "195234.147500", "195235.637500", "195237.127500", "195238.617500"],
      "ContentTime": ["194235.020000", "194235.023000", "194235.026000", "194235.029000", "194235.032000", "194235.041000", "194235.044000", "194235.046000", "194235.049000", "194235.052000", "194235.055000", "194235.058000", "194235.061000", "194235.064000", "194235.067000", "194235.070000", "194235.073000", "194235.076000", "194235.078000", "194235.081000", "194254.981000", "194254.984000", "194254.987000", "194254.990000", "194254.993000", "194254.996000", "194255.000000", "194255.002000", "194255.005000", "194255.008000", "194255.011000", "194255.014000", "194255.017000", "194255.020000", "194255.023000", "194255.026000", "194255.029000", "194255.031000", "194255.034000", "194255.037000", "194314.981000", "194314.984000", "194314.987000", "194314.990000", "194314.992000", "194314.995000", "194314.998000", "194315.002000", "194315.005000", "194315.008000", "194315.011000", "194315.014000", "194315.017000", "194315.020000", "194315.023000", "194315.025000", "194315.028000", "194315.031000", "194315.034000", "194315.037000", "194334.981000", "194334.984000", "194334.987000", "194334.990000", "194334.992000", "194334.995000", "194334.998000", "194335.002000", "194335.005000", "194335.008000", "194335.011000", "194335.014000", "194335.017000", "194335.020000", "194335.023000", "194335.025000", "194335.028000", "194335.031000", "194335.034000", "194335.037000", "194354.981000", "194354.984000", "194354.987000", "194354.990000", "194354.993000", "194354.996000", "194354.998000", "194355.002000", "194355.005000", "194355.008000", "194355.011000", "194355.014000", "194355.017000", "194355.020000", "194355.023000", "194355.026000", "194355.028000", "194355.031000", "194355.034000", "194355.037000", "194355.040000", "194434.982000", "194434.985000", "194434.988000", "194434.991000", "194434.994000", "194434.997000", "194435.001000", "194435.003000", "194435.006000", "194435.009000", "194435.012000", "194435.015000", "194435.018000", "194435.021000", "194435.024000", "194435.027000", "194435.030000", "194435.033000", "194435.036000", "194435.038000", "194435.041000", "194435.044000", "194435.047000", "194435.050000", "194435.053000", "194435.056000", "194435.059000", "194435.062000", "194514.981000", "194514.984000", "194514.987000", "194514.990000", "194514.993000", "194514.996000", "194515.000000", "194515.003000", "194515.006000", "194515.009000", "194515.012000", "194515.015000", "194515.017000", "194515.020000", "194515.023000", "194515.026000", "194515.029000", "194515.032000", "194515.035000", "194515.038000", "194515.041000", "194515.044000", "194515.047000", "194515.050000", "194515.054000", "194515.057000", "194554.981000", "194554.984000", "194554.987000", "194554.990000", "194554.993000", "194555.008000", "194555.011000", "194555.014000", "194555.017000", "194555.019000", "194555.022000", "194555.025000", "194555.028000", "194555.031000", "194555.034000", "194555.037000", "194555.040000", "194555.043000", "194555.046000", "194555.049000", "194555.052000", "194555.054000", "194555.057000", "194555.060000", "194555.063000", "194555.066000", "194555.069000", "194634.982000", "194634.985000", "194634.988000", "194634.991000", "194634.994000", "194634.997000", "194635.000000", "194635.003000", "194635.006000", "194635.009000", "194635.012000", "194635.014000", "194635.017000", "194635.020000", "194635.023000", "194635.026000", "194635.029000", "194635.032000", "194635.035000", "194635.038000", "194635.041000", "194635.043000", "194635.046000", "194635.049000", "194635.052000", "194635.055000", "194635.058000", "194714.982000", "194714.985000", "194714.988000", "194714.991000", "194714.994000", "194714.997000", "194715.001000", "194715.004000", "194715.007000", "194715.010000", "194715.013000", "194715.016000", "194715.019000", "194715.021000", "194715.024000", "194715.027000", "194715.030000", "194715.033000", "194715.036000", "194715.039000", "194715.042000", "194715.045000", "194715.048000", "194715.051000", "194715.063000", "194715.066000", "194715.069000", "194754.981000", "194754.984000", "194754.987000", "194754.990000", "194754.993000", "194754.996000", "194755.000000", "194755.003000", "194755.006000", "194755.009000", "194755.012000", "194755.014000", "194755.017000", "194755.020000", "194755.023000", "194755.026000", "194755.029000", "194755.032000", "194755.035000", "194755.038000", "194755.041000", "194755.044000", "194755.047000", "194755.050000", "194755.052000", "194755.055000", "194755.058000", "194834.981000", "194834.984000", "194834.987000", "194834.990000", "194834.993000", "194834.996000", "194835.000000", "194835.003000", "194835.006000", "194835.009000", "194835.011000", "194835.014000", "194835.017000", "194835.020000", "194835.023000", "194835.026000", "194835.029000", "194835.032000", "194835.035000", "194835.038000", "194835.041000", "194835.044000", "194835.047000", "194835.049000", "194835.052000", "194835.055000", "194835.058000", "194914.982000", "194914.985000", "194914.988000", "194914.991000", "194914.994000", "194914.997000", "194915.001000", "194915.004000", "194915.007000", "194915.010000", "194915.013000", "194915.015000", "194915.018000", "194915.021000", "194915.024000", "194915.027000", "194915.030000", "194915.033000", "194915.036000", "194915.039000", "194915.042000", "194915.045000", "194915.048000", "194915.051000", "194915.054000", "194915.056000", "194915.059000", "194954.981000", "194954.984000", "194954.987000", "194954.990000", "194954.993000", "194954.996000", "194955.000000", "194955.003000", "194955.006000", "194955.009000", "194955.012000", "194955.015000", "194955.017000", "194955.020000", "194955.023000", "194955.026000", "194955.029000", "194955.032000", "194955.035000", "194955.038000", "194955.041000", "194955.044000", "194955.047000", "194955.050000", "194955.053000", "194955.057000", "195034.981000", "195034.984000", "195034.987000", "195034.990000", "195034.993000", "195034.996000", "195035.000000", "195035.003000", "195035.006000", "195035.009000", "195035.012000", "195035.015000", "195035.018000", "195035.021000", "195035.024000", "195035.027000", "195035.030000", "195035.033000", "195035.045000", "195035.048000", "195035.051000", "195035.054000", "195035.057000", "195035.060000", "195035.063000", "195035.066000", "195035.069000", "195114.982000", "195114.985000", "195114.988000", "195114.991000", "195114.994000", "195114.997000", "195115.000000", "195115.003000", "195115.006000", "195115.009000", "195115.012000", "195115.015000", "195115.018000", "195115.021000", "195115.024000", "195115.027000", "195115.030000", "195115.033000", "195115.036000", "195115.039000", "195115.042000", "195115.045000", "195115.048000", "195115.051000", "195115.054000", "195115.057000", "195115.060000", "195154.981000", "195154.984000", "195154.987000", "195154.990000", "195154.993000", "195154.996000", "195155.000000", "195155.003000", "195155.006000", "195155.009000", "195155.012000", "195155.015000", "195155.018000", "195155.021000", "195155.024000", "195155.027000", "195155.030000", "195155.033000", "195155.036000", "195155.039000", "195155.042000", "195155.051000", "195155.054000", "195155.057000", "195155.060000", "195155.063000", "195155.066000", "195234.981000", "195234.984000", "195234.987000", "195234.990000", "195234.993000", "195234.996000", "195235.000000", "195235.003000", "195235.006000", "195235.009000", "195235.012000", "195235.015000", "195235.018000", "195235.021000", "195235.024000", "195235.027000", "195235.030000", "195235.033000", "195235.036000", "195235.039000", "195235.042000", "195235.045000", "195235.048000", "195235.051000", "195235.054000", "195235.057000", "195235.060000", "195240.618000", "195240.621000", "195240.624000", "195240.627000"],
