{
  "AcquisitionMatrixPE": 104,
  "AcquisitionNumber": 1,
  "AcquisitionTime": "19:53:8.377500",
  "BandwidthPerPixelPhaseEncode": 17.17,
  "BaseResolution": 104,
  "BodyPartExamined": "BRAIN",
  "CoilString": "HC1-7;NC1_2",
  "ConsistencyInfo": "N4_VE11C_LATEST_20160120",
  "ConversionSoftware": "dcm2niix",
  "ConversionSoftwareVersion": "v1.0.20190720  (JP2:OpenJPEG) GCC7.3.0",
  "DerivedVendorReportedEchoSpacing": 0.000560011,
  "DeviceSerialNumber": "167006",
  "DwellTime": 2.1e-06,
  "EchoTime": 0.037,
  "EchoTrainLength": 104,
  "EffectiveEchoSpacing": 0.000560011,
  "FlipAngle": 52,
  "ImageComments": "Unaliased_MB4_PE3_LB",
  "ImageOrientationPatientDICOM": [0.999854, -0.0132422, -0.0107974, 0.00802746, 0.921917, -0.387304],
  "ImageType": [
    "ORIGINAL",
    "PRIMARY",
    "M",
    "MB",
    "ND",
    "MOSAIC"
],
  "ImagingFrequency": 123.259,
  "InPlanePhaseEncodingDirectionDICOM": "COL",
  "InstitutionAddress": "Chemin_Queen-Mary_4565_Montreal_District_CA_H3W_1W5",
  "InstitutionName": "IUGM",
  "InstitutionalDepartmentName": "Department",
  "MRAcquisitionType": "2D",
  "MagneticFieldStrength": 3,
  "Manufacturer": "Siemens",
  "ManufacturersModelName": "Prisma_fit",
  "Modality": "MR",
  "MultibandAccelerationFactor": 4,
  "PartialFourier": 1,
  "PatientPosition": "HFS",
  "PercentPhaseFOV": 100,
  "PhaseEncodingDirection": "j",
  "PhaseEncodingSteps": 104,
  "PhaseResolution": 1,
  "PixelBandwidth": 2290,
  "ProcedureStepDescription": "video_friends",
  "ProtocolName": "func_task-friends-s02e05b",
  "PulseSequenceDetails": "%CustomerSeq%_cmrr_mbep2d_bold",
  "ReceiveCoilActiveElements": "HC1-7;NC1,2",
  "ReceiveCoilName": "HeadNeck_64",
  "ReconMatrixPE": 104,
  "RepetitionTime": 1.49,
  "SAR": 0.032348,
  "ScanOptions": "FS",
  "ScanningSequence": "EP",
  "SequenceName": "epfid2d1_104",
  "SequenceVariant": "SK_SS",
  "SeriesDescription": "func_task-friends-s02e05b",
  "SeriesNumber": 23,
  "ShimSetting": [610, -7261, -8853, 409, -8, -459, 4, 34],
  "SliceThickness": 2,
  "SliceTiming": [0, 0.7825, 0.0975, 0.88, 0.195, 0.98, 0.2925, 1.0775, 0.39, 1.175, 0.49, 1.2725, 0.5875, 1.37, 0.685, 0, 0.7825, 0.0975, 0.88, 0.195, 0.98, 0.2925, 1.0775, 0.39, 1.175, 0.49, 1.2725, 0.5875, 1.37, 0.685, 0, 0.7825, 0.0975, 0.88, 0.195, 0.98, 0.2925, 1.0775, 0.39, 1.175, 0.49, 1.2725, 0.5875, 1.37, 0.685, 0, 0.7825, 0.0975, 0.88, 0.195, 0.98, 0.2925, 1.0775, 0.39, 1.175, 0.49, 1.2725, 0.5875, 1.37, 0.685],
  "SoftwareVersions": "syngo_MR_E11",
  "SpacingBetweenSlices": 2,
  "StationName": "MRC35049",
  "TaskName": "friends",
  "TotalReadoutTime": 0.0576811,
  "TxRefAmp": 233.046,
  "WipMemBlock": "5f230812-b075-4bee-ac44-c7ef7430337c||Sequence: R016 ve11c/master r/e634e98; Dec 19 2017 11:00:25 by eja",
  "dcmmeta_affine": [
    [-1.9997080564498901, 0.0160549134016037, -0.0301661379635334, 99.83773040771484],
    [0.02648431621491909, 1.8438340425491333, -0.7743218541145325, -69.74796295166016],
    [-0.02159484289586544, 0.774608314037323, 1.8437775373458862, -76.148681640625],
    [0.0, 0.0, 0.0, 1.0]
],
  "dcmmeta_reorient_transform": [
    [0.0, -1.0, 0.0, 103.0],
    [1.0, 0.0, 0.0, 0.0],
    [0.0, 0.0, 1.0, 0.0],
    [0.0, 0.0, 0.0, 1.0]
],
  "dcmmeta_shape": [104, 104, 60, 455],
  "dcmmeta_slice_dim": 2,
  "dcmmeta_version": 0.6,
  "global": {
    "const": {
      "AcquisitionMatrix": [104, 0, 0, 104],
      "AngioFlag": "N",
      "BitsAllocated": 16,
      "BitsStored": 16,
      "BodyPartExamined": "BRAIN",
      "Columns": 832,
      "EchoNumbers": 1,
      "EchoTime": 37.0,
      "EchoTrainLength": 104,
      "FlipAngle": 52.0,
      "HighBit": 15,
      "ImageOrientationPatient": [0.99985401982113, -0.0132421578088, -0.0107974211779, 0.0080274567593, 0.92191704983191, -0.3873041610507],
      "ImagePositionPatient": [-835.22910305922, -781.6822669381, 293.45392629577],
      "ImageType": [
        "ORIGINAL",
        "PRIMARY",
        "M",
        "MB",
        "ND",
        "MOSAIC"
],
      "ImagedNucleus": "1H",
      "ImagingFrequency": 123.259135,
      "InPlanePhaseEncodingDirection": "COL",
      "MRAcquisitionType": "2D",
      "MagneticFieldStrength": 3.0,
      "Manufacturer": "SIEMENS",
      "ManufacturerModelName": "Prisma_fit",
      "Modality": "MR",
      "NumberOfAverages": 1.0,
      "NumberOfPhaseEncodingSteps": 104,
      "PercentPhaseFieldOfView": 100.0,
      "PercentSampling": 100.0,
      "PerformedProcedureStepStartTime": "180717.497000",
      "PhotometricInterpretation": "MONOCHROME2",
      "PixelBandwidth": 2290.0,
      "PixelRepresentation": 0,
      "PixelSpacing": [2.0, 2.0],
      "ProtocolName": "func_task-friends-s02e05b",
      "RepetitionTime": 1490.0,
      "Rows": 832,
      "SAR": 0.03234802052049,
      "SamplesPerPixel": 1,
      "ScanOptions": "FS",
      "ScanningSequence": "EP",
      "SequenceName": "epfid2d1_104",
      "SequenceVariant": [
        "SK",
        "SS"
],
      "SeriesDescription": "func_task-friends-s02e05b",
      "SeriesNumber": 23,
      "SeriesTime": "195431.259000",
      "SliceLocation": -44.702786039578,
      "SliceThickness": 2.0,
      "SmallestImagePixelValue": 0,
      "SoftwareVersions": "syngo MR E11",
      "SpacingBetweenSlices": 1.9999999463414,
      "SpecificCharacterSet": "ISO_IR 100",
      "StudyID": "1",
      "StudyTime": "180717.362000",
      "TransmitCoilName": "Body",
      "VariableFlipAngleFlag": "N",
      "WindowCenterWidthExplanation": "Algo1",
      "dBdt": 0.0},
    "slices": {}
  },
  "time": {
    "samples": {
      "AcquisitionNumber": [1, 2, 3, 4, 5, 6, 7, 8, 9, 10, 11, 12, 13, 14, 15, 16, 17, 18, 19, 20, 21, 22, 23, 24, 25, 26, 27, 28, 29, 30, 31, 32, 33, 34, 35, 36, 37, 38, 39, 40, 41, 42, 43, 44, 45, 46, 47, 48, 49, 50, 51, 52, 53, 54, 55, 56, 57, 58, 59, 60, 61, 62, 63, 64, 65, 66, 67, 68, 69, 70, 71, 72, 73, 74, 75, 76, 77, 78, 79, 80, 81, 82, 83, 84, 85, 86, 87, 88, 89, 90, 91, 92, 93, 94, 95, 96, 97, 98, 99, 100, 101, 102, 103, 104, 105, 106, 107, 108, 109, 110, 111, 112, 113, 114, 115, 116, 117, 118, 119, 120, 121, 122, 123, 124, 125, 126, 127, 128, 129, 130, 131, 132, 133, 134, 135, 136, 137, 138, 139, 140, 141, 142, 143, 144, 145, 146, 147, 148, 149, 150, 151, 152, 153, 154, 155, 156, 157, 158, 159, 160, 161, 162, 163, 164, 165, 166, 167, 168, 169, 170, 171, 172, 173, 174, 175, 176, 177, 178, 179, 180, 181, 182, 183, 184, 185, 186, 187, 188, 189, 190, 191, 192, 193, 194, 195, 196, 197, 198, 199, 200, 201, 202, 203, 204, 205, 206, 207, 208, 209, 210, 211, 212, 213, 214, 215, 216, 217, 218, 219, 220, 221, 222, 223, 224, 225, 226, 227, 228, 229, 230, 231, 232, 233, 234, 235, 236, 237, 238, 239, 240, 241, 242, 243, 244, 245, 246, 247, 248, 249, 250, 251, 252, 253, 254, 255, 256, 257, 258, 259, 260, 261, 262, 263, 264, 265, 266, 267, 268, 269, 270, 271, 272, 273, 274, 275, 276, 277, 278, 279, 280, 281, 282, 283, 284, 285, 286, 287, 288, 289, 290, 291, 292, 293, 294, 295, 296, 297, 298, 299, 300, 301, 302, 303, 304, 305, 306, 307, 308, 309, 310, 311, 312, 313, 314, 315, 316, 317, 318, 319, 320, 321, 322, 323, 324, 325, 326, 327, 328, 329, 330, 331, 332, 333, 334, 335, 336, 337, 338, 339, 340, 341, 342, 343, 344, 345, 346, 347, 348, 349, 350, 351, 352, 353, 354, 355, 356, 357, 358, 359, 360, 361, 362, 363, 364, 365, 366, 367, 368, 369, 370, 371, 372, 373, 374, 375, 376, 377, 378, 379, 380, 381, 382, 383, 384, 385, 386, 387, 388, 389, 390, 391, 392, 393, 394, 395, 396, 397, 398, 399, 400, 401, 402, 403, 404, 405, 406, 407, 408, 409, 410, 411, 412, 413, 414, 415, 416, 417, 418, 419, 420, 421, 422, 423, 424, 425, 426, 427, 428, 429, 430, 431, 432, 433, 434, 435, 436, 437, 438, 439, 440, 441, 442, 443, 444, 445, 446, 447, 448, 449, 450, 451, 452, 453, 454, 455],
      "AcquisitionTime": ["195308.377500", "195309.867500", "195311.357500", "195312.847500", "195314.337500", "195315.827500", "195317.317500", "195318.807500", "195320.297500", "195321.787500", "195323.277500", "195324.767500", "195326.257500", "195327.747500", "195329.237500", "195330.727500", "195332.217500", "195333.707500", "195335.197500", "195336.687500", "195338.177500", "195339.667500", "195341.157500", "195342.647500", "195344.137500", "195345.627500", "195347.117500", "195348.607500", "195350.097500", "195351.587500", "195353.077500", "195354.567500", "195356.057500", "195357.547500", "195359.037500", "195400.527500", "195402.017500", "195403.507500", "195404.997500", "195406.487500", "195407.977500", "195409.467500", "195410.957500", "195412.447500", "195413.937500", "195415.427500", "195416.917500", "195418.407500", "195419.897500", "195421.387500", "195422.877500", "195424.367500", "195425.857500", "195427.347500", "195428.837500", "195430.327500", "195431.817500", "195433.307500", "195434.797500", "195436.287500", "195437.777500", "195439.267500", "195440.757500", "195442.247500", "195443.737500", "195445.227500", "195446.717500", "195448.207500", "195449.697500", "195451.187500", "195452.677500", "195454.167500", "195455.657500", "195457.147500", "195458.637500", "195500.127500", "195501.617500", "195503.107500", "195504.597500", "195506.087500", "195507.577500", "195509.067500", "195510.557500", "195512.047500", "195513.537500", "195515.027500", "195516.517500", "195518.007500", "195519.497500", "195520.987500", "195522.477500", "195523.967500", "195525.457500", "195526.947500", "195528.437500", "195529.927500", "195531.417500", "195532.907500", "195534.397500", "195535.887500", "195537.377500", "195538.867500", "195540.357500", "195541.847500", "195543.337500", "195544.827500", "195546.317500", "195547.807500", "195549.297500", "195550.787500", "195552.277500", "195553.767500", "195555.257500", "195556.747500", "195558.237500", "195559.727500", "195601.217500", "195602.707500", "195604.197500", "195605.687500", "195607.177500", "195608.667500", "195610.157500", "195611.647500", "195613.137500", "195614.627500", "195616.117500", "195617.607500", "195619.097500", "195620.587500", "195622.077500", "195623.567500", "195625.057500", "195626.547500", "195628.037500", "195629.527500", "195631.017500", "195632.507500", "195633.997500", "195635.487500", "195636.977500", "195638.467500", "195639.957500", "195641.447500", "195642.937500", "195644.427500", "195645.917500", "195647.407500", "195648.897500", "195650.387500", "195651.877500", "195653.367500", "195654.857500", "195656.347500", "195657.837500", "195659.327500", "195700.817500", "195702.307500", "195703.797500", "195705.287500", "195706.777500", "195708.267500", "195709.757500", "195711.247500", "195712.737500", "195714.227500", "195715.717500", "195717.207500", "195718.697500", "195720.187500", "195721.677500", "195723.167500", "195724.657500", "195726.147500", "195727.637500", "195729.127500", "195730.617500", "195732.107500", "195733.597500", "195735.087500", "195736.577500", "195738.067500", "195739.557500", "195741.047500", "195742.537500", "195744.027500", "195745.517500", "195747.007500", "195748.497500", "195749.987500", "195751.477500", "195752.967500", "195754.457500", "195755.947500", "195757.437500", "195758.927500", "195800.417500", "195801.907500", "195803.397500", "195804.887500", "195806.377500", "195807.867500", "195809.357500", "195810.847500", "195812.337500", "195813.827500", "195815.317500", "195816.807500", "195818.297500", "195819.787500", "195821.277500", "195822.767500", "195824.257500", "195825.747500", "195827.237500", "195828.727500", "195830.217500", "195831.707500", "195833.197500", "195834.687500", "195836.177500", "195837.667500", "195839.157500", "195840.647500", "195842.137500", "195843.627500", "195845.117500", "195846.607500", "195848.097500", "195849.587500", "195851.077500", "195852.567500", "195854.057500", "195855.547500", "195857.037500", "195858.527500", "195900.017500", "195901.507500", "195902.997500", "195904.487500", "195905.977500", "195907.467500", "195908.957500", "195910.447500", "195911.937500", "195913.427500", "195914.917500", "195916.407500", "195917.897500", "195919.387500", "195920.877500", "195922.367500", "195923.857500", "195925.347500", "195926.837500", "195928.327500", "195929.817500", "195931.307500", "195932.797500", "195934.287500", "195935.777500", "195937.267500", "195938.757500", "195940.247500", "195941.737500", "195943.227500", "195944.717500", "195946.207500", "195947.697500", "195949.187500", "195950.677500", "195952.167500", "195953.657500", "195955.147500", "195956.637500", "195958.127500", "195959.617500", "200001.107500", "200002.597500", "200004.087500", "200005.577500", "200007.067500", "200008.557500", "200010.047500", "200011.537500", "200013.027500", "200014.517500", "200016.007500", "200017.497500", "200018.987500", "200020.477500", "200021.967500", "200023.457500", "200024.947500", "200026.437500", "200027.927500", "200029.417500", "200030.907500", "200032.397500", "200033.887500", "200035.377500", "200036.867500", "200038.357500", "200039.847500", "200041.337500", "200042.827500", "200044.317500", "200045.807500", "200047.297500", "200048.787500", "200050.277500", "200051.767500", "200053.257500", "200054.747500", "200056.237500", "200057.727500", "200059.217500", "200100.707500", "200102.197500", "200103.687500", "200105.177500", "200106.667500", "200108.157500", "200109.647500", "200111.137500", "200112.627500", "200114.117500", "200115.607500", "200117.097500", "200118.587500", "200120.077500", "200121.567500", "200123.057500", "200124.547500", "200126.037500", "200127.527500", "200129.017500", "200130.507500", "200131.997500", "200133.487500", "200134.977500", "200136.467500", "200137.957500", "200139.447500", "200140.937500", "200142.427500", "200143.917500", "200145.407500", "200146.897500", "200148.387500", "200149.877500", "200151.367500", "200152.857500", "200154.347500", "200155.837500", "200157.327500", "200158.817500", "200200.307500", "200201.797500", "200203.287500", "200204.777500", "200206.267500", "200207.757500", "200209.247500", "200210.737500", "200212.227500", "200213.717500", "200215.207500", "200216.697500", "200218.187500", "200219.677500", "200221.167500", "200222.657500", "200224.147500", "200225.637500", "200227.127500", "200228.617500", "200230.107500", "200231.597500", "200233.087500", "200234.577500", "200236.067500", "200237.557500", "200239.047500", "200240.537500", "200242.027500", "200243.517500", "200245.007500", "200246.497500", "200247.987500", "200249.477500", "200250.967500", "200252.457500", "200253.947500", "200255.437500", "200256.927500", "200258.417500", "200259.907500", "200301.397500", "200302.887500", "200304.377500", "200305.867500", "200307.357500", "200308.847500", "200310.337500", "200311.827500", "200313.317500", "200314.807500", "200316.297500", "200317.787500", "200319.277500", "200320.767500", "200322.257500", "200323.747500", "200325.237500", "200326.727500", "200328.217500", "200329.707500", "200331.197500", "200332.687500", "200334.177500", "200335.667500", "200337.157500", "200338.647500", "200340.137500", "200341.627500", "200343.117500", "200344.607500", "200346.097500", "200347.587500", "200349.077500", "200350.567500", "200352.057500", "200353.547500", "200355.037500", "200356.527500", "200358.017500", "200359.507500", "200400.997500", "200402.487500", "200403.977500", "200405.467500", "200406.957500", "200408.447500", "200409.937500", "200411.427500", "200412.917500", "200414.407500", "200415.897500", "200417.387500", "200418.877500", "200420.367500", "200421.857500", "200423.347500", "200424.837500"],
      "ContentTime": ["195431.261000", "195431.265000", "195431.268000", "195431.271000", "195431.274000", "195431.277000", "195431.286000", "195431.289000", "195431.292000", "195431.295000", "195431.298000", "195431.301000", "195431.304000", "195431.306000", "195431.309000", "195431.312000", "195431.315000", "195431.318000", "195431.321000", "195431.324000", "195431.327000", "195431.330000", "195431.334000", "195431.337000", "195431.340000", "195431.343000", "195431.346000", "195431.354000", "195431.357000", "195451.227000", "195451.230000", "195451.233000", "195451.236000", "195451.239000", "195451.242000", "195451.245000", "195451.248000", "195451.251000", "195451.254000", "195451.257000", "195451.260000", "195451.263000", "195451.272000", "195451.274000", "195451.277000", "195451.280000", "195451.283000", "195451.286000", "195451.289000", "195511.227000", "195511.230000", "195511.233000", "195511.236000", "195511.239000", "195511.242000", "195511.245000", "195511.248000", "195511.251000", "195511.254000", "195511.257000", "195511.260000", "195511.263000", "195511.266000", "195511.268000", "195511.271000", "195511.274000", "195511.288000", "195511.291000", "195511.294000", "195531.227000", "195531.230000", "195531.234000", "195531.237000", "195531.240000", "195531.242000", "195531.246000", "195531.249000", "195531.251000", "195531.254000", "195531.258000", "195531.261000", "195531.263000", "195531.266000", "195531.269000", "195531.272000", "195531.275000", "195531.278000", "195531.283000", "195531.286000", "195551.227000", "195551.230000", "195551.233000", "195551.236000", "195551.239000", "195551.242000", "195551.245000", "195551.248000", "195551.251000", "195551.254000", "195551.257000", "195551.260000", "195551.263000", "195551.266000", "195551.269000", "195551.272000", "195551.275000", "195551.278000", "195551.281000", "195631.227000", "195631.230000", "195631.233000", "195631.236000", "195631.239000", "195631.242000", "195631.245000", "195631.248000", "195631.251000", "195631.254000", "195631.257000", "195631.260000", "195631.263000", "195631.266000", "195631.269000", "195631.272000", "195631.275000", "195631.278000", "195631.281000", "195631.284000", "195631.300000", "195631.303000", "195631.306000", "195631.309000", "195631.312000", "195631.315000", "195631.318000", "195711.227000", "195711.230000", "195711.233000", "195711.236000", "195711.239000", "195711.242000", "195711.245000", "195711.248000", "195711.251000", "195711.254000", "195711.257000", "195711.260000", "195711.263000", "195711.266000", "195711.269000", "195711.272000", "195711.275000", "195711.278000", "195711.281000", "195711.283000", "195711.286000", "195711.289000", "195711.292000", "195711.295000", "195711.298000", "195711.301000", "195711.304000", "195751.227000", "195751.230000", "195751.233000", "195751.236000", "195751.239000", "195751.242000", "195751.245000", "195751.248000", "195751.251000", "195751.254000", "195751.257000", "195751.260000", "195751.263000", "195751.266000", "195751.269000", "195751.272000", "195751.275000", "195751.278000", "195751.281000", "195751.284000", "195751.287000", "195751.290000", "195751.293000", "195751.296000", "195751.299000", "195751.302000", "195751.305000", "195831.226000", "195831.229000", "195831.232000", "195831.235000", "195831.238000", "195831.241000", "195831.244000", "195831.247000", "195831.250000", "195831.253000", "195831.256000", "195831.262000", "195831.264000", "195831.267000", "195831.271000", "195831.273000", "195831.276000", "195831.279000", "195831.282000", "195831.285000", "195831.288000", "195831.291000", "195831.294000", "195831.297000", "195831.300000", "195831.303000", "195831.306000", "195911.227000", "195911.230000", "195911.233000", "195911.236000", "195911.239000", "195911.242000", "195911.245000", "195911.248000", "195911.251000", "195911.254000", "195911.257000", "195911.260000", "195911.263000", "195911.266000", "195911.269000", "195911.272000", "195911.275000", "195911.278000", "195911.281000", "195911.284000", "195911.287000", "195911.290000", "195911.293000", "195911.296000", "195911.299000", "195911.302000", "195951.227000", "195951.230000", "195951.233000", "195951.236000", "195951.239000", "195951.242000", "195951.245000", "195951.248000", "195951.251000", "195951.254000", "195951.257000", "195951.260000", "195951.263000", "195951.266000", "195951.269000", "195951.272000", "195951.275000", "195951.278000", "195951.281000", "195951.284000", "195951.287000", "195951.290000", "195951.293000", "195951.296000", "195951.299000", "195951.312000", "195951.315000", "200031.227000", "200031.237000", "200031.240000", "200031.243000", "200031.246000", "200031.249000", "200031.252000", "200031.255000", "200031.258000", "200031.261000", "200031.264000", "200031.267000", "200031.270000", "200031.273000", "200031.276000", "200031.279000", "200031.282000", "200031.285000", "200031.288000", "200031.291000", "200031.294000", "200031.296000", "200031.300000", "200031.303000", "200031.305000", "200031.308000", "200031.312000", "200111.227000", "200111.230000", "200111.233000", "200111.236000", "200111.239000", "200111.242000", "200111.245000", "200111.248000", "200111.251000", "200111.254000", "200111.257000", "200111.260000", "200111.263000", "200111.266000", "200111.269000", "200111.272000", "200111.275000", "200111.285000", "200111.288000", "200111.291000", "200111.294000", "200111.297000", "200111.300000", "200111.303000", "200111.306000", "200111.309000", "200111.312000", "200151.227000", "200151.230000", "200151.233000", "200151.236000", "200151.239000", "200151.242000", "200151.245000", "200151.248000", "200151.251000", "200151.254000", "200151.257000", "200151.260000", "200151.263000", "200151.266000", "200151.269000", "200151.272000", "200151.275000", "200151.278000", "200151.281000", "200151.284000", "200151.287000", "200151.290000", "200151.293000", "200151.296000", "200151.299000", "200151.302000", "200151.305000", "200231.227000", "200231.230000", "200231.233000", "200231.236000", "200231.239000", "200231.242000", "200231.245000", "200231.248000", "200231.251000", "200231.254000", "200231.257000", "200231.260000", "200231.263000", "200231.266000", "200231.269000", "200231.272000", "200231.275000", "200231.278000", "200231.281000", "200231.284000", "200231.287000", "200231.290000", "200231.293000", "200231.296000", "200231.299000", "200231.302000", "200231.305000", "200311.226000", "200311.229000", "200311.232000", "200311.235000", "200311.238000", "200311.241000", "200311.249000", "200311.252000", "200311.255000", "200311.258000", "200311.261000", "200311.264000", "200311.267000", "200311.270000", "200311.273000", "200311.276000", "200311.279000", "200311.282000", "200311.285000", "200311.288000", "200311.291000", "200311.294000", "200311.297000", "200311.300000", "200311.303000", "200311.306000", "200311.309000", "200351.227000", "200351.230000", "200351.233000", "200351.236000", "200351.239000", "200351.242000", "200351.245000", "200351.248000", "200351.251000", "200351.254000", "200351.257000", "200351.260000", "200351.263000", "200351.266000", "200351.269000", "200351.272000", "200351.275000", "200351.278000", "200351.281000", "200351.284000", "200351.288000", "200351.291000", "200351.293000", "200351.296000", "200351.300000", "200351.303000", "200427.232000", "200427.235000", "200427.238000", "200427.241000", "200427.244000", "200427.247000", "200427.250000", "200427.253000", "200427.256000", "200427.259000", "200427.262000", "200427.265000", "200427.268000", "200427.271000", "200427.274000", "200427.277000", "200427.280000", "200427.283000", "200427.286000", "200427.289000", "200427.292000", "200427.295000", "200427.298000", "200427.301000", "200427.304000"],
