{
  "AcquisitionMatrixPE": 104,
  "AcquisitionNumber": 1,
  "AcquisitionTime": "14:05:38.150000",
  "BandwidthPerPixelPhaseEncode": 17.17,
  "BaseResolution": 104,
  "BodyPartExamined": "BRAIN",
  "CoilString": "HC1-7;NC1_2",
  "ConsistencyInfo": "N4_VE11C_LATEST_20160120",
  "ConversionSoftware": "dcm2niix",
  "ConversionSoftwareVersion": "v1.0.20190902",
  "DerivedVendorReportedEchoSpacing": 0.000560011,
  "DeviceSerialNumber": "167006",
  "DwellTime": 2.1e-06,
  "EchoTime": 0.037,
  "EchoTrainLength": 104,
  "EffectiveEchoSpacing": 0.000560011,
  "FlipAngle": 52,
  "ImageComments": "Unaliased_MB4_PE3_LB",
  "ImageOrientationPatientDICOM": [0.997814, -0.0153797, -0.0642694, -0.00104495, 0.968748, -0.248045],
  "ImageType": [
    "ORIGINAL",
    "PRIMARY",
    "M",
    "MB",
    "ND",
    "MOSAIC"
],
  "ImagingFrequency": 123.259,
  "InPlanePhaseEncodingDirectionDICOM": "COL",
  "InstitutionAddress": "Chemin_Queen-Mary_4565_Montreal_District_CA_H3W_1W5",
  "InstitutionName": "IUGM",
  "InstitutionalDepartmentName": "Department",
  "MRAcquisitionType": "2D",
  "MagneticFieldStrength": 3,
  "Manufacturer": "Siemens",
  "ManufacturersModelName": "Prisma_fit",
  "Modality": "MR",
  "MultibandAccelerationFactor": 4,
  "PartialFourier": 1,
  "PatientPosition": "HFS",
  "PercentPhaseFOV": 100,
  "PhaseEncodingDirection": "j",
  "PhaseEncodingSteps": 104,
  "PhaseResolution": 1,
  "PixelBandwidth": 2290,
  "ProcedureStepDescription": "video_friends",
  "ProtocolName": "func_task-friends-s03e14a",
  "PulseSequenceDetails": "%CustomerSeq%_cmrr_mbep2d_bold",
  "ReceiveCoilActiveElements": "HC1-7;NC1,2",
  "ReceiveCoilName": "HeadNeck_64",
  "ReconMatrixPE": 104,
  "RepetitionTime": 1.49,
  "SAR": 0.0288591,
  "ScanOptions": "FS",
  "ScanningSequence": "EP",
  "SequenceName": "epfid2d1_104",
  "SequenceVariant": "SK_SS",
  "SeriesDescription": "func_task-friends-s03e14a",
  "SeriesNumber": 17,
  "ShimSetting": [595, -7250, -8844, 590, -87, -279, 23, 34],
  "SliceThickness": 2,
  "SliceTiming": [0, 0.7825, 0.0975, 0.88, 0.195, 0.98, 0.2925, 1.0775, 0.39, 1.175, 0.49, 1.2725, 0.5875, 1.37, 0.685, 0, 0.7825, 0.0975, 0.88, 0.195, 0.98, 0.2925, 1.0775, 0.39, 1.175, 0.49, 1.2725, 0.5875, 1.37, 0.685, 0, 0.7825, 0.0975, 0.88, 0.195, 0.98, 0.2925, 1.0775, 0.39, 1.175, 0.49, 1.2725, 0.5875, 1.37, 0.685, 0, 0.7825, 0.0975, 0.88, 0.195, 0.98, 0.2925, 1.0775, 0.39, 1.175, 0.49, 1.2725, 0.5875, 1.37, 0.685],
  "SoftwareVersions": "syngo_MR_E11",
  "SpacingBetweenSlices": 2,
  "StationName": "MRC35049",
  "TaskName": "s03e14a",
  "TotalReadoutTime": 0.0576811,
  "TxRefAmp": 217.466,
  "WipMemBlock": "2db7da99-e2da-48af-bf16-3f096274ffc6||Sequence: R016 ve11c/master r/e634e98; Dec 19 2017 11:00:25 by eja",
  "dcmmeta_affine": [
    [-1.9956281185150146, -0.0020899001974612474, -0.13215148448944092, 101.95710754394531],
    [0.03075944446027279, 1.9374957084655762, -0.49514076113700867, -82.83389282226562],
    [-0.12853886187076569, 0.4960908591747284, 1.9332283735275269, -54.1446418762207],
    [0.0, 0.0, 0.0, 1.0]
],
  "dcmmeta_reorient_transform": [
    [0.0, -1.0, 0.0, 103.0],
    [1.0, 0.0, 0.0, 0.0],
    [0.0, 0.0, 1.0, 0.0],
    [0.0, 0.0, 0.0, 1.0]
],
  "dcmmeta_shape": [104, 104, 60, 458],
  "dcmmeta_slice_dim": 2,
  "dcmmeta_version": 0.6,
  "global": {
    "const": {
      "AcquisitionMatrix": [104, 0, 0, 104],
      "AngioFlag": "N",
      "BitsAllocated": 16,
      "BitsStored": 16,
      "BodyPartExamined": "BRAIN",
      "Columns": 832,
      "EchoNumbers": 1,
      "EchoTime": 37.0,
      "EchoTrainLength": 104,
      "FlipAngle": 52.0,
      "HighBit": 15,
      "ImageOrientationPatient": [0.99781406304251, -0.0153797221459, -0.0642694308463, -0.0010449501181, 0.96874783797491, -0.2480454282953],
      "ImagePositionPatient": [-827.38975861297, -810.78015322909, 224.3179324103],
      "ImageType": [
        "ORIGINAL",
        "PRIMARY",
        "M",
        "MB",
        "ND",
        "MOSAIC"
],
      "ImagedNucleus": "1H",
      "ImagingFrequency": 123.259055,
      "InPlanePhaseEncodingDirection": "COL",
      "MRAcquisitionType": "2D",
      "MagneticFieldStrength": 3.0,
      "Manufacturer": "SIEMENS",
      "ManufacturerModelName": "Prisma_fit",
      "Modality": "MR",
      "NumberOfAverages": 1.0,
      "NumberOfPhaseEncodingSteps": 104,
      "PercentPhaseFieldOfView": 100.0,
      "PercentSampling": 100.0,
      "PerformedProcedureStepStartTime": "111836.479000",
      "PhotometricInterpretation": "MONOCHROME2",
      "PixelBandwidth": 2290.0,
      "PixelRepresentation": 0,
      "PixelSpacing": [2.0, 2.0],
      "ProtocolName": "func_task-friends-s03e14a",
      "RepetitionTime": 1490.0,
      "Rows": 832,
      "SAR": 0.02885907981981,
      "SamplesPerPixel": 1,
      "ScanOptions": "FS",
      "ScanningSequence": "EP",
      "SequenceName": "epfid2d1_104",
      "SequenceVariant": [
        "SK",
        "SS"
],
      "SeriesDescription": "func_task-friends-s03e14a",
      "SeriesNumber": 17,
      "SeriesTime": "140657.198000",
      "SliceLocation": -38.566652240801,
      "SliceThickness": 2.0,
      "SmallestImagePixelValue": 0,
      "SoftwareVersions": "syngo MR E11",
      "SpacingBetweenSlices": 2.0000000248371,
      "SpecificCharacterSet": "ISO_IR 100",
      "StudyID": "1",
      "StudyTime": "111836.389000",
      "TransmitCoilName": "Body",
      "VariableFlipAngleFlag": "N",
      "WindowCenterWidthExplanation": "Algo1",
      "dBdt": 0.0},
    "slices": {}
  },
  "time": {
    "samples": {
      "AcquisitionNumber": [1, 2, 3, 4, 5, 6, 7, 8, 9, 10, 11, 12, 13, 14, 15, 16, 17, 18, 19, 20, 21, 22, 23, 24, 25, 26, 27, 28, 29, 30, 31, 32, 33, 34, 35, 36, 37, 38, 39, 40, 41, 42, 43, 44, 45, 46, 47, 48, 49, 50, 51, 52, 53, 54, 55, 56, 57, 58, 59, 60, 61, 62, 63, 64, 65, 66, 67, 68, 69, 70, 71, 72, 73, 74, 75, 76, 77, 78, 79, 80, 81, 82, 83, 84, 85, 86, 87, 88, 89, 90, 91, 92, 93, 94, 95, 96, 97, 98, 99, 100, 101, 102, 103, 104, 105, 106, 107, 108, 109, 110, 111, 112, 113, 114, 115, 116, 117, 118, 119, 120, 121, 122, 123, 124, 125, 126, 127, 128, 129, 130, 131, 132, 133, 134, 135, 136, 137, 138, 139, 140, 141, 142, 143, 144, 145, 146, 147, 148, 149, 150, 151, 152, 153, 154, 155, 156, 157, 158, 159, 160, 161, 162, 163, 164, 165, 166, 167, 168, 169, 170, 171, 172, 173, 174, 175, 176, 177, 178, 179, 180, 181, 182, 183, 184, 185, 186, 187, 188, 189, 190, 191, 192, 193, 194, 195, 196, 197, 198, 199, 200, 201, 202, 203, 204, 205, 206, 207, 208, 209, 210, 211, 212, 213, 214, 215, 216, 217, 218, 219, 220, 221, 222, 223, 224, 225, 226, 227, 228, 229, 230, 231, 232, 233, 234, 235, 236, 237, 238, 239, 240, 241, 242, 243, 244, 245, 246, 247, 248, 249, 250, 251, 252, 253, 254, 255, 256, 257, 258, 259, 260, 261, 262, 263, 264, 265, 266, 267, 268, 269, 270, 271, 272, 273, 274, 275, 276, 277, 278, 279, 280, 281, 282, 283, 284, 285, 286, 287, 288, 289, 290, 291, 292, 293, 294, 295, 296, 297, 298, 299, 300, 301, 302, 303, 304, 305, 306, 307, 308, 309, 310, 311, 312, 313, 314, 315, 316, 317, 318, 319, 320, 321, 322, 323, 324, 325, 326, 327, 328, 329, 330, 331, 332, 333, 334, 335, 336, 337, 338, 339, 340, 341, 342, 343, 344, 345, 346, 347, 348, 349, 350, 351, 352, 353, 354, 355, 356, 357, 358, 359, 360, 361, 362, 363, 364, 365, 366, 367, 368, 369, 370, 371, 372, 373, 374, 375, 376, 377, 378, 379, 380, 381, 382, 383, 384, 385, 386, 387, 388, 389, 390, 391, 392, 393, 394, 395, 396, 397, 398, 399, 400, 401, 402, 403, 404, 405, 406, 407, 408, 409, 410, 411, 412, 413, 414, 415, 416, 417, 418, 419, 420, 421, 422, 423, 424, 425, 426, 427, 428, 429, 430, 431, 432, 433, 434, 435, 436, 437, 438, 439, 440, 441, 442, 443, 444, 445, 446, 447, 448, 449, 450, 451, 452, 453, 454, 455, 456, 457, 458],
      "AcquisitionTime": ["140538.150000", "140539.640000", "140541.130000", "140542.620000", "140544.110000", "140545.600000", "140547.090000", "140548.580000", "140550.070000", "140551.560000", "140553.050000", "140554.540000", "140556.030000", "140557.520000", "140559.010000", "140600.500000", "140601.990000", "140603.480000", "140604.970000", "140606.460000", "140607.950000", "140609.440000", "140610.930000", "140612.420000", "140613.910000", "140615.400000", "140616.890000", "140618.380000", "140619.870000", "140621.360000", "140622.850000", "140624.340000", "140625.830000", "140627.320000", "140628.810000", "140630.300000", "140631.790000", "140633.280000", "140634.770000", "140636.260000", "140637.750000", "140639.240000", "140640.730000", "140642.220000", "140643.710000", "140645.200000", "140646.690000", "140648.180000", "140649.670000", "140651.160000", "140652.650000", "140654.140000", "140655.630000", "140657.120000", "140658.610000", "140700.100000", "140701.590000", "140703.080000", "140704.570000", "140706.060000", "140707.550000", "140709.040000", "140710.530000", "140712.020000", "140713.510000", "140715.000000", "140716.490000", "140717.980000", "140719.470000", "140720.960000", "140722.450000", "140723.940000", "140725.430000", "140726.920000", "140728.410000", "140729.900000", "140731.390000", "140732.880000", "140734.370000", "140735.860000", "140737.350000", "140738.840000", "140740.330000", "140741.820000", "140743.310000", "140744.800000", "140746.290000", "140747.780000", "140749.270000", "140750.760000", "140752.250000", "140753.740000", "140755.230000", "140756.720000", "140758.210000", "140759.700000", "140801.190000", "140802.680000", "140804.170000", "140805.660000", "140807.150000", "140808.640000", "140810.130000", "140811.620000", "140813.110000", "140814.600000", "140816.090000", "140817.580000", "140819.070000", "140820.560000", "140822.050000", "140823.540000", "140825.030000", "140826.520000", "140828.010000", "140829.500000", "140830.990000", "140832.480000", "140833.970000", "140835.460000", "140836.950000", "140838.440000", "140839.930000", "140841.420000", "140842.910000", "140844.400000", "140845.890000", "140847.380000", "140848.870000", "140850.360000", "140851.850000", "140853.340000", "140854.830000", "140856.320000", "140857.810000", "140859.300000", "140900.790000", "140902.280000", "140903.770000", "140905.260000", "140906.750000", "140908.240000", "140909.730000", "140911.220000", "140912.710000", "140914.200000", "140915.690000", "140917.180000", "140918.670000", "140920.160000", "140921.650000", "140923.140000", "140924.630000", "140926.120000", "140927.610000", "140929.100000", "140930.590000", "140932.080000", "140933.570000", "140935.060000", "140936.550000", "140938.040000", "140939.530000", "140941.020000", "140942.510000", "140944.000000", "140945.490000", "140946.980000", "140948.470000", "140949.960000", "140951.450000", "140952.940000", "140954.430000", "140955.920000", "140957.410000", "140958.900000", "141000.390000", "141001.880000", "141003.370000", "141004.860000", "141006.350000", "141007.840000", "141009.330000", "141010.820000", "141012.310000", "141013.800000", "141015.290000", "141016.780000", "141018.270000", "141019.760000", "141021.250000", "141022.740000", "141024.230000", "141025.720000", "141027.210000", "141028.700000", "141030.190000", "141031.680000", "141033.170000", "141034.660000", "141036.150000", "141037.640000", "141039.130000", "141040.620000", "141042.110000", "141043.600000", "141045.090000", "141046.580000", "141048.070000", "141049.560000", "141051.050000", "141052.540000", "141054.030000", "141055.520000", "141057.010000", "141058.500000", "141059.990000", "141101.480000", "141102.970000", "141104.460000", "141105.950000", "141107.440000", "141108.930000", "141110.420000", "141111.910000", "141113.400000", "141114.890000", "141116.380000", "141117.870000", "141119.360000", "141120.850000", "141122.340000", "141123.830000", "141125.320000", "141126.810000", "141128.300000", "141129.790000", "141131.280000", "141132.770000", "141134.260000", "141135.750000", "141137.240000", "141138.730000", "141140.220000", "141141.710000", "141143.200000", "141144.690000", "141146.180000", "141147.670000", "141149.160000", "141150.650000", "141152.140000", "141153.630000", "141155.120000", "141156.610000", "141158.100000", "141159.590000", "141201.080000", "141202.570000", "141204.060000", "141205.550000", "141207.040000", "141208.530000", "141210.020000", "141211.510000", "141213.000000", "141214.490000", "141215.980000", "141217.470000", "141218.960000", "141220.450000", "141221.940000", "141223.430000", "141224.920000", "141226.410000", "141227.900000", "141229.390000", "141230.880000", "141232.370000", "141233.860000", "141235.350000", "141236.840000", "141238.330000", "141239.820000", "141241.310000", "141242.800000", "141244.290000", "141245.780000", "141247.270000", "141248.760000", "141250.250000", "141251.740000", "141253.230000", "141254.720000", "141256.210000", "141257.700000", "141259.190000", "141300.680000", "141302.170000", "141303.660000", "141305.150000", "141306.640000", "141308.130000", "141309.620000", "141311.110000", "141312.600000", "141314.090000", "141315.580000", "141317.070000", "141318.560000", "141320.050000", "141321.540000", "141323.030000", "141324.520000", "141326.010000", "141327.500000", "141328.990000", "141330.480000", "141331.970000", "141333.460000", "141334.950000", "141336.440000", "141337.930000", "141339.420000", "141340.910000", "141342.400000", "141343.890000", "141345.380000", "141346.870000", "141348.360000", "141349.850000", "141351.340000", "141352.830000", "141354.320000", "141355.810000", "141357.300000", "141358.790000", "141400.280000", "141401.770000", "141403.260000", "141404.750000", "141406.240000", "141407.730000", "141409.220000", "141410.710000", "141412.200000", "141413.690000", "141415.180000", "141416.670000", "141418.160000", "141419.650000", "141421.140000", "141422.630000", "141424.120000", "141425.610000", "141427.100000", "141428.590000", "141430.080000", "141431.570000", "141433.060000", "141434.550000", "141436.040000", "141437.530000", "141439.020000", "141440.510000", "141442.000000", "141443.490000", "141444.980000", "141446.470000", "141447.960000", "141449.450000", "141450.940000", "141452.430000", "141453.920000", "141455.410000", "141456.900000", "141458.390000", "141459.880000", "141501.370000", "141502.860000", "141504.350000", "141505.840000", "141507.330000", "141508.820000", "141510.310000", "141511.800000", "141513.290000", "141514.780000", "141516.270000", "141517.760000", "141519.250000", "141520.740000", "141522.230000", "141523.720000", "141525.210000", "141526.700000", "141528.190000", "141529.680000", "141531.170000", "141532.660000", "141534.150000", "141535.640000", "141537.130000", "141538.620000", "141540.110000", "141541.600000", "141543.090000", "141544.580000", "141546.070000", "141547.560000", "141549.050000", "141550.540000", "141552.030000", "141553.520000", "141555.010000", "141556.500000", "141557.990000", "141559.480000", "141600.970000", "141602.460000", "141603.950000", "141605.440000", "141606.930000", "141608.420000", "141609.910000", "141611.400000", "141612.890000", "141614.380000", "141615.870000", "141617.360000", "141618.850000", "141620.340000", "141621.830000", "141623.320000", "141624.810000", "141626.300000", "141627.790000", "141629.280000", "141630.770000", "141632.260000", "141633.750000", "141635.240000", "141636.730000", "141638.220000", "141639.710000", "141641.200000", "141642.690000", "141644.180000", "141645.670000", "141647.160000", "141648.650000", "141650.140000", "141651.630000", "141653.120000", "141654.610000", "141656.100000", "141657.590000", "141659.080000"],
      "ContentTime": ["140657.200000", "140657.203000", "140657.206000", "140657.209000", "140657.212000", "140657.215000", "140657.218000", "140657.220000", "140657.230000", "140657.233000", "140657.236000", "140657.239000", "140657.242000", "140657.245000", "140657.247000", "140657.250000", "140657.253000", "140657.256000", "140657.259000", "140657.262000", "140657.264000", "140657.267000", "140657.270000", "140657.273000", "140657.276000", "140657.279000", "140657.281000", "140717.167000", "140717.170000", "140717.173000", "140717.175000", "140717.178000", "140717.181000", "140717.184000", "140717.187000", "140717.190000", "140717.193000", "140717.195000", "140717.198000", "140717.201000", "140717.204000", "140717.207000", "140717.210000", "140717.212000", "140717.215000", "140717.218000", "140717.221000", "140737.168000", "140737.174000", "140737.177000", "140737.180000", "140737.183000", "140737.186000", "140737.189000", "140737.191000", "140737.194000", "140737.197000", "140737.200000", "140737.203000", "140737.206000", "140737.208000", "140737.211000", "140737.214000", "140737.217000", "140737.220000", "140737.223000", "140737.225000", "140757.168000", "140757.171000", "140757.174000", "140757.177000", "140757.179000", "140757.182000", "140757.185000", "140757.188000", "140757.191000", "140757.194000", "140757.208000", "140757.210000", "140757.213000", "140757.216000", "140757.219000", "140757.222000", "140757.225000", "140757.227000", "140757.230000", "140757.233000", "140837.168000", "140837.171000", "140837.174000", "140837.193000", "140837.196000", "140837.199000", "140837.202000", "140837.204000", "140837.207000", "140837.210000", "140837.213000", "140837.216000", "140837.219000", "140837.221000", "140837.224000", "140837.227000", "140837.230000", "140837.245000", "140837.248000", "140837.251000", "140837.254000", "140837.257000", "140837.259000", "140837.262000", "140837.265000", "140837.268000", "140837.271000", "140837.273000", "140837.276000", "140837.279000", "140837.282000", "140837.285000", "140917.167000", "140917.170000", "140917.173000", "140917.175000", "140917.178000", "140917.181000", "140917.184000", "140917.187000", "140917.190000", "140917.193000", "140917.196000", "140917.198000", "140917.201000", "140917.204000", "140917.207000", "140917.210000", "140917.213000", "140917.215000", "140917.218000", "140917.221000", "140917.224000", "140917.227000", "140917.230000", "140917.233000", "140917.235000", "140917.238000", "140917.241000", "140957.168000", "140957.171000", "140957.174000", "140957.177000", "140957.186000", "140957.188000", "140957.191000", "140957.194000", "140957.197000", "140957.200000", "140957.203000", "140957.205000", "140957.208000", "140957.211000", "140957.214000", "140957.218000", "140957.220000", "140957.223000", "140957.226000", "140957.229000", "140957.232000", "140957.235000", "140957.238000", "140957.241000", "140957.243000", "140957.246000", "140957.249000", "141037.168000", "141037.171000", "141037.174000", "141037.177000", "141037.180000", "141037.183000", "141037.185000", "141037.188000", "141037.191000", "141037.194000", "141037.197000", "141037.200000", "141037.202000", "141037.205000", "141037.208000", "141037.211000", "141037.214000", "141037.217000", "141037.219000", "141037.222000", "141037.225000", "141037.228000", "141037.231000", "141037.234000", "141037.236000", "141037.239000", "141037.242000", "141117.168000", "141117.171000", "141117.174000", "141117.177000", "141117.179000", "141117.182000", "141117.185000", "141117.188000", "141117.194000", "141117.197000", "141117.200000", "141117.202000", "141117.205000", "141117.208000", "141117.211000", "141117.214000", "141117.217000", "141117.219000", "141117.222000", "141117.225000", "141117.228000", "141117.231000", "141117.234000", "141117.237000", "141117.239000", "141117.242000", "141117.245000", "141157.167000", "141157.170000", "141157.173000", "141157.176000", "141157.178000", "141157.181000", "141157.184000", "141157.187000", "141157.190000", "141157.193000", "141157.196000", "141157.198000", "141157.201000", "141157.204000", "141157.207000", "141157.210000", "141157.212000", "141157.215000", "141157.218000", "141157.221000", "141157.224000", "141157.227000", "141157.229000", "141157.232000", "141157.235000", "141157.238000", "141157.241000", "141237.168000", "141237.171000", "141237.174000", "141237.177000", "141237.179000", "141237.182000", "141237.185000", "141237.188000", "141237.191000", "141237.194000", "141237.197000", "141237.200000", "141237.202000", "141237.205000", "141237.209000", "141237.212000", "141237.216000", "141237.219000", "141237.222000", "141237.225000", "141237.228000", "141237.231000", "141237.234000", "141237.237000", "141237.239000", "141237.242000", "141317.168000", "141317.171000", "141317.174000", "141317.177000", "141317.180000", "141317.182000", "141317.185000", "141317.200000", "141317.202000", "141317.205000", "141317.208000", "141317.211000", "141317.214000", "141317.216000", "141317.219000", "141317.222000", "141317.225000", "141317.228000", "141317.230000", "141317.233000", "141317.236000", "141317.239000", "141317.242000", "141317.245000", "141317.248000", "141317.250000", "141317.253000", "141357.167000", "141357.170000", "141357.173000", "141357.176000", "141357.178000", "141357.181000", "141357.184000", "141357.187000", "141357.190000", "141357.193000", "141357.196000", "141357.199000", "141357.201000", "141357.204000", "141357.207000", "141357.210000", "141357.213000", "141357.216000", "141357.218000", "141357.221000", "141357.224000", "141357.227000", "141357.230000", "141357.233000", "141357.235000", "141357.238000", "141357.241000", "141437.168000", "141437.171000", "141437.174000", "141437.176000", "141437.179000", "141437.182000", "141437.185000", "141437.188000", "141437.191000", "141437.194000", "141437.197000", "141437.199000", "141437.202000", "141437.205000", "141437.208000", "141437.211000", "141437.213000", "141437.216000", "141437.219000", "141437.222000", "141437.225000", "141437.228000", "141437.230000", "141437.233000", "141437.236000", "141437.239000", "141437.242000", "141517.168000", "141517.171000", "141517.174000", "141517.176000", "141517.179000", "141517.182000", "141517.185000", "141517.188000", "141517.191000", "141517.194000", "141517.196000", "141517.199000", "141517.202000", "141517.205000", "141517.208000", "141517.211000", "141517.213000", "141517.216000", "141517.219000", "141517.222000", "141517.225000", "141517.228000", "141517.231000", "141517.233000", "141517.236000", "141517.239000", "141517.242000", "141557.168000", "141557.171000", "141557.174000", "141557.177000", "141557.180000", "141557.183000", "141557.186000", "141557.188000", "141557.191000", "141557.194000", "141557.197000", "141557.200000", "141557.203000", "141557.206000", "141557.208000", "141557.211000", "141557.214000", "141557.217000", "141557.220000", "141557.223000", "141557.226000", "141557.229000", "141557.232000", "141557.234000", "141557.237000", "141557.240000", "141557.243000", "141637.167000", "141637.170000", "141637.173000", "141637.176000", "141637.179000", "141637.182000", "141637.185000", "141637.188000", "141637.190000", "141637.193000", "141637.196000", "141637.199000", "141637.202000", "141637.205000", "141637.208000", "141637.210000", "141637.213000", "141637.216000", "141637.219000", "141637.222000", "141637.225000", "141637.228000", "141637.231000", "141637.234000", "141637.237000", "141637.240000", "141637.243000", "141700.982000", "141700.985000", "141700.988000", "141700.991000", "141700.994000", "141700.997000", "141701.001000", "141701.004000", "141701.007000", "141701.010000", "141701.012000", "141701.015000", "141701.018000", "141701.021000", "141701.024000", "141701.027000"],
