{
  "AcquisitionMatrixPE": 104,
  "AcquisitionNumber": 1,
  "AcquisitionTime": "13:53:21.367500",
  "BandwidthPerPixelPhaseEncode": 17.17,
  "BaseResolution": 104,
  "BodyPartExamined": "BRAIN",
  "CoilString": "HC1-7;NC1_2",
  "ConsistencyInfo": "N4_VE11C_LATEST_20160120",
  "ConversionSoftware": "dcm2niix",
  "ConversionSoftwareVersion": "v1.0.20190902",
  "DerivedVendorReportedEchoSpacing": 0.000560011,
  "DeviceSerialNumber": "167006",
  "DwellTime": 2.1e-06,
  "EchoTime": 0.037,
  "EchoTrainLength": 104,
  "EffectiveEchoSpacing": 0.000560011,
  "FlipAngle": 52,
  "ImageComments": "Unaliased_MB4_PE3_LB",
  "ImageOrientationPatientDICOM": [0.997814, -0.0153797, -0.0642694, -0.00104495, 0.968748, -0.248045],
  "ImageType": [
    "ORIGINAL",
    "PRIMARY",
    "M",
    "MB",
    "ND",
    "MOSAIC"
],
  "ImagingFrequency": 123.259,
  "InPlanePhaseEncodingDirectionDICOM": "COL",
  "InstitutionAddress": "Chemin_Queen-Mary_4565_Montreal_District_CA_H3W_1W5",
  "InstitutionName": "IUGM",
  "InstitutionalDepartmentName": "Department",
  "MRAcquisitionType": "2D",
  "MagneticFieldStrength": 3,
  "Manufacturer": "Siemens",
  "ManufacturersModelName": "Prisma_fit",
  "Modality": "MR",
  "MultibandAccelerationFactor": 4,
  "PartialFourier": 1,
  "PatientPosition": "HFS",
  "PercentPhaseFOV": 100,
  "PhaseEncodingDirection": "j",
  "PhaseEncodingSteps": 104,
  "PhaseResolution": 1,
  "PixelBandwidth": 2290,
  "ProcedureStepDescription": "video_friends",
  "ProtocolName": "func_task-friends-s03e13b",
  "PulseSequenceDetails": "%CustomerSeq%_cmrr_mbep2d_bold",
  "ReceiveCoilActiveElements": "HC1-7;NC1,2",
  "ReceiveCoilName": "HeadNeck_64",
  "ReconMatrixPE": 104,
  "RepetitionTime": 1.49,
  "SAR": 0.028863,
  "ScanOptions": "FS",
  "ScanningSequence": "EP",
  "SequenceName": "epfid2d1_104",
  "SequenceVariant": "SK_SS",
  "SeriesDescription": "func_task-friends-s03e13b",
  "SeriesNumber": 15,
  "ShimSetting": [595, -7250, -8844, 590, -87, -279, 23, 34],
  "SliceThickness": 2,
  "SliceTiming": [0, 0.785, 0.1, 0.8825, 0.1975, 0.98, 0.295, 1.08, 0.3925, 1.1775, 0.49, 1.275, 0.59, 1.3725, 0.6875, 0, 0.785, 0.1, 0.8825, 0.1975, 0.98, 0.295, 1.08, 0.3925, 1.1775, 0.49, 1.275, 0.59, 1.3725, 0.6875, 0, 0.785, 0.1, 0.8825, 0.1975, 0.98, 0.295, 1.08, 0.3925, 1.1775, 0.49, 1.275, 0.59, 1.3725, 0.6875, 0, 0.785, 0.1, 0.8825, 0.1975, 0.98, 0.295, 1.08, 0.3925, 1.1775, 0.49, 1.275, 0.59, 1.3725, 0.6875],
  "SoftwareVersions": "syngo_MR_E11",
  "SpacingBetweenSlices": 2,
  "StationName": "MRC35049",
  "TaskName": "s03e13b",
  "TotalReadoutTime": 0.0576811,
  "TxRefAmp": 217.466,
  "WipMemBlock": "33df42bb-f6fa-4676-9341-2d4ea6252321||Sequence: R016 ve11c/master r/e634e98; Dec 19 2017 11:00:25 by eja",
  "dcmmeta_affine": [
    [-1.9956281185150146, -0.0020899001974612474, -0.13215148448944092, 101.95710754394531],
    [0.03075944446027279, 1.9374957084655762, -0.49514076113700867, -82.83389282226562],
    [-0.12853886187076569, 0.4960908591747284, 1.9332283735275269, -54.1446418762207],
    [0.0, 0.0, 0.0, 1.0]
],
  "dcmmeta_reorient_transform": [
    [0.0, -1.0, 0.0, 103.0],
    [1.0, 0.0, 0.0, 0.0],
    [0.0, 0.0, 1.0, 0.0],
    [0.0, 0.0, 0.0, 1.0]
],
  "dcmmeta_shape": [104, 104, 60, 473],
  "dcmmeta_slice_dim": 2,
  "dcmmeta_version": 0.6,
  "global": {
    "const": {
      "AcquisitionMatrix": [104, 0, 0, 104],
      "AngioFlag": "N",
      "BitsAllocated": 16,
      "BitsStored": 16,
      "BodyPartExamined": "BRAIN",
      "Columns": 832,
      "EchoNumbers": 1,
      "EchoTime": 37.0,
      "EchoTrainLength": 104,
      "FlipAngle": 52.0,
      "HighBit": 15,
      "ImageOrientationPatient": [0.99781406304251, -0.0153797221459, -0.0642694308463, -0.0010449501181, 0.96874783797491, -0.2480454282953],
      "ImagePositionPatient": [-827.38975861297, -810.78015322909, 224.3179324103],
      "ImageType": [
        "ORIGINAL",
        "PRIMARY",
        "M",
        "MB",
        "ND",
        "MOSAIC"
],
      "ImagedNucleus": "1H",
      "ImagingFrequency": 123.259053,
      "InPlanePhaseEncodingDirection": "COL",
      "MRAcquisitionType": "2D",
      "MagneticFieldStrength": 3.0,
      "Manufacturer": "SIEMENS",
      "ManufacturerModelName": "Prisma_fit",
      "Modality": "MR",
      "NumberOfAverages": 1.0,
      "NumberOfPhaseEncodingSteps": 104,
      "PercentPhaseFieldOfView": 100.0,
      "PercentSampling": 100.0,
      "PerformedProcedureStepStartTime": "111836.479000",
      "PhotometricInterpretation": "MONOCHROME2",
      "PixelBandwidth": 2290.0,
      "PixelRepresentation": 0,
      "PixelSpacing": [2.0, 2.0],
      "ProtocolName": "func_task-friends-s03e13b",
      "RepetitionTime": 1490.0,
      "Rows": 832,
      "SAR": 0.02886302774382,
      "SamplesPerPixel": 1,
      "ScanOptions": "FS",
      "ScanningSequence": "EP",
      "SequenceName": "epfid2d1_104",
      "SequenceVariant": [
        "SK",
        "SS"
],
      "SeriesDescription": "func_task-friends-s03e13b",
      "SeriesNumber": 15,
      "SeriesTime": "135441.207000",
      "SliceLocation": -38.566652240801,
      "SliceThickness": 2.0,
      "SmallestImagePixelValue": 0,
      "SoftwareVersions": "syngo MR E11",
      "SpacingBetweenSlices": 2.0000000248371,
      "SpecificCharacterSet": "ISO_IR 100",
      "StudyID": "1",
      "StudyTime": "111836.389000",
      "TransmitCoilName": "Body",
      "VariableFlipAngleFlag": "N",
      "WindowCenterWidthExplanation": "Algo1",
      "dBdt": 0.0},
    "slices": {}
  },
  "time": {
    "samples": {
      "AcquisitionNumber": [1, 2, 3, 4, 5, 6, 7, 8, 9, 10, 11, 12, 13, 14, 15, 16, 17, 18, 19, 20, 21, 22, 23, 24, 25, 26, 27, 28, 29, 30, 31, 32, 33, 34, 35, 36, 37, 38, 39, 40, 41, 42, 43, 44, 45, 46, 47, 48, 49, 50, 51, 52, 53, 54, 55, 56, 57, 58, 59, 60, 61, 62, 63, 64, 65, 66, 67, 68, 69, 70, 71, 72, 73, 74, 75, 76, 77, 78, 79, 80, 81, 82, 83, 84, 85, 86, 87, 88, 89, 90, 91, 92, 93, 94, 95, 96, 97, 98, 99, 100, 101, 102, 103, 104, 105, 106, 107, 108, 109, 110, 111, 112, 113, 114, 115, 116, 117, 118, 119, 120, 121, 122, 123, 124, 125, 126, 127, 128, 129, 130, 131, 132, 133, 134, 135, 136, 137, 138, 139, 140, 141, 142, 143, 144, 145, 146, 147, 148, 149, 150, 151, 152, 153, 154, 155, 156, 157, 158, 159, 160, 161, 162, 163, 164, 165, 166, 167, 168, 169, 170, 171, 172, 173, 174, 175, 176, 177, 178, 179, 180, 181, 182, 183, 184, 185, 186, 187, 188, 189, 190, 191, 192, 193, 194, 195, 196, 197, 198, 199, 200, 201, 202, 203, 204, 205, 206, 207, 208, 209, 210, 211, 212, 213, 214, 215, 216, 217, 218, 219, 220, 221, 222, 223, 224, 225, 226, 227, 228, 229, 230, 231, 232, 233, 234, 235, 236, 237, 238, 239, 240, 241, 242, 243, 244, 245, 246, 247, 248, 249, 250, 251, 252, 253, 254, 255, 256, 257, 258, 259, 260, 261, 262, 263, 264, 265, 266, 267, 268, 269, 270, 271, 272, 273, 274, 275, 276, 277, 278, 279, 280, 281, 282, 283, 284, 285, 286, 287, 288, 289, 290, 291, 292, 293, 294, 295, 296, 297, 298, 299, 300, 301, 302, 303, 304, 305, 306, 307, 308, 309, 310, 311, 312, 313, 314, 315, 316, 317, 318, 319, 320, 321, 322, 323, 324, 325, 326, 327, 328, 329, 330, 331, 332, 333, 334, 335, 336, 337, 338, 339, 340, 341, 342, 343, 344, 345, 346, 347, 348, 349, 350, 351, 352, 353, 354, 355, 356, 357, 358, 359, 360, 361, 362, 363, 364, 365, 366, 367, 368, 369, 370, 371, 372, 373, 374, 375, 376, 377, 378, 379, 380, 381, 382, 383, 384, 385, 386, 387, 388, 389, 390, 391, 392, 393, 394, 395, 396, 397, 398, 399, 400, 401, 402, 403, 404, 405, 406, 407, 408, 409, 410, 411, 412, 413, 414, 415, 416, 417, 418, 419, 420, 421, 422, 423, 424, 425, 426, 427, 428, 429, 430, 431, 432, 433, 434, 435, 436, 437, 438, 439, 440, 441, 442, 443, 444, 445, 446, 447, 448, 449, 450, 451, 452, 453, 454, 455, 456, 457, 458, 459, 460, 461, 462, 463, 464, 465, 466, 467, 468, 469, 470, 471, 472, 473],
      "AcquisitionTime": ["135321.367500", "135322.857500", "135324.347500", "135325.837500", "135327.327500", "135328.817500", "135330.307500", "135331.797500", "135333.287500", "135334.777500", "135336.267500", "135337.757500", "135339.247500", "135340.737500", "135342.227500", "135343.717500", "135345.207500", "135346.697500", "135348.187500", "135349.677500", "135351.167500", "135352.657500", "135354.147500", "135355.637500", "135357.127500", "135358.617500", "135400.107500", "135401.597500", "135403.087500", "135404.577500", "135406.067500", "135407.557500", "135409.047500", "135410.537500", "135412.027500", "135413.517500", "135415.007500", "135416.497500", "135417.987500", "135419.477500", "135420.967500", "135422.457500", "135423.947500", "135425.437500", "135426.927500", "135428.417500", "135429.907500", "135431.397500", "135432.887500", "135434.377500", "135435.867500", "135437.357500", "135438.847500", "135440.337500", "135441.827500", "135443.317500", "135444.807500", "135446.297500", "135447.787500", "135449.277500", "135450.767500", "135452.257500", "135453.747500", "135455.237500", "135456.727500", "135458.217500", "135459.707500", "135501.197500", "135502.687500", "135504.177500", "135505.667500", "135507.157500", "135508.647500", "135510.137500", "135511.627500", "135513.117500", "135514.607500", "135516.097500", "135517.587500", "135519.077500", "135520.567500", "135522.057500", "135523.547500", "135525.037500", "135526.527500", "135528.017500", "135529.507500", "135530.997500", "135532.487500", "135533.977500", "135535.467500", "135536.957500", "135538.447500", "135539.937500", "135541.427500", "135542.917500", "135544.407500", "135545.897500", "135547.387500", "135548.877500", "135550.367500", "135551.857500", "135553.347500", "135554.837500", "135556.327500", "135557.817500", "135559.307500", "135600.797500", "135602.287500", "135603.777500", "135605.267500", "135606.757500", "135608.247500", "135609.737500", "135611.227500", "135612.717500", "135614.207500", "135615.697500", "135617.187500", "135618.677500", "135620.167500", "135621.657500", "135623.147500", "135624.637500", "135626.127500", "135627.617500", "135629.107500", "135630.597500", "135632.087500", "135633.577500", "135635.067500", "135636.557500", "135638.047500", "135639.537500", "135641.027500", "135642.517500", "135644.007500", "135645.497500", "135646.987500", "135648.477500", "135649.967500", "135651.457500", "135652.947500", "135654.437500", "135655.927500", "135657.417500", "135658.907500", "135700.397500", "135701.887500", "135703.377500", "135704.867500", "135706.357500", "135707.847500", "135709.337500", "135710.827500", "135712.317500", "135713.807500", "135715.297500", "135716.787500", "135718.277500", "135719.767500", "135721.257500", "135722.747500", "135724.237500", "135725.727500", "135727.217500", "135728.707500", "135730.197500", "135731.687500", "135733.177500", "135734.667500", "135736.157500", "135737.647500", "135739.137500", "135740.627500", "135742.117500", "135743.607500", "135745.097500", "135746.587500", "135748.077500", "135749.567500", "135751.057500", "135752.547500", "135754.037500", "135755.527500", "135757.017500", "135758.507500", "135759.997500", "135801.487500", "135802.977500", "135804.467500", "135805.957500", "135807.447500", "135808.937500", "135810.427500", "135811.917500", "135813.407500", "135814.897500", "135816.387500", "135817.877500", "135819.367500", "135820.857500", "135822.347500", "135823.837500", "135825.327500", "135826.817500", "135828.307500", "135829.797500", "135831.287500", "135832.777500", "135834.267500", "135835.757500", "135837.247500", "135838.737500", "135840.227500", "135841.717500", "135843.207500", "135844.697500", "135846.187500", "135847.677500", "135849.167500", "135850.657500", "135852.147500", "135853.637500", "135855.127500", "135856.617500", "135858.107500", "135859.597500", "135901.087500", "135902.577500", "135904.067500", "135905.557500", "135907.047500", "135908.537500", "135910.027500", "135911.517500", "135913.007500", "135914.497500", "135915.987500", "135917.477500", "135918.967500", "135920.457500", "135921.947500", "135923.437500", "135924.927500", "135926.417500", "135927.907500", "135929.397500", "135930.887500", "135932.377500", "135933.867500", "135935.357500", "135936.847500", "135938.337500", "135939.827500", "135941.317500", "135942.807500", "135944.297500", "135945.787500", "135947.277500", "135948.767500", "135950.257500", "135951.747500", "135953.237500", "135954.727500", "135956.217500", "135957.707500", "135959.197500", "140000.687500", "140002.177500", "140003.667500", "140005.157500", "140006.647500", "140008.137500", "140009.627500", "140011.117500", "140012.607500", "140014.097500", "140015.587500", "140017.077500", "140018.567500", "140020.057500", "140021.547500", "140023.037500", "140024.527500", "140026.017500", "140027.507500", "140028.997500", "140030.487500", "140031.977500", "140033.467500", "140034.957500", "140036.447500", "140037.937500", "140039.427500", "140040.917500", "140042.407500", "140043.897500", "140045.387500", "140046.877500", "140048.367500", "140049.857500", "140051.347500", "140052.837500", "140054.327500", "140055.817500", "140057.307500", "140058.797500", "140100.287500", "140101.777500", "140103.267500", "140104.757500", "140106.247500", "140107.737500", "140109.227500", "140110.717500", "140112.207500", "140113.697500", "140115.187500", "140116.677500", "140118.167500", "140119.657500", "140121.147500", "140122.637500", "140124.127500", "140125.617500", "140127.107500", "140128.597500", "140130.087500", "140131.577500", "140133.067500", "140134.557500", "140136.047500", "140137.537500", "140139.027500", "140140.517500", "140142.007500", "140143.497500", "140144.987500", "140146.477500", "140147.967500", "140149.457500", "140150.947500", "140152.437500", "140153.927500", "140155.417500", "140156.907500", "140158.397500", "140159.887500", "140201.377500", "140202.867500", "140204.357500", "140205.847500", "140207.337500", "140208.827500", "140210.317500", "140211.807500", "140213.297500", "140214.787500", "140216.277500", "140217.767500", "140219.257500", "140220.747500", "140222.237500", "140223.727500", "140225.217500", "140226.707500", "140228.197500", "140229.687500", "140231.177500", "140232.667500", "140234.157500", "140235.647500", "140237.137500", "140238.627500", "140240.117500", "140241.607500", "140243.097500", "140244.587500", "140246.077500", "140247.567500", "140249.057500", "140250.547500", "140252.037500", "140253.527500", "140255.017500", "140256.507500", "140257.997500", "140259.487500", "140300.977500", "140302.467500", "140303.957500", "140305.447500", "140306.937500", "140308.427500", "140309.917500", "140311.407500", "140312.897500", "140314.387500", "140315.877500", "140317.367500", "140318.857500", "140320.347500", "140321.837500", "140323.327500", "140324.817500", "140326.307500", "140327.797500", "140329.287500", "140330.777500", "140332.267500", "140333.757500", "140335.247500", "140336.737500", "140338.227500", "140339.717500", "140341.207500", "140342.697500", "140344.187500", "140345.677500", "140347.167500", "140348.657500", "140350.147500", "140351.637500", "140353.127500", "140354.617500", "140356.107500", "140357.597500", "140359.087500", "140400.577500", "140402.067500", "140403.557500", "140405.047500", "140406.537500", "140408.027500", "140409.517500", "140411.007500", "140412.497500", "140413.987500", "140415.477500", "140416.967500", "140418.457500", "140419.947500", "140421.437500", "140422.927500", "140424.417500", "140425.907500", "140427.397500", "140428.887500", "140430.377500", "140431.867500", "140433.357500", "140434.847500", "140436.337500", "140437.827500", "140439.317500", "140440.807500", "140442.297500", "140443.787500", "140445.277500", "140446.767500", "140448.257500", "140449.747500", "140451.237500", "140452.727500", "140454.217500", "140455.707500", "140457.197500", "140458.687500", "140500.177500", "140501.667500", "140503.157500", "140504.647500"],
      "ContentTime": ["135441.210000", "135441.213000", "135441.216000", "135441.219000", "135441.222000", "135441.224000", "135441.227000", "135441.230000", "135441.237000", "135441.240000", "135441.243000", "135441.266000", "135441.269000", "135441.272000", "135441.281000", "135441.284000", "135441.286000", "135441.289000", "135441.292000", "135441.298000", "135441.301000", "135441.304000", "135441.307000", "135441.310000", "135441.312000", "135441.315000", "135441.318000", "135501.178000", "135501.181000", "135501.184000", "135501.186000", "135501.189000", "135501.192000", "135501.195000", "135501.198000", "135501.201000", "135501.203000", "135501.206000", "135501.209000", "135501.212000", "135501.215000", "135501.218000", "135501.220000", "135501.223000", "135501.226000", "135501.229000", "135501.232000", "135521.177000", "135521.180000", "135521.183000", "135521.186000", "135521.188000", "135521.203000", "135521.205000", "135521.208000", "135521.211000", "135521.214000", "135521.217000", "135521.219000", "135521.222000", "135521.225000", "135521.228000", "135521.231000", "135521.234000", "135521.236000", "135521.239000", "135521.242000", "135541.178000", "135541.181000", "135541.184000", "135541.187000", "135541.189000", "135541.192000", "135541.195000", "135541.198000", "135541.201000", "135541.204000", "135541.207000", "135541.209000", "135541.212000", "135541.215000", "135541.218000", "135541.221000", "135541.223000", "135541.226000", "135541.229000", "135541.232000", "135601.178000", "135601.181000", "135601.184000", "135601.187000", "135601.189000", "135601.192000", "135601.195000", "135601.198000", "135601.201000", "135601.203000", "135601.206000", "135601.209000", "135601.212000", "135601.215000", "135601.218000", "135601.220000", "135601.223000", "135601.226000", "135601.229000", "135601.232000", "135641.178000", "135641.181000", "135641.184000", "135641.187000", "135641.189000", "135641.192000", "135641.195000", "135641.198000", "135641.201000", "135641.204000", "135641.207000", "135641.210000", "135641.213000", "135641.215000", "135641.218000", "135641.221000", "135641.224000", "135641.227000", "135641.230000", "135641.232000", "135641.235000", "135641.238000", "135641.241000", "135641.244000", "135641.247000", "135641.250000", "135721.178000", "135721.181000", "135721.184000", "135721.187000", "135721.189000", "135721.192000", "135721.195000", "135721.198000", "135721.201000", "135721.204000", "135721.206000", "135721.209000", "135721.212000", "135721.215000", "135721.218000", "135721.221000", "135721.223000", "135721.226000", "135721.229000", "135721.232000", "135721.235000", "135721.237000", "135721.240000", "135721.243000", "135721.246000", "135721.249000", "135721.252000", "135801.178000", "135801.181000", "135801.184000", "135801.187000", "135801.190000", "135801.193000", "135801.196000", "135801.199000", "135801.201000", "135801.204000", "135801.207000", "135801.210000", "135801.213000", "135801.216000", "135801.218000", "135801.221000", "135801.224000", "135801.227000", "135801.230000", "135801.232000", "135801.235000", "135801.238000", "135801.241000", "135801.244000", "135801.246000", "135801.249000", "135801.252000", "135841.178000", "135841.181000", "135841.184000", "135841.187000", "135841.190000", "135841.192000", "135841.195000", "135841.198000", "135841.201000", "135841.204000", "135841.207000", "135841.210000", "135841.212000", "135841.215000", "135841.218000", "135841.221000", "135841.224000", "135841.227000", "135841.229000", "135841.232000", "135841.235000", "135841.245000", "135841.248000", "135841.251000", "135841.254000", "135841.256000", "135841.259000", "135921.178000", "135921.181000", "135921.184000", "135921.187000", "135921.190000", "135921.192000", "135921.195000", "135921.198000", "135921.201000", "135921.204000", "135921.207000", "135921.210000", "135921.212000", "135921.215000", "135921.218000", "135921.221000", "135921.224000", "135921.227000", "135921.229000", "135921.232000", "135921.235000", "135921.238000", "135921.241000", "135921.244000", "135921.246000", "135921.249000", "135921.252000", "140001.177000", "140001.180000", "140001.183000", "140001.186000", "140001.188000", "140001.197000", "140001.200000", "140001.203000", "140001.205000", "140001.208000", "140001.211000", "140001.214000", "140001.217000", "140001.220000", "140001.223000", "140001.225000", "140001.228000", "140001.231000", "140001.234000", "140001.237000", "140001.240000", "140001.242000", "140001.245000", "140001.248000", "140001.251000", "140001.254000", "140001.257000", "140041.178000", "140041.181000", "140041.184000", "140041.187000", "140041.190000", "140041.193000", "140041.196000", "140041.199000", "140041.202000", "140041.205000", "140041.208000", "140041.210000", "140041.213000", "140041.216000", "140041.219000", "140041.222000", "140041.225000", "140041.228000", "140041.230000", "140041.233000", "140041.236000", "140041.239000", "140041.242000", "140041.245000", "140041.247000", "140041.250000", "140121.178000", "140121.181000", "140121.184000", "140121.187000", "140121.189000", "140121.192000", "140121.195000", "140121.198000", "140121.201000", "140121.204000", "140121.207000", "140121.209000", "140121.212000", "140121.215000", "140121.218000", "140121.221000", "140121.223000", "140121.226000", "140121.229000", "140121.232000", "140121.235000", "140121.238000", "140121.240000", "140121.243000", "140121.246000", "140121.249000", "140121.252000", "140201.177000", "140201.180000", "140201.183000", "140201.186000", "140201.188000", "140201.191000", "140201.194000", "140201.197000", "140201.200000", "140201.203000", "140201.206000", "140201.208000", "140201.211000", "140201.214000", "140201.217000", "140201.220000", "140201.223000", "140201.226000", "140201.229000", "140201.231000", "140201.234000", "140201.237000", "140201.240000", "140201.243000", "140201.246000", "140201.248000", "140201.251000", "140241.178000", "140241.181000", "140241.184000", "140241.187000", "140241.190000", "140241.192000", "140241.195000", "140241.198000", "140241.201000", "140241.204000", "140241.207000", "140241.210000", "140241.212000", "140241.215000", "140241.218000", "140241.221000", "140241.224000", "140241.227000", "140241.230000", "140241.232000", "140241.235000", "140241.238000", "140241.241000", "140241.244000", "140241.246000", "140241.249000", "140241.252000", "140321.178000", "140321.181000", "140321.184000", "140321.196000", "140321.198000", "140321.201000", "140321.204000", "140321.207000", "140321.210000", "140321.213000", "140321.216000", "140321.218000", "140321.221000", "140321.224000", "140321.227000", "140321.230000", "140321.233000", "140321.241000", "140321.244000", "140321.247000", "140321.249000", "140321.252000", "140321.255000", "140321.258000", "140321.261000", "140321.264000", "140321.266000", "140401.178000", "140401.181000", "140401.184000", "140401.187000", "140401.190000", "140401.193000", "140401.195000", "140401.198000", "140401.201000", "140401.204000", "140401.207000", "140401.210000", "140401.212000", "140401.215000", "140401.218000", "140401.221000", "140401.224000", "140401.227000", "140401.230000", "140401.232000", "140401.235000", "140401.238000", "140401.241000", "140401.244000", "140401.246000", "140401.249000", "140401.252000", "140441.177000", "140441.180000", "140441.183000", "140441.186000", "140441.189000", "140441.191000", "140441.194000", "140441.197000", "140441.200000", "140441.203000", "140441.206000", "140441.209000", "140441.211000", "140441.214000", "140441.217000", "140441.220000", "140441.223000", "140441.226000", "140441.229000", "140441.231000", "140441.234000", "140441.237000", "140441.240000", "140441.243000", "140441.245000", "140441.248000", "140441.251000", "140506.448000", "140506.451000", "140506.454000", "140506.457000", "140506.460000", "140506.463000", "140506.465000", "140506.468000", "140506.471000", "140506.474000", "140506.477000", "140506.480000", "140506.483000", "140506.486000", "140506.489000", "140506.492000", "140506.495000"],
