{
  "AcquisitionMatrixPE": 104,
  "AcquisitionNumber": 1,
  "AcquisitionTime": "16:38:1.197500",
  "BandwidthPerPixelPhaseEncode": 17.17,
  "BaseResolution": 104,
  "BodyPartExamined": "BRAIN",
  "CoilCombinationMethod": "Sum of Squares",
  "ConsistencyInfo": "N4_VE11C_LATEST_20160120",
  "ConversionSoftware": "dcm2niix",
  "ConversionSoftwareVersion": "v1.0.20230411",
  "DerivedVendorReportedEchoSpacing": 0.000560011,
  "DeviceSerialNumber": "167006",
  "DwellTime": 2.1e-06,
  "EchoTime": 0.037,
  "EchoTrainLength": 104,
  "EffectiveEchoSpacing": 0.000560011,
  "FlipAngle": 52,
  "HeudiconvVersion": "0.5.3.post861+ge7d3c7f",
  "ImageComments": "Unaliased MB4/PE3/LB",
  "ImageOrientationPatientDICOM": [0.999767, 0.0204697, -0.00682898, -0.0207675, 0.826765, -0.562163],
  "ImageOrientationText": "Tra>Cor(-34.2)>Sag(0.3)",
  "ImageType": [
    "ORIGINAL",
    "PRIMARY",
    "M",
    "MB",
    "ND",
    "MOSAIC"
],
  "ImagingFrequency": 123.249842,
  "InPlanePhaseEncodingDirectionDICOM": "COL",
  "InstitutionAddress": "Chemin Queen-Mary 4565,Montreal,District,CA,H3W 1W5",
  "InstitutionName": "IUGM",
  "InstitutionalDepartmentName": "Department",
  "MRAcquisitionType": "2D",
  "MagneticFieldStrength": 3,
  "Manufacturer": "Siemens",
  "ManufacturersModelName": "Prisma_fit",
  "MatrixCoilMode": "SENSE",
  "Modality": "MR",
  "MultibandAccelerationFactor": 4,
  "NonlinearGradientCorrection": false,
  "PartialFourier": 1,
  "PatientPosition": "HFS",
  "PercentPhaseFOV": 100,
  "PercentSampling": 100,
  "PhaseEncodingDirection": "j",
  "PhaseEncodingSteps": 104,
  "PhaseResolution": 1,
  "PixelBandwidth": 2290,
  "ProcedureStepDescription": "video^friends",
  "ProtocolName": "func_task-friends-s07e10b",
  "PulseSequenceDetails": "%CustomerSeq%\\cmrr_mbep2d_bold",
  "ReceiveCoilActiveElements": "HC1-7;NC1,2",
  "ReceiveCoilName": "HeadNeck_64",
  "ReconMatrixPE": 104,
  "RepetitionTime": 1.49,
  "SAR": 0.0737297,
  "ScanOptions": "FS",
  "ScanningSequence": "EP",
  "SequenceName": "epfid2d1_104",
  "SequenceVariant": "SK\\SS",
  "SeriesDescription": "func_task-friends-s07e10b",
  "SeriesNumber": 16,
  "ShimSetting": [601, -7202, -8855, 292, 37, -215, -122, 69],
  "SliceThickness": 2,
  "SliceTiming": [0, 0.7825, 0.0975, 0.8825, 0.195, 0.98, 0.2925, 1.0775, 0.3925, 1.175, 0.49, 1.2725, 0.5875, 1.3725, 0.685, 0, 0.7825, 0.0975, 0.8825, 0.195, 0.98, 0.2925, 1.0775, 0.3925, 1.175, 0.49, 1.2725, 0.5875, 1.3725, 0.685, 0, 0.7825, 0.0975, 0.8825, 0.195, 0.98, 0.2925, 1.0775, 0.3925, 1.175, 0.49, 1.2725, 0.5875, 1.3725, 0.685, 0, 0.7825, 0.0975, 0.8825, 0.195, 0.98, 0.2925, 1.0775, 0.3925, 1.175, 0.49, 1.2725, 0.5875, 1.3725, 0.685],
  "SoftwareVersions": "syngo MR E11",
  "SpacingBetweenSlices": 2,
  "StationName": "MRC35049",
  "TaskName": "s07e10b",
  "TotalReadoutTime": 0.0576811,
  "TxRefAmp": 304.638,
  "WipMemBlock": "92e57c88-9477-47ff-87e2-b0aa2076fefd||Sequence: R017 ve11c/master r/75a17815+; Jun 28 2022 16:32:11 by eja",
  "dcmmeta_affine": [
    [-1.999534249305725, -0.041535019874572754, 0.011722738854587078, 106.14824676513672],
    [-0.04093947261571884, 1.6535309553146362, -1.1243484020233154, -55.53295135498047],
    [-0.013657959178090096, 1.124326467514038, 1.653996229171753, -99.92332458496094],
    [0.0, 0.0, 0.0, 1.0]
],
  "dcmmeta_reorient_transform": [
    [0.0, -1.0, 0.0, 103.0],
    [1.0, 0.0, 0.0, 0.0],
    [0.0, 0.0, 1.0, 0.0],
    [0.0, 0.0, 0.0, 1.0]
],
  "dcmmeta_shape": [104, 104, 60, 493],
  "dcmmeta_slice_dim": 2,
  "dcmmeta_version": 0.6,
  "global": {
    "const": {
      "AcquisitionMatrix": [104, 0, 0, 104],
      "AngioFlag": "N",
      "BitsAllocated": 16,
      "BitsStored": 16,
      "BodyPartExamined": "BRAIN",
      "Columns": 832,
      "EchoNumbers": 1,
      "EchoTime": 37.0,
      "EchoTrainLength": 104,
      "FlipAngle": 52.0,
      "HighBit": 15,
      "ImageOrientationPatient": [0.99976715034732, 0.0204697367225, -0.0068289797861, -0.020767509209, 0.82676549244948, -0.5621632601443],
      "ImagePositionPatient": [-814.58187883051, -731.56798650421, 430.10865498073],
      "ImageType": [
        "ORIGINAL",
        "PRIMARY",
        "M",
        "MB",
        "ND",
        "MOSAIC"
],
      "ImagedNucleus": "1H",
      "ImagingFrequency": 123.249842,
      "InPlanePhaseEncodingDirection": "COL",
      "MRAcquisitionType": "2D",
      "MagneticFieldStrength": 3.0,
      "Manufacturer": "SIEMENS",
      "ManufacturerModelName": "Prisma_fit",
      "Modality": "MR",
      "NumberOfAverages": 1.0,
      "NumberOfPhaseEncodingSteps": 104,
      "PercentPhaseFieldOfView": 100.0,
      "PercentSampling": 100.0,
      "PerformedProcedureStepStartTime": "161241.032000",
      "PhotometricInterpretation": "MONOCHROME2",
      "PixelBandwidth": 2290.0,
      "PixelRepresentation": 0,
      "PixelSpacing": [2.0, 2.0],
      "ProtocolName": "func_task-friends-s07e10b",
      "RepetitionTime": 1490.0,
      "Rows": 832,
      "SAR": 0.07372973600847,
      "SamplesPerPixel": 1,
      "ScanOptions": "FS",
      "ScanningSequence": "EP",
      "SequenceName": "epfid2d1_104",
      "SequenceVariant": [
        "SK",
        "SS"
],
      "SeriesDescription": "func_task-friends-s07e10b",
      "SeriesNumber": 16,
      "SeriesTime": "163909.377000",
      "SliceLocation": -50.795034622197,
      "SliceThickness": 2.0,
      "SmallestImagePixelValue": 0,
      "SoftwareVersions": "syngo MR E11",
      "SpacingBetweenSlices": 2.0000000460346,
      "SpecificCharacterSet": "ISO_IR 100",
      "StudyID": "1",
      "StudyTime": "161240.934000",
      "TransmitCoilName": "Body",
      "VariableFlipAngleFlag": "N",
      "WindowCenterWidthExplanation": "Algo1",
      "dBdt": 0.0},
    "slices": {}
  },
  "time": {
    "samples": {
      "AcquisitionNumber": [1, 2, 3, 4, 5, 6, 7, 8, 9, 10, 11, 12, 13, 14, 15, 16, 17, 18, 19, 20, 21, 22, 23, 24, 25, 26, 27, 28, 29, 30, 31, 32, 33, 34, 35, 36, 37, 38, 39, 40, 41, 42, 43, 44, 45, 46, 47, 48, 49, 50, 51, 52, 53, 54, 55, 56, 57, 58, 59, 60, 61, 62, 63, 64, 65, 66, 67, 68, 69, 70, 71, 72, 73, 74, 75, 76, 77, 78, 79, 80, 81, 82, 83, 84, 85, 86, 87, 88, 89, 90, 91, 92, 93, 94, 95, 96, 97, 98, 99, 100, 101, 102, 103, 104, 105, 106, 107, 108, 109, 110, 111, 112, 113, 114, 115, 116, 117, 118, 119, 120, 121, 122, 123, 124, 125, 126, 127, 128, 129, 130, 131, 132, 133, 134, 135, 136, 137, 138, 139, 140, 141, 142, 143, 144, 145, 146, 147, 148, 149, 150, 151, 152, 153, 154, 155, 156, 157, 158, 159, 160, 161, 162, 163, 164, 165, 166, 167, 168, 169, 170, 171, 172, 173, 174, 175, 176, 177, 178, 179, 180, 181, 182, 183, 184, 185, 186, 187, 188, 189, 190, 191, 192, 193, 194, 195, 196, 197, 198, 199, 200, 201, 202, 203, 204, 205, 206, 207, 208, 209, 210, 211, 212, 213, 214, 215, 216, 217, 218, 219, 220, 221, 222, 223, 224, 225, 226, 227, 228, 229, 230, 231, 232, 233, 234, 235, 236, 237, 238, 239, 240, 241, 242, 243, 244, 245, 246, 247, 248, 249, 250, 251, 252, 253, 254, 255, 256, 257, 258, 259, 260, 261, 262, 263, 264, 265, 266, 267, 268, 269, 270, 271, 272, 273, 274, 275, 276, 277, 278, 279, 280, 281, 282, 283, 284, 285, 286, 287, 288, 289, 290, 291, 292, 293, 294, 295, 296, 297, 298, 299, 300, 301, 302, 303, 304, 305, 306, 307, 308, 309, 310, 311, 312, 313, 314, 315, 316, 317, 318, 319, 320, 321, 322, 323, 324, 325, 326, 327, 328, 329, 330, 331, 332, 333, 334, 335, 336, 337, 338, 339, 340, 341, 342, 343, 344, 345, 346, 347, 348, 349, 350, 351, 352, 353, 354, 355, 356, 357, 358, 359, 360, 361, 362, 363, 364, 365, 366, 367, 368, 369, 370, 371, 372, 373, 374, 375, 376, 377, 378, 379, 380, 381, 382, 383, 384, 385, 386, 387, 388, 389, 390, 391, 392, 393, 394, 395, 396, 397, 398, 399, 400, 401, 402, 403, 404, 405, 406, 407, 408, 409, 410, 411, 412, 413, 414, 415, 416, 417, 418, 419, 420, 421, 422, 423, 424, 425, 426, 427, 428, 429, 430, 431, 432, 433, 434, 435, 436, 437, 438, 439, 440, 441, 442, 443, 444, 445, 446, 447, 448, 449, 450, 451, 452, 453, 454, 455, 456, 457, 458, 459, 460, 461, 462, 463, 464, 465, 466, 467, 468, 469, 470, 471, 472, 473, 474, 475, 476, 477, 478, 479, 480, 481, 482, 483, 484, 485, 486, 487, 488, 489, 490, 491, 492, 493],
      "AcquisitionTime": ["163801.197500", "163802.687500", "163804.177500", "163805.667500", "163807.157500", "163808.647500", "163810.137500", "163811.627500", "163813.117500", "163814.607500", "163816.097500", "163817.587500", "163819.077500", "163820.567500", "163822.057500", "163823.547500", "163825.037500", "163826.527500", "163828.017500", "163829.507500", "163830.997500", "163832.487500", "163833.977500", "163835.467500", "163836.957500", "163838.447500", "163839.937500", "163841.427500", "163842.917500", "163844.407500", "163845.897500", "163847.387500", "163848.877500", "163850.367500", "163851.857500", "163853.347500", "163854.837500", "163856.327500", "163857.817500", "163859.307500", "163900.797500", "163902.287500", "163903.777500", "163905.267500", "163906.757500", "163908.247500", "163909.737500", "163911.227500", "163912.717500", "163914.207500", "163915.697500", "163917.187500", "163918.677500", "163920.167500", "163921.657500", "163923.147500", "163924.637500", "163926.127500", "163927.617500", "163929.107500", "163930.597500", "163932.087500", "163933.577500", "163935.067500", "163936.557500", "163938.047500", "163939.537500", "163941.027500", "163942.517500", "163944.007500", "163945.497500", "163946.987500", "163948.477500", "163949.967500", "163951.457500", "163952.947500", "163954.437500", "163955.927500", "163957.417500", "163958.907500", "164000.397500", "164001.887500", "164003.377500", "164004.867500", "164006.357500", "164007.847500", "164009.337500", "164010.827500", "164012.317500", "164013.807500", "164015.297500", "164016.787500", "164018.277500", "164019.767500", "164021.257500", "164022.747500", "164024.237500", "164025.727500", "164027.217500", "164028.707500", "164030.197500", "164031.687500", "164033.177500", "164034.667500", "164036.157500", "164037.647500", "164039.137500", "164040.627500", "164042.117500", "164043.607500", "164045.097500", "164046.587500", "164048.077500", "164049.567500", "164051.057500", "164052.547500", "164054.037500", "164055.527500", "164057.017500", "164058.507500", "164059.997500", "164101.487500", "164102.977500", "164104.467500", "164105.957500", "164107.447500", "164108.937500", "164110.427500", "164111.917500", "164113.407500", "164114.897500", "164116.387500", "164117.877500", "164119.367500", "164120.857500", "164122.347500", "164123.837500", "164125.327500", "164126.817500", "164128.307500", "164129.797500", "164131.287500", "164132.777500", "164134.267500", "164135.757500", "164137.247500", "164138.737500", "164140.227500", "164141.717500", "164143.207500", "164144.697500", "164146.187500", "164147.677500", "164149.167500", "164150.657500", "164152.147500", "164153.637500", "164155.127500", "164156.617500", "164158.107500", "164159.597500", "164201.087500", "164202.577500", "164204.067500", "164205.557500", "164207.047500", "164208.537500", "164210.027500", "164211.517500", "164213.007500", "164214.497500", "164215.987500", "164217.477500", "164218.967500", "164220.457500", "164221.947500", "164223.437500", "164224.927500", "164226.417500", "164227.907500", "164229.397500", "164230.887500", "164232.377500", "164233.867500", "164235.357500", "164236.847500", "164238.337500", "164239.827500", "164241.317500", "164242.807500", "164244.297500", "164245.787500", "164247.277500", "164248.767500", "164250.257500", "164251.747500", "164253.237500", "164254.727500", "164256.217500", "164257.707500", "164259.197500", "164300.687500", "164302.177500", "164303.667500", "164305.157500", "164306.647500", "164308.137500", "164309.627500", "164311.117500", "164312.607500", "164314.097500", "164315.587500", "164317.077500", "164318.567500", "164320.057500", "164321.547500", "164323.037500", "164324.527500", "164326.017500", "164327.507500", "164328.997500", "164330.487500", "164331.977500", "164333.467500", "164334.957500", "164336.447500", "164337.937500", "164339.427500", "164340.917500", "164342.407500", "164343.897500", "164345.387500", "164346.877500", "164348.367500", "164349.857500", "164351.347500", "164352.837500", "164354.327500", "164355.817500", "164357.307500", "164358.797500", "164400.287500", "164401.777500", "164403.267500", "164404.757500", "164406.247500", "164407.737500", "164409.227500", "164410.717500", "164412.207500", "164413.697500", "164415.187500", "164416.677500", "164418.167500", "164419.657500", "164421.147500", "164422.637500", "164424.127500", "164425.617500", "164427.107500", "164428.597500", "164430.087500", "164431.577500", "164433.067500", "164434.557500", "164436.047500", "164437.537500", "164439.027500", "164440.517500", "164442.007500", "164443.497500", "164444.987500", "164446.477500", "164447.967500", "164449.457500", "164450.947500", "164452.437500", "164453.927500", "164455.417500", "164456.907500", "164458.397500", "164459.887500", "164501.377500", "164502.867500", "164504.357500", "164505.847500", "164507.337500", "164508.827500", "164510.317500", "164511.807500", "164513.297500", "164514.787500", "164516.277500", "164517.767500", "164519.257500", "164520.747500", "164522.237500", "164523.727500", "164525.217500", "164526.707500", "164528.197500", "164529.687500", "164531.177500", "164532.667500", "164534.157500", "164535.647500", "164537.137500", "164538.627500", "164540.117500", "164541.607500", "164543.097500", "164544.587500", "164546.077500", "164547.567500", "164549.057500", "164550.547500", "164552.037500", "164553.527500", "164555.017500", "164556.507500", "164557.997500", "164559.487500", "164600.977500", "164602.467500", "164603.957500", "164605.447500", "164606.937500", "164608.427500", "164609.917500", "164611.407500", "164612.897500", "164614.387500", "164615.877500", "164617.367500", "164618.857500", "164620.347500", "164621.837500", "164623.327500", "164624.817500", "164626.307500", "164627.797500", "164629.287500", "164630.777500", "164632.267500", "164633.757500", "164635.247500", "164636.737500", "164638.227500", "164639.717500", "164641.207500", "164642.697500", "164644.187500", "164645.677500", "164647.167500", "164648.657500", "164650.147500", "164651.637500", "164653.127500", "164654.617500", "164656.107500", "164657.597500", "164659.087500", "164700.577500", "164702.067500", "164703.557500", "164705.047500", "164706.537500", "164708.027500", "164709.517500", "164711.007500", "164712.497500", "164713.987500", "164715.477500", "164716.967500", "164718.457500", "164719.947500", "164721.437500", "164722.927500", "164724.417500", "164725.907500", "164727.397500", "164728.887500", "164730.377500", "164731.867500", "164733.357500", "164734.847500", "164736.337500", "164737.827500", "164739.317500", "164740.807500", "164742.297500", "164743.787500", "164745.277500", "164746.767500", "164748.257500", "164749.747500", "164751.237500", "164752.727500", "164754.217500", "164755.707500", "164757.197500", "164758.687500", "164800.177500", "164801.667500", "164803.157500", "164804.647500", "164806.137500", "164807.627500", "164809.117500", "164810.607500", "164812.097500", "164813.587500", "164815.077500", "164816.567500", "164818.057500", "164819.547500", "164821.037500", "164822.527500", "164824.017500", "164825.507500", "164826.997500", "164828.487500", "164829.977500", "164831.467500", "164832.957500", "164834.447500", "164835.937500", "164837.427500", "164838.917500", "164840.407500", "164841.897500", "164843.387500", "164844.877500", "164846.367500", "164847.857500", "164849.347500", "164850.837500", "164852.327500", "164853.817500", "164855.307500", "164856.797500", "164858.287500", "164859.777500", "164901.267500", "164902.757500", "164904.247500", "164905.737500", "164907.227500", "164908.717500", "164910.207500", "164911.697500", "164913.187500", "164914.677500", "164916.167500", "164917.657500", "164919.147500", "164920.637500", "164922.127500", "164923.617500", "164925.107500", "164926.597500", "164928.087500", "164929.577500", "164931.067500", "164932.557500", "164934.047500", "164935.537500", "164937.027500", "164938.517500", "164940.007500", "164941.497500", "164942.987500", "164944.477500", "164945.967500", "164947.457500", "164948.947500", "164950.437500", "164951.927500", "164953.417500", "164954.907500", "164956.397500", "164957.887500", "164959.377500", "165000.867500", "165002.357500", "165003.847500", "165005.337500", "165006.827500", "165008.317500", "165009.807500", "165011.297500", "165012.787500", "165014.277500"],
      "ContentTime": ["163909.379000", "163909.383000", "163909.386000", "163909.393000", "163909.396000", "163909.399000", "163909.402000", "163909.404000", "163909.411000", "163909.414000", "163909.417000", "163909.420000", "163909.423000", "163909.426000", "163909.438000", "163909.440000", "163909.443000", "163909.446000", "163909.449000", "163909.452000", "163909.455000", "163909.457000", "163909.460000", "163929.349000", "163929.352000", "163929.355000", "163929.358000", "163929.360000", "163929.363000", "163929.366000", "163929.369000", "163929.372000", "163929.375000", "163929.377000", "163929.380000", "163929.383000", "163929.386000", "163929.389000", "163929.391000", "163929.394000", "163929.397000", "163929.400000", "163929.403000", "163949.349000", "163949.352000", "163949.355000", "163949.358000", "163949.360000", "163949.363000", "163949.366000", "163949.369000", "163949.372000", "163949.375000", "163949.377000", "163949.380000", "163949.383000", "163949.391000", "163949.394000", "163949.397000", "163949.400000", "163949.403000", "163949.405000", "163949.408000", "164009.349000", "164009.352000", "164009.355000", "164009.357000", "164009.360000", "164009.363000", "164009.366000", "164009.372000", "164009.375000", "164009.378000", "164009.381000", "164009.383000", "164009.386000", "164009.389000", "164009.392000", "164009.395000", "164009.397000", "164009.400000", "164009.403000", "164009.406000", "164049.349000", "164049.352000", "164049.355000", "164049.358000", "164049.365000", "164049.368000", "164049.371000", "164049.374000", "164049.377000", "164049.380000", "164049.382000", "164049.385000", "164049.388000", "164049.391000", "164049.394000", "164049.396000", "164049.399000", "164049.402000", "164049.405000", "164049.408000", "164049.411000", "164049.413000", "164049.416000", "164049.419000", "164049.422000", "164049.425000", "164049.428000", "164049.430000", "164049.433000", "164049.436000", "164049.439000", "164049.442000", "164129.349000", "164129.352000", "164129.355000", "164129.358000", "164129.360000", "164129.363000", "164129.366000", "164129.369000", "164129.372000", "164129.374000", "164129.377000", "164129.380000", "164129.383000", "164129.386000", "164129.388000", "164129.391000", "164129.394000", "164129.397000", "164129.400000", "164129.403000", "164129.405000", "164129.408000", "164129.411000", "164129.414000", "164129.417000", "164129.419000", "164129.422000", "164209.361000", "164209.365000", "164209.367000", "164209.370000", "164209.373000", "164209.376000", "164209.379000", "164209.382000", "164209.385000", "164209.387000", "164209.390000", "164209.393000", "164209.396000", "164209.399000", "164209.402000", "164209.405000", "164209.408000", "164209.411000", "164209.414000", "164209.416000", "164209.419000", "164209.422000", "164209.425000", "164209.428000", "164209.430000", "164209.433000", "164249.349000", "164249.352000", "164249.355000", "164249.358000", "164249.361000", "164249.363000", "164249.366000", "164249.369000", "164249.372000", "164249.375000", "164249.378000", "164249.381000", "164249.383000", "164249.386000", "164249.389000", "164249.392000", "164249.395000", "164249.398000", "164249.401000", "164249.403000", "164249.406000", "164249.409000", "164249.412000", "164249.415000", "164249.418000", "164249.420000", "164249.423000", "164329.349000", "164329.352000", "164329.355000", "164329.358000", "164329.361000", "164329.363000", "164329.366000", "164329.370000", "164329.372000", "164329.375000", "164329.378000", "164329.381000", "164329.384000", "164329.387000", "164329.389000", "164329.392000", "164329.395000", "164329.398000", "164329.401000", "164329.404000", "164329.406000", "164329.409000", "164329.412000", "164329.415000", "164329.418000", "164329.421000", "164329.424000", "164409.349000", "164409.352000", "164409.355000", "164409.358000", "164409.360000", "164409.363000", "164409.366000", "164409.369000", "164409.372000", "164409.375000", "164409.377000", "164409.380000", "164409.383000", "164409.386000", "164409.389000", "164409.392000", "164409.395000", "164409.397000", "164409.400000", "164409.403000", "164409.406000", "164409.409000", "164409.412000", "164409.414000", "164409.417000", "164409.420000", "164409.423000", "164449.349000", "164449.352000", "164449.355000", "164449.358000", "164449.361000", "164449.363000", "164449.366000", "164449.369000", "164449.372000", "164449.375000", "164449.378000", "164449.381000", "164449.384000", "164449.386000", "164449.389000", "164449.392000", "164449.395000", "164449.398000", "164449.401000", "164449.403000", "164449.406000", "164449.409000", "164449.412000", "164449.415000", "164449.418000", "164449.420000", "164449.423000", "164529.349000", "164529.352000", "164529.355000", "164529.358000", "164529.361000", "164529.364000", "164529.366000", "164529.369000", "164529.372000", "164529.375000", "164529.378000", "164529.381000", "164529.384000", "164529.386000", "164529.389000", "164529.392000", "164529.395000", "164529.398000", "164529.401000", "164529.403000", "164529.406000", "164529.409000", "164529.412000", "164529.415000", "164529.417000", "164529.420000", "164529.423000", "164609.349000", "164609.352000", "164609.355000", "164609.358000", "164609.361000", "164609.363000", "164609.366000", "164609.369000", "164609.372000", "164609.375000", "164609.378000", "164609.380000", "164609.383000", "164609.386000", "164609.389000", "164609.392000", "164609.395000", "164609.397000", "164609.400000", "164609.403000", "164609.406000", "164609.416000", "164609.419000", "164609.438000", "164609.441000", "164609.444000", "164649.349000", "164649.352000", "164649.355000", "164649.358000", "164649.361000", "164649.363000", "164649.366000", "164649.369000", "164649.372000", "164649.375000", "164649.378000", "164649.381000", "164649.384000", "164649.386000", "164649.389000", "164649.392000", "164649.395000", "164649.398000", "164649.400000", "164649.403000", "164649.406000", "164649.409000", "164649.412000", "164649.415000", "164649.417000", "164649.420000", "164649.423000", "164729.349000", "164729.352000", "164729.355000", "164729.358000", "164729.361000", "164729.363000", "164729.366000", "164729.369000", "164729.372000", "164729.375000", "164729.378000", "164729.381000", "164729.383000", "164729.386000", "164729.389000", "164729.392000", "164729.395000", "164729.398000", "164729.401000", "164729.403000", "164729.406000", "164729.409000", "164729.412000", "164729.415000", "164729.418000", "164729.420000", "164729.423000", "164809.349000", "164809.352000", "164809.355000", "164809.358000", "164809.361000", "164809.363000", "164809.366000", "164809.369000", "164809.372000", "164809.375000", "164809.378000", "164809.389000", "164809.392000", "164809.395000", "164809.397000", "164809.400000", "164809.403000", "164809.406000", "164809.409000", "164809.412000", "164809.415000", "164809.417000", "164809.420000", "164809.423000", "164809.426000", "164809.429000", "164809.432000", "164849.349000", "164849.352000", "164849.355000", "164849.358000", "164849.361000", "164849.363000", "164849.366000", "164849.369000", "164849.372000", "164849.375000", "164849.378000", "164849.381000", "164849.383000", "164849.386000", "164849.389000", "164849.392000", "164849.395000", "164849.398000", "164849.400000", "164849.403000", "164849.406000", "164849.409000", "164849.412000", "164849.415000", "164849.418000", "164849.420000", "164849.423000", "164929.349000", "164929.352000", "164929.355000", "164929.358000", "164929.361000", "164929.363000", "164929.366000", "164929.369000", "164929.372000", "164929.375000", "164929.378000", "164929.381000", "164929.383000", "164929.386000", "164929.389000", "164929.392000", "164929.395000", "164929.398000", "164929.401000", "164929.403000", "164929.406000", "164929.409000", "164929.412000", "164929.415000", "164929.418000", "164929.421000", "164929.424000", "165009.349000", "165009.352000", "165009.355000", "165009.358000", "165009.361000", "165009.363000", "165009.366000", "165009.369000", "165009.372000", "165009.375000", "165009.378000", "165009.381000", "165009.384000", "165009.386000", "165009.389000", "165009.392000", "165009.395000", "165009.398000", "165009.401000", "165009.404000", "165009.406000", "165009.409000", "165009.412000", "165009.415000", "165009.418000", "165009.421000", "165009.423000", "165012.254000", "165012.257000"],
