{
  "AcquisitionMatrixPE": 104,
  "AcquisitionNumber": 1,
  "AcquisitionTime": "16:24:49.177500",
  "BandwidthPerPixelPhaseEncode": 17.17,
  "BaseResolution": 104,
  "BodyPartExamined": "BRAIN",
  "CoilCombinationMethod": "Sum of Squares",
  "ConsistencyInfo": "N4_VE11C_LATEST_20160120",
  "ConversionSoftware": "dcm2niix",
  "ConversionSoftwareVersion": "v1.0.20230411",
  "DerivedVendorReportedEchoSpacing": 0.000560011,
  "DeviceSerialNumber": "167006",
  "DwellTime": 2.1e-06,
  "EchoTime": 0.037,
  "EchoTrainLength": 104,
  "EffectiveEchoSpacing": 0.000560011,
  "FlipAngle": 52,
  "HeudiconvVersion": "0.5.3.post861+ge7d3c7f",
  "ImageComments": "Unaliased MB4/PE3/LB",
  "ImageOrientationPatientDICOM": [0.999767, 0.0204697, -0.00682898, -0.0207675, 0.826765, -0.562163],
  "ImageOrientationText": "Tra>Cor(-34.2)>Sag(0.3)",
  "ImageType": [
    "ORIGINAL",
    "PRIMARY",
    "M",
    "MB",
    "ND",
    "MOSAIC"
],
  "ImagingFrequency": 123.249837,
  "InPlanePhaseEncodingDirectionDICOM": "COL",
  "InstitutionAddress": "Chemin Queen-Mary 4565,Montreal,District,CA,H3W 1W5",
  "InstitutionName": "IUGM",
  "InstitutionalDepartmentName": "Department",
  "MRAcquisitionType": "2D",
  "MagneticFieldStrength": 3,
  "Manufacturer": "Siemens",
  "ManufacturersModelName": "Prisma_fit",
  "MatrixCoilMode": "SENSE",
  "Modality": "MR",
  "MultibandAccelerationFactor": 4,
  "NonlinearGradientCorrection": false,
  "PartialFourier": 1,
  "PatientPosition": "HFS",
  "PercentPhaseFOV": 100,
  "PercentSampling": 100,
  "PhaseEncodingDirection": "j",
  "PhaseEncodingSteps": 104,
  "PhaseResolution": 1,
  "PixelBandwidth": 2290,
  "ProcedureStepDescription": "video^friends",
  "ProtocolName": "func_task-friends-s07e10a",
  "PulseSequenceDetails": "%CustomerSeq%\\cmrr_mbep2d_bold",
  "ReceiveCoilActiveElements": "HC1-7;NC1,2",
  "ReceiveCoilName": "HeadNeck_64",
  "ReconMatrixPE": 104,
  "RepetitionTime": 1.49,
  "SAR": 0.0737297,
  "ScanOptions": "FS",
  "ScanningSequence": "EP",
  "SequenceName": "epfid2d1_104",
  "SequenceVariant": "SK\\SS",
  "SeriesDescription": "func_task-friends-s07e10a",
  "SeriesNumber": 14,
  "ShimSetting": [601, -7202, -8855, 292, 37, -215, -122, 69],
  "SliceThickness": 2,
  "SliceTiming": [0, 0.785, 0.0975, 0.8825, 0.195, 0.98, 0.295, 1.0775, 0.3925, 1.175, 0.49, 1.275, 0.5875, 1.3725, 0.685, 0, 0.785, 0.0975, 0.8825, 0.195, 0.98, 0.295, 1.0775, 0.3925, 1.175, 0.49, 1.275, 0.5875, 1.3725, 0.685, 0, 0.785, 0.0975, 0.8825, 0.195, 0.98, 0.295, 1.0775, 0.3925, 1.175, 0.49, 1.275, 0.5875, 1.3725, 0.685, 0, 0.785, 0.0975, 0.8825, 0.195, 0.98, 0.295, 1.0775, 0.3925, 1.175, 0.49, 1.275, 0.5875, 1.3725, 0.685],
  "SoftwareVersions": "syngo MR E11",
  "SpacingBetweenSlices": 2,
  "StationName": "MRC35049",
  "TaskName": "s07e10a",
  "TotalReadoutTime": 0.0576811,
  "TxRefAmp": 304.638,
  "WipMemBlock": "e30d6d12-8f2f-4dfe-9e75-33d42c6e65a1||Sequence: R017 ve11c/master r/75a17815+; Jun 28 2022 16:32:11 by eja",
  "dcmmeta_affine": [
    [-1.999534249305725, -0.041535019874572754, 0.011722738854587078, 106.14824676513672],
    [-0.04093947261571884, 1.6535309553146362, -1.1243484020233154, -55.53295135498047],
    [-0.013657959178090096, 1.124326467514038, 1.653996229171753, -99.92332458496094],
    [0.0, 0.0, 0.0, 1.0]
],
  "dcmmeta_reorient_transform": [
    [0.0, -1.0, 0.0, 103.0],
    [1.0, 0.0, 0.0, 0.0],
    [0.0, 0.0, 1.0, 0.0],
    [0.0, 0.0, 0.0, 1.0]
],
  "dcmmeta_shape": [104, 104, 60, 459],
  "dcmmeta_slice_dim": 2,
  "dcmmeta_version": 0.6,
  "global": {
    "const": {
      "AcquisitionMatrix": [104, 0, 0, 104],
      "AngioFlag": "N",
      "BitsAllocated": 16,
      "BitsStored": 16,
      "BodyPartExamined": "BRAIN",
      "Columns": 832,
      "EchoNumbers": 1,
      "EchoTime": 37.0,
      "EchoTrainLength": 104,
      "FlipAngle": 52.0,
      "HighBit": 15,
      "ImageOrientationPatient": [0.99976715034732, 0.0204697367225, -0.0068289797861, -0.020767509209, 0.82676549244948, -0.5621632601443],
      "ImagePositionPatient": [-814.58187883051, -731.56798650421, 430.10865498073],
      "ImageType": [
        "ORIGINAL",
        "PRIMARY",
        "M",
        "MB",
        "ND",
        "MOSAIC"
],
      "ImagedNucleus": "1H",
      "ImagingFrequency": 123.249837,
      "InPlanePhaseEncodingDirection": "COL",
      "MRAcquisitionType": "2D",
      "MagneticFieldStrength": 3.0,
      "Manufacturer": "SIEMENS",
      "ManufacturerModelName": "Prisma_fit",
      "Modality": "MR",
      "NumberOfAverages": 1.0,
      "NumberOfPhaseEncodingSteps": 104,
      "PercentPhaseFieldOfView": 100.0,
      "PercentSampling": 100.0,
      "PerformedProcedureStepStartTime": "161241.032000",
      "PhotometricInterpretation": "MONOCHROME2",
      "PixelBandwidth": 2290.0,
      "PixelRepresentation": 0,
      "PixelSpacing": [2.0, 2.0],
      "ProtocolName": "func_task-friends-s07e10a",
      "RepetitionTime": 1490.0,
      "Rows": 832,
      "SAR": 0.07372972966166,
      "SamplesPerPixel": 1,
      "ScanOptions": "FS",
      "ScanningSequence": "EP",
      "SequenceName": "epfid2d1_104",
      "SequenceVariant": [
        "SK",
        "SS"
],
      "SeriesDescription": "func_task-friends-s07e10a",
      "SeriesNumber": 14,
      "SeriesTime": "162558.320000",
      "SliceLocation": -50.795034622197,
      "SliceThickness": 2.0,
      "SmallestImagePixelValue": 0,
      "SoftwareVersions": "syngo MR E11",
      "SpacingBetweenSlices": 2.0000000460346,
      "SpecificCharacterSet": "ISO_IR 100",
      "StudyID": "1",
      "StudyTime": "161240.934000",
      "TransmitCoilName": "Body",
      "VariableFlipAngleFlag": "N",
      "WindowCenterWidthExplanation": "Algo1",
      "dBdt": 0.0},
    "slices": {}
  },
  "time": {
    "samples": {
      "AcquisitionNumber": [1, 2, 3, 4, 5, 6, 7, 8, 9, 10, 11, 12, 13, 14, 15, 16, 17, 18, 19, 20, 21, 22, 23, 24, 25, 26, 27, 28, 29, 30, 31, 32, 33, 34, 35, 36, 37, 38, 39, 40, 41, 42, 43, 44, 45, 46, 47, 48, 49, 50, 51, 52, 53, 54, 55, 56, 57, 58, 59, 60, 61, 62, 63, 64, 65, 66, 67, 68, 69, 70, 71, 72, 73, 74, 75, 76, 77, 78, 79, 80, 81, 82, 83, 84, 85, 86, 87, 88, 89, 90, 91, 92, 93, 94, 95, 96, 97, 98, 99, 100, 101, 102, 103, 104, 105, 106, 107, 108, 109, 110, 111, 112, 113, 114, 115, 116, 117, 118, 119, 120, 121, 122, 123, 124, 125, 126, 127, 128, 129, 130, 131, 132, 133, 134, 135, 136, 137, 138, 139, 140, 141, 142, 143, 144, 145, 146, 147, 148, 149, 150, 151, 152, 153, 154, 155, 156, 157, 158, 159, 160, 161, 162, 163, 164, 165, 166, 167, 168, 169, 170, 171, 172, 173, 174, 175, 176, 177, 178, 179, 180, 181, 182, 183, 184, 185, 186, 187, 188, 189, 190, 191, 192, 193, 194, 195, 196, 197, 198, 199, 200, 201, 202, 203, 204, 205, 206, 207, 208, 209, 210, 211, 212, 213, 214, 215, 216, 217, 218, 219, 220, 221, 222, 223, 224, 225, 226, 227, 228, 229, 230, 231, 232, 233, 234, 235, 236, 237, 238, 239, 240, 241, 242, 243, 244, 245, 246, 247, 248, 249, 250, 251, 252, 253, 254, 255, 256, 257, 258, 259, 260, 261, 262, 263, 264, 265, 266, 267, 268, 269, 270, 271, 272, 273, 274, 275, 276, 277, 278, 279, 280, 281, 282, 283, 284, 285, 286, 287, 288, 289, 290, 291, 292, 293, 294, 295, 296, 297, 298, 299, 300, 301, 302, 303, 304, 305, 306, 307, 308, 309, 310, 311, 312, 313, 314, 315, 316, 317, 318, 319, 320, 321, 322, 323, 324, 325, 326, 327, 328, 329, 330, 331, 332, 333, 334, 335, 336, 337, 338, 339, 340, 341, 342, 343, 344, 345, 346, 347, 348, 349, 350, 351, 352, 353, 354, 355, 356, 357, 358, 359, 360, 361, 362, 363, 364, 365, 366, 367, 368, 369, 370, 371, 372, 373, 374, 375, 376, 377, 378, 379, 380, 381, 382, 383, 384, 385, 386, 387, 388, 389, 390, 391, 392, 393, 394, 395, 396, 397, 398, 399, 400, 401, 402, 403, 404, 405, 406, 407, 408, 409, 410, 411, 412, 413, 414, 415, 416, 417, 418, 419, 420, 421, 422, 423, 424, 425, 426, 427, 428, 429, 430, 431, 432, 433, 434, 435, 436, 437, 438, 439, 440, 441, 442, 443, 444, 445, 446, 447, 448, 449, 450, 451, 452, 453, 454, 455, 456, 457, 458, 459],
      "AcquisitionTime": ["162449.177500", "162450.667500", "162452.157500", "162453.647500", "162455.137500", "162456.627500", "162458.117500", "162459.607500", "162501.097500", "162502.587500", "162504.077500", "162505.567500", "162507.057500", "162508.547500", "162510.037500", "162511.527500", "162513.017500", "162514.507500", "162515.997500", "162517.487500", "162518.977500", "162520.467500", "162521.957500", "162523.447500", "162524.937500", "162526.427500", "162527.917500", "162529.407500", "162530.897500", "162532.387500", "162533.877500", "162535.367500", "162536.857500", "162538.347500", "162539.837500", "162541.327500", "162542.817500", "162544.307500", "162545.797500", "162547.287500", "162548.777500", "162550.267500", "162551.757500", "162553.247500", "162554.737500", "162556.227500", "162557.717500", "162559.207500", "162600.697500", "162602.187500", "162603.677500", "162605.167500", "162606.657500", "162608.147500", "162609.637500", "162611.127500", "162612.617500", "162614.107500", "162615.597500", "162617.087500", "162618.577500", "162620.067500", "162621.557500", "162623.047500", "162624.537500", "162626.027500", "162627.517500", "162629.007500", "162630.497500", "162631.987500", "162633.477500", "162634.967500", "162636.457500", "162637.947500", "162639.437500", "162640.927500", "162642.417500", "162643.907500", "162645.397500", "162646.887500", "162648.377500", "162649.867500", "162651.357500", "162652.847500", "162654.337500", "162655.827500", "162657.317500", "162658.807500", "162700.297500", "162701.787500", "162703.277500", "162704.767500", "162706.257500", "162707.747500", "162709.237500", "162710.727500", "162712.217500", "162713.707500", "162715.197500", "162716.687500", "162718.177500", "162719.667500", "162721.157500", "162722.647500", "162724.137500", "162725.627500", "162727.117500", "162728.607500", "162730.097500", "162731.587500", "162733.077500", "162734.567500", "162736.057500", "162737.547500", "162739.037500", "162740.527500", "162742.017500", "162743.507500", "162744.997500", "162746.487500", "162747.977500", "162749.467500", "162750.957500", "162752.447500", "162753.937500", "162755.427500", "162756.917500", "162758.407500", "162759.897500", "162801.387500", "162802.877500", "162804.367500", "162805.857500", "162807.347500", "162808.837500", "162810.327500", "162811.817500", "162813.307500", "162814.797500", "162816.287500", "162817.777500", "162819.267500", "162820.757500", "162822.247500", "162823.737500", "162825.227500", "162826.717500", "162828.207500", "162829.697500", "162831.187500", "162832.677500", "162834.167500", "162835.657500", "162837.147500", "162838.637500", "162840.127500", "162841.617500", "162843.107500", "162844.597500", "162846.087500", "162847.577500", "162849.067500", "162850.557500", "162852.047500", "162853.537500", "162855.027500", "162856.517500", "162858.007500", "162859.497500", "162900.987500", "162902.477500", "162903.967500", "162905.457500", "162906.947500", "162908.437500", "162909.927500", "162911.417500", "162912.907500", "162914.397500", "162915.887500", "162917.377500", "162918.867500", "162920.357500", "162921.847500", "162923.337500", "162924.827500", "162926.317500", "162927.807500", "162929.297500", "162930.787500", "162932.277500", "162933.767500", "162935.257500", "162936.747500", "162938.237500", "162939.727500", "162941.217500", "162942.707500", "162944.197500", "162945.687500", "162947.177500", "162948.667500", "162950.157500", "162951.647500", "162953.137500", "162954.627500", "162956.117500", "162957.607500", "162959.097500", "163000.587500", "163002.077500", "163003.567500", "163005.057500", "163006.547500", "163008.037500", "163009.527500", "163011.017500", "163012.507500", "163013.997500", "163015.487500", "163016.977500", "163018.467500", "163019.957500", "163021.447500", "163022.937500", "163024.427500", "163025.917500", "163027.407500", "163028.897500", "163030.387500", "163031.877500", "163033.367500", "163034.857500", "163036.347500", "163037.837500", "163039.327500", "163040.817500", "163042.307500", "163043.797500", "163045.287500", "163046.777500", "163048.267500", "163049.757500", "163051.247500", "163052.737500", "163054.227500", "163055.717500", "163057.207500", "163058.697500", "163100.187500", "163101.677500", "163103.167500", "163104.657500", "163106.147500", "163107.637500", "163109.127500", "163110.617500", "163112.107500", "163113.597500", "163115.087500", "163116.577500", "163118.067500", "163119.557500", "163121.047500", "163122.537500", "163124.027500", "163125.517500", "163127.007500", "163128.497500", "163129.987500", "163131.477500", "163132.967500", "163134.457500", "163135.947500", "163137.437500", "163138.927500", "163140.417500", "163141.907500", "163143.397500", "163144.887500", "163146.377500", "163147.867500", "163149.357500", "163150.847500", "163152.337500", "163153.827500", "163155.317500", "163156.807500", "163158.297500", "163159.787500", "163201.277500", "163202.767500", "163204.257500", "163205.747500", "163207.237500", "163208.727500", "163210.217500", "163211.707500", "163213.197500", "163214.687500", "163216.177500", "163217.667500", "163219.157500", "163220.647500", "163222.137500", "163223.627500", "163225.117500", "163226.607500", "163228.097500", "163229.587500", "163231.077500", "163232.567500", "163234.057500", "163235.547500", "163237.037500", "163238.527500", "163240.017500", "163241.507500", "163242.997500", "163244.487500", "163245.977500", "163247.467500", "163248.957500", "163250.447500", "163251.937500", "163253.427500", "163254.917500", "163256.407500", "163257.897500", "163259.387500", "163300.877500", "163302.367500", "163303.857500", "163305.347500", "163306.837500", "163308.327500", "163309.817500", "163311.307500", "163312.797500", "163314.287500", "163315.777500", "163317.267500", "163318.757500", "163320.247500", "163321.737500", "163323.227500", "163324.717500", "163326.207500", "163327.697500", "163329.187500", "163330.677500", "163332.167500", "163333.657500", "163335.147500", "163336.637500", "163338.127500", "163339.617500", "163341.107500", "163342.597500", "163344.087500", "163345.577500", "163347.067500", "163348.557500", "163350.047500", "163351.537500", "163353.027500", "163354.517500", "163356.007500", "163357.497500", "163358.987500", "163400.477500", "163401.967500", "163403.457500", "163404.947500", "163406.437500", "163407.927500", "163409.417500", "163410.907500", "163412.397500", "163413.887500", "163415.377500", "163416.867500", "163418.357500", "163419.847500", "163421.337500", "163422.827500", "163424.317500", "163425.807500", "163427.297500", "163428.787500", "163430.277500", "163431.767500", "163433.257500", "163434.747500", "163436.237500", "163437.727500", "163439.217500", "163440.707500", "163442.197500", "163443.687500", "163445.177500", "163446.667500", "163448.157500", "163449.647500", "163451.137500", "163452.627500", "163454.117500", "163455.607500", "163457.097500", "163458.587500", "163500.077500", "163501.567500", "163503.057500", "163504.547500", "163506.037500", "163507.527500", "163509.017500", "163510.507500", "163511.997500", "163513.487500", "163514.977500", "163516.467500", "163517.957500", "163519.447500", "163520.937500", "163522.427500", "163523.917500", "163525.407500", "163526.897500", "163528.387500", "163529.877500", "163531.367500", "163532.857500", "163534.347500", "163535.837500", "163537.327500", "163538.817500", "163540.307500", "163541.797500", "163543.287500", "163544.777500", "163546.267500", "163547.757500", "163549.247500", "163550.737500", "163552.227500", "163553.717500", "163555.207500", "163556.697500", "163558.187500", "163559.677500", "163601.167500", "163602.657500", "163604.147500", "163605.637500", "163607.127500", "163608.617500", "163610.107500", "163611.597500"],
      "ContentTime": ["162558.323000", "162558.326000", "162558.330000", "162558.332000", "162558.335000", "162558.338000", "162558.341000", "162558.344000", "162558.346000", "162558.349000", "162558.352000", "162558.355000", "162558.358000", "162558.361000", "162558.363000", "162558.366000", "162558.369000", "162558.372000", "162558.375000", "162558.389000", "162558.392000", "162558.395000", "162558.397000", "162558.400000", "162558.403000", "162618.286000", "162618.289000", "162618.292000", "162618.294000", "162618.297000", "162618.300000", "162618.303000", "162618.306000", "162618.308000", "162618.311000", "162618.314000", "162618.317000", "162618.320000", "162618.338000", "162618.341000", "162618.344000", "162618.346000", "162618.358000", "162618.361000", "162618.364000", "162638.286000", "162638.289000", "162638.292000", "162638.295000", "162638.297000", "162638.300000", "162638.303000", "162638.306000", "162638.309000", "162638.312000", "162638.315000", "162638.326000", "162638.329000", "162638.332000", "162638.335000", "162638.338000", "162638.341000", "162638.343000", "162638.346000", "162638.349000", "162658.286000", "162658.289000", "162658.292000", "162658.294000", "162658.297000", "162658.300000", "162658.303000", "162658.306000", "162658.308000", "162658.311000", "162658.314000", "162658.317000", "162658.320000", "162658.324000", "162658.327000", "162658.330000", "162658.333000", "162658.336000", "162658.338000", "162658.341000", "162738.286000", "162738.289000", "162738.292000", "162738.295000", "162738.298000", "162738.301000", "162738.304000", "162738.306000", "162738.309000", "162738.312000", "162738.315000", "162738.318000", "162738.321000", "162738.323000", "162738.326000", "162738.329000", "162738.332000", "162738.335000", "162738.337000", "162738.340000", "162738.343000", "162738.346000", "162738.349000", "162738.352000", "162738.354000", "162738.358000", "162738.361000", "162738.364000", "162738.367000", "162738.370000", "162818.286000", "162818.289000", "162818.292000", "162818.303000", "162818.306000", "162818.309000", "162818.311000", "162818.314000", "162818.317000", "162818.320000", "162818.323000", "162818.325000", "162818.328000", "162818.331000", "162818.334000", "162818.337000", "162818.339000", "162818.342000", "162818.345000", "162818.348000", "162818.351000", "162818.353000", "162818.356000", "162818.359000", "162818.362000", "162818.365000", "162818.368000", "162858.286000", "162858.289000", "162858.292000", "162858.295000", "162858.298000", "162858.300000", "162858.303000", "162858.306000", "162858.309000", "162858.312000", "162858.314000", "162858.317000", "162858.320000", "162858.323000", "162858.326000", "162858.329000", "162858.331000", "162858.334000", "162858.337000", "162858.340000", "162858.343000", "162858.345000", "162858.348000", "162858.351000", "162858.354000", "162858.357000", "162858.359000", "162918.286000", "162918.289000", "162918.292000", "162918.295000", "162918.298000", "162918.301000", "162918.304000", "162918.307000", "162918.310000", "162918.313000", "162918.316000", "162918.319000", "162918.322000", "162958.286000", "162958.289000", "162958.292000", "162958.295000", "162958.297000", "162958.300000", "162958.303000", "162958.306000", "162958.309000", "162958.312000", "162958.314000", "162958.317000", "162958.320000", "162958.323000", "162958.326000", "162958.329000", "162958.331000", "162958.334000", "162958.337000", "162958.340000", "162958.343000", "162958.346000", "162958.348000", "162958.351000", "162958.354000", "162958.357000", "162958.360000", "163038.286000", "163038.289000", "163038.292000", "163038.294000", "163038.297000", "163038.300000", "163038.303000", "163038.306000", "163038.309000", "163038.311000", "163038.314000", "163038.317000", "163038.320000", "163038.323000", "163038.326000", "163038.328000", "163038.331000", "163038.334000", "163038.337000", "163038.340000", "163038.343000", "163038.345000", "163038.348000", "163038.351000", "163038.354000", "163038.369000", "163038.372000", "163118.286000", "163118.289000", "163118.292000", "163118.295000", "163118.298000", "163118.301000", "163118.303000", "163118.306000", "163118.309000", "163118.312000", "163118.315000", "163118.318000", "163118.321000", "163118.324000", "163118.327000", "163118.330000", "163118.332000", "163118.335000", "163118.350000", "163118.352000", "163118.355000", "163118.358000", "163118.361000", "163118.364000", "163118.367000", "163118.370000", "163118.373000", "163158.286000", "163158.289000", "163158.292000", "163158.295000", "163158.297000", "163158.300000", "163158.303000", "163158.306000", "163158.309000", "163158.312000", "163158.315000", "163158.318000", "163158.320000", "163158.323000", "163158.326000", "163158.329000", "163158.332000", "163158.335000", "163158.337000", "163158.340000", "163158.343000", "163158.346000", "163158.349000", "163158.352000", "163158.354000", "163158.357000", "163158.360000", "163238.286000", "163238.289000", "163238.292000", "163238.295000", "163238.297000", "163238.300000", "163238.303000", "163238.306000", "163238.309000", "163238.312000", "163238.315000", "163238.317000", "163238.320000", "163238.323000", "163238.326000", "163238.329000", "163238.332000", "163238.334000", "163238.337000", "163238.340000", "163238.343000", "163238.346000", "163238.348000", "163238.351000", "163238.354000", "163238.357000", "163238.360000", "163318.286000", "163318.289000", "163318.292000", "163318.295000", "163318.297000", "163318.300000", "163318.303000", "163318.306000", "163318.309000", "163318.312000", "163318.314000", "163318.317000", "163318.320000", "163318.323000", "163318.326000", "163318.329000", "163318.331000", "163318.334000", "163318.337000", "163318.340000", "163318.343000", "163318.346000", "163318.348000", "163318.351000", "163318.354000", "163318.357000", "163318.360000", "163358.286000", "163358.289000", "163358.292000", "163358.295000", "163358.298000", "163358.300000", "163358.303000", "163358.306000", "163358.309000", "163358.312000", "163358.315000", "163358.317000", "163358.320000", "163358.323000", "163358.326000", "163358.329000", "163358.332000", "163358.335000", "163358.337000", "163358.340000", "163358.343000", "163358.346000", "163358.349000", "163358.352000", "163358.355000", "163358.358000", "163438.286000", "163438.289000", "163438.292000", "163438.295000", "163438.298000", "163438.300000", "163438.303000", "163438.306000", "163438.309000", "163438.312000", "163438.315000", "163438.318000", "163438.320000", "163438.323000", "163438.326000", "163438.329000", "163438.332000", "163438.335000", "163438.337000", "163438.340000", "163438.343000", "163438.346000", "163438.349000", "163438.352000", "163438.354000", "163438.357000", "163438.360000", "163518.286000", "163518.289000", "163518.292000", "163518.295000", "163518.298000", "163518.301000", "163518.303000", "163518.306000", "163518.309000", "163518.312000", "163518.315000", "163518.318000", "163518.321000", "163518.323000", "163518.326000", "163518.329000", "163518.332000", "163518.335000", "163518.337000", "163518.340000", "163518.343000", "163518.360000", "163518.363000", "163518.366000", "163518.369000", "163518.372000", "163518.375000", "163558.286000", "163558.289000", "163558.292000", "163558.295000", "163558.298000", "163558.300000", "163558.303000", "163558.306000", "163558.309000", "163558.312000", "163558.315000", "163558.317000", "163558.320000", "163558.323000", "163558.326000", "163558.329000", "163558.332000", "163558.334000", "163558.337000", "163558.340000", "163558.343000", "163558.346000", "163558.349000", "163558.352000", "163558.354000", "163558.357000", "163558.360000", "163609.581000", "163609.584000", "163609.587000", "163609.590000", "163609.593000", "163609.596000", "163609.599000", "163609.602000"],
