{
  "AcquisitionMatrixPE": 104,
  "AcquisitionNumber": 1,
  "AcquisitionTime": "09:47:30.017500",
  "BandwidthPerPixelPhaseEncode": 17.17,
  "BaseResolution": 104,
  "BodyPartExamined": "BRAIN",
  "CoilString": "HC1-7;NC1_2",
  "ConsistencyInfo": "N4_VE11C_LATEST_20160120",
  "ConversionSoftware": "dcm2niix",
  "ConversionSoftwareVersion": "v1.0.20190902",
  "DerivedVendorReportedEchoSpacing": 0.000560011,
  "DeviceSerialNumber": "167006",
  "DwellTime": 2.1e-06,
  "EchoTime": 0.037,
  "EchoTrainLength": 104,
  "EffectiveEchoSpacing": 0.000560011,
  "FlipAngle": 52,
  "ImageComments": "Unaliased_MB4_PE3_LB",
  "ImageOrientationPatientDICOM": [0.999696, 0.0246473, -0.000491432, -0.0216389, 0.867776, -0.496484],
  "ImageType": [
    "ORIGINAL",
    "PRIMARY",
    "M",
    "MB",
    "ND",
    "MOSAIC"
],
  "ImagingFrequency": 123.259,
  "InPlanePhaseEncodingDirectionDICOM": "COL",
  "InstitutionAddress": "Chemin_Queen-Mary_4565_Montreal_District_CA_H3W_1W5",
  "InstitutionName": "IUGM",
  "InstitutionalDepartmentName": "Department",
  "MRAcquisitionType": "2D",
  "MagneticFieldStrength": 3,
  "Manufacturer": "Siemens",
  "ManufacturersModelName": "Prisma_fit",
  "Modality": "MR",
  "MultibandAccelerationFactor": 4,
  "PartialFourier": 1,
  "PatientPosition": "HFS",
  "PercentPhaseFOV": 100,
  "PhaseEncodingDirection": "j",
  "PhaseEncodingSteps": 104,
  "PhaseResolution": 1,
  "PixelBandwidth": 2290,
  "ProcedureStepDescription": "video_friends",
  "ProtocolName": "func_task-friends-s05e05a",
  "PulseSequenceDetails": "%CustomerSeq%_cmrr_mbep2d_bold",
  "ReceiveCoilActiveElements": "HC1-7;NC1,2",
  "ReceiveCoilName": "HeadNeck_64",
  "ReconMatrixPE": 104,
  "RepetitionTime": 1.49,
  "SAR": 0.0370523,
  "ScanOptions": "FS",
  "ScanningSequence": "EP",
  "SequenceName": "epfid2d1_104",
  "SequenceVariant": "SK_SS",
  "SeriesDescription": "func_task-friends-s05e05a",
  "SeriesNumber": 13,
  "ShimSetting": [628, -7201, -8862, 380, -22, -244, -28, -26],
  "SliceThickness": 2,
  "SliceTiming": [0, 0.7825, 0.0975, 0.88, 0.195, 0.98, 0.2925, 1.0775, 0.3925, 1.175, 0.49, 1.2725, 0.5875, 1.37, 0.685, 0, 0.7825, 0.0975, 0.88, 0.195, 0.98, 0.2925, 1.0775, 0.3925, 1.175, 0.49, 1.2725, 0.5875, 1.37, 0.685, 0, 0.7825, 0.0975, 0.88, 0.195, 0.98, 0.2925, 1.0775, 0.3925, 1.175, 0.49, 1.2725, 0.5875, 1.37, 0.685, 0, 0.7825, 0.0975, 0.88, 0.195, 0.98, 0.2925, 1.0775, 0.3925, 1.175, 0.49, 1.2725, 0.5875, 1.37, 0.685],
  "SoftwareVersions": "syngo_MR_E11",
  "SpacingBetweenSlices": 2,
  "StationName": "MRC35049",
  "TaskName": "s05e05a",
  "TotalReadoutTime": 0.0576811,
  "TxRefAmp": 252.724,
  "WipMemBlock": "9f6428b6-f775-4577-8d83-620bb326ca32||Sequence: R016 ve11c/master r/e634e98; Dec 19 2017 11:00:25 by eja",
  "dcmmeta_affine": [
    [-1.9993921518325806, -0.043277740478515625, 0.023621046915650368, 104.85595703125],
    [-0.04929452762007713, 1.7355520725250244, -0.9926878213882446, -57.336299896240234],
    [-0.0009828645270317793, 0.9929683208465576, 1.7360912561416626, -97.10305786132812],
    [0.0, 0.0, 0.0, 1.0]
],
  "dcmmeta_reorient_transform": [
    [0.0, -1.0, 0.0, 103.0],
    [1.0, 0.0, 0.0, 0.0],
    [0.0, 0.0, 1.0, 0.0],
    [0.0, 0.0, 0.0, 1.0]
],
  "dcmmeta_shape": [104, 104, 60, 486],
  "dcmmeta_slice_dim": 2,
  "dcmmeta_version": 0.6,
  "global": {
    "const": {
      "AcquisitionMatrix": [104, 0, 0, 104],
      "AngioFlag": "N",
      "BitsAllocated": 16,
      "BitsStored": 16,
      "BodyPartExamined": "BRAIN",
      "Columns": 832,
      "EchoNumbers": 1,
      "EchoTime": 37.0,
      "EchoTrainLength": 104,
      "FlipAngle": 52.0,
      "HighBit": 15,
      "ImageOrientationPatient": [0.99969608924898, 0.02464726424249, -0.0004914322455, -0.0216388695788, 0.86777602383615, -0.496484170723],
      "ImagePositionPatient": [-812.42400582587, -771.10971633084, 366.97092243394],
      "ImageType": [
        "ORIGINAL",
        "PRIMARY",
        "M",
        "MB",
        "ND",
        "MOSAIC"
],
      "ImagedNucleus": "1H",
      "ImagingFrequency": 123.259011,
      "InPlanePhaseEncodingDirection": "COL",
      "MRAcquisitionType": "2D",
      "MagneticFieldStrength": 3.0,
      "Manufacturer": "SIEMENS",
      "ManufacturerModelName": "Prisma_fit",
      "Modality": "MR",
      "NumberOfAverages": 1.0,
      "NumberOfPhaseEncodingSteps": 104,
      "PercentPhaseFieldOfView": 100.0,
      "PercentSampling": 100.0,
      "PerformedProcedureStepStartTime": "090120.474000",
      "PhotometricInterpretation": "MONOCHROME2",
      "PixelBandwidth": 2290.0,
      "PixelRepresentation": 0,
      "PixelSpacing": [2.0, 2.0],
      "ProtocolName": "func_task-friends-s05e05a",
      "RepetitionTime": 1490.0,
      "Rows": 832,
      "SAR": 0.03705225029604,
      "SamplesPerPixel": 1,
      "ScanOptions": "FS",
      "ScanningSequence": "EP",
      "SequenceName": "epfid2d1_104",
      "SequenceVariant": [
        "SK",
        "SS"
],
      "SeriesDescription": "func_task-friends-s05e05a",
      "SeriesNumber": 13,
      "SeriesTime": "094851.277000",
      "SliceLocation": -54.592957096575,
      "SliceThickness": 2.0,
      "SmallestImagePixelValue": 0,
      "SoftwareVersions": "syngo MR E11",
      "SpacingBetweenSlices": 1.9999999776104,
      "SpecificCharacterSet": "ISO_IR 100",
      "StudyID": "1",
      "StudyTime": "090120.329000",
      "TransmitCoilName": "Body",
      "VariableFlipAngleFlag": "N",
      "WindowCenterWidthExplanation": "Algo1",
      "dBdt": 0.0},
    "slices": {}
  },
  "time": {
    "samples": {
      "AcquisitionNumber": [1, 2, 3, 4, 5, 6, 7, 8, 9, 10, 11, 12, 13, 14, 15, 16, 17, 18, 19, 20, 21, 22, 23, 24, 25, 26, 27, 28, 29, 30, 31, 32, 33, 34, 35, 36, 37, 38, 39, 40, 41, 42, 43, 44, 45, 46, 47, 48, 49, 50, 51, 52, 53, 54, 55, 56, 57, 58, 59, 60, 61, 62, 63, 64, 65, 66, 67, 68, 69, 70, 71, 72, 73, 74, 75, 76, 77, 78, 79, 80, 81, 82, 83, 84, 85, 86, 87, 88, 89, 90, 91, 92, 93, 94, 95, 96, 97, 98, 99, 100, 101, 102, 103, 104, 105, 106, 107, 108, 109, 110, 111, 112, 113, 114, 115, 116, 117, 118, 119, 120, 121, 122, 123, 124, 125, 126, 127, 128, 129, 130, 131, 132, 133, 134, 135, 136, 137, 138, 139, 140, 141, 142, 143, 144, 145, 146, 147, 148, 149, 150, 151, 152, 153, 154, 155, 156, 157, 158, 159, 160, 161, 162, 163, 164, 165, 166, 167, 168, 169, 170, 171, 172, 173, 174, 175, 176, 177, 178, 179, 180, 181, 182, 183, 184, 185, 186, 187, 188, 189, 190, 191, 192, 193, 194, 195, 196, 197, 198, 199, 200, 201, 202, 203, 204, 205, 206, 207, 208, 209, 210, 211, 212, 213, 214, 215, 216, 217, 218, 219, 220, 221, 222, 223, 224, 225, 226, 227, 228, 229, 230, 231, 232, 233, 234, 235, 236, 237, 238, 239, 240, 241, 242, 243, 244, 245, 246, 247, 248, 249, 250, 251, 252, 253, 254, 255, 256, 257, 258, 259, 260, 261, 262, 263, 264, 265, 266, 267, 268, 269, 270, 271, 272, 273, 274, 275, 276, 277, 278, 279, 280, 281, 282, 283, 284, 285, 286, 287, 288, 289, 290, 291, 292, 293, 294, 295, 296, 297, 298, 299, 300, 301, 302, 303, 304, 305, 306, 307, 308, 309, 310, 311, 312, 313, 314, 315, 316, 317, 318, 319, 320, 321, 322, 323, 324, 325, 326, 327, 328, 329, 330, 331, 332, 333, 334, 335, 336, 337, 338, 339, 340, 341, 342, 343, 344, 345, 346, 347, 348, 349, 350, 351, 352, 353, 354, 355, 356, 357, 358, 359, 360, 361, 362, 363, 364, 365, 366, 367, 368, 369, 370, 371, 372, 373, 374, 375, 376, 377, 378, 379, 380, 381, 382, 383, 384, 385, 386, 387, 388, 389, 390, 391, 392, 393, 394, 395, 396, 397, 398, 399, 400, 401, 402, 403, 404, 405, 406, 407, 408, 409, 410, 411, 412, 413, 414, 415, 416, 417, 418, 419, 420, 421, 422, 423, 424, 425, 426, 427, 428, 429, 430, 431, 432, 433, 434, 435, 436, 437, 438, 439, 440, 441, 442, 443, 444, 445, 446, 447, 448, 449, 450, 451, 452, 453, 454, 455, 456, 457, 458, 459, 460, 461, 462, 463, 464, 465, 466, 467, 468, 469, 470, 471, 472, 473, 474, 475, 476, 477, 478, 479, 480, 481, 482, 483, 484, 485, 486],
      "AcquisitionTime": ["094730.017500", "094731.507500", "094732.997500", "094734.487500", "094735.977500", "094737.467500", "094738.957500", "094740.447500", "094741.937500", "094743.427500", "094744.917500", "094746.407500", "094747.897500", "094749.387500", "094750.877500", "094752.367500", "094753.857500", "094755.347500", "094756.837500", "094758.327500", "094759.817500", "094801.307500", "094802.797500", "094804.287500", "094805.777500", "094807.267500", "094808.757500", "094810.247500", "094811.737500", "094813.227500", "094814.717500", "094816.207500", "094817.697500", "094819.187500", "094820.677500", "094822.167500", "094823.657500", "094825.147500", "094826.637500", "094828.127500", "094829.617500", "094831.107500", "094832.597500", "094834.087500", "094835.577500", "094837.067500", "094838.557500", "094840.047500", "094841.537500", "094843.027500", "094844.517500", "094846.007500", "094847.497500", "094848.987500", "094850.477500", "094851.967500", "094853.457500", "094854.947500", "094856.437500", "094857.927500", "094859.417500", "094900.907500", "094902.397500", "094903.887500", "094905.377500", "094906.867500", "094908.357500", "094909.847500", "094911.337500", "094912.827500", "094914.317500", "094915.807500", "094917.297500", "094918.787500", "094920.277500", "094921.767500", "094923.257500", "094924.747500", "094926.237500", "094927.727500", "094929.217500", "094930.707500", "094932.197500", "094933.687500", "094935.177500", "094936.667500", "094938.157500", "094939.647500", "094941.137500", "094942.627500", "094944.117500", "094945.607500", "094947.097500", "094948.587500", "094950.077500", "094951.567500", "094953.057500", "094954.547500", "094956.037500", "094957.527500", "094959.017500", "095000.507500", "095001.997500", "095003.487500", "095004.977500", "095006.467500", "095007.957500", "095009.447500", "095010.937500", "095012.427500", "095013.917500", "095015.407500", "095016.897500", "095018.387500", "095019.877500", "095021.367500", "095022.857500", "095024.347500", "095025.837500", "095027.327500", "095028.817500", "095030.307500", "095031.797500", "095033.287500", "095034.777500", "095036.267500", "095037.757500", "095039.247500", "095040.737500", "095042.227500", "095043.717500", "095045.207500", "095046.697500", "095048.187500", "095049.677500", "095051.167500", "095052.657500", "095054.147500", "095055.637500", "095057.127500", "095058.617500", "095100.107500", "095101.597500", "095103.087500", "095104.577500", "095106.067500", "095107.557500", "095109.047500", "095110.537500", "095112.027500", "095113.517500", "095115.007500", "095116.497500", "095117.987500", "095119.477500", "095120.967500", "095122.457500", "095123.947500", "095125.437500", "095126.927500", "095128.417500", "095129.907500", "095131.397500", "095132.887500", "095134.377500", "095135.867500", "095137.357500", "095138.847500", "095140.337500", "095141.827500", "095143.317500", "095144.807500", "095146.297500", "095147.787500", "095149.277500", "095150.767500", "095152.257500", "095153.747500", "095155.237500", "095156.727500", "095158.217500", "095159.707500", "095201.197500", "095202.687500", "095204.177500", "095205.667500", "095207.157500", "095208.647500", "095210.137500", "095211.627500", "095213.117500", "095214.607500", "095216.097500", "095217.587500", "095219.077500", "095220.567500", "095222.057500", "095223.547500", "095225.037500", "095226.527500", "095228.017500", "095229.507500", "095230.997500", "095232.487500", "095233.977500", "095235.467500", "095236.957500", "095238.447500", "095239.937500", "095241.427500", "095242.917500", "095244.407500", "095245.897500", "095247.387500", "095248.877500", "095250.367500", "095251.857500", "095253.347500", "095254.837500", "095256.327500", "095257.817500", "095259.307500", "095300.797500", "095302.287500", "095303.777500", "095305.267500", "095306.757500", "095308.247500", "095309.737500", "095311.227500", "095312.717500", "095314.207500", "095315.697500", "095317.187500", "095318.677500", "095320.167500", "095321.657500", "095323.147500", "095324.637500", "095326.127500", "095327.617500", "095329.107500", "095330.597500", "095332.087500", "095333.577500", "095335.067500", "095336.557500", "095338.047500", "095339.537500", "095341.027500", "095342.517500", "095344.007500", "095345.497500", "095346.987500", "095348.477500", "095349.967500", "095351.457500", "095352.947500", "095354.437500", "095355.927500", "095357.417500", "095358.907500", "095400.397500", "095401.887500", "095403.377500", "095404.867500", "095406.357500", "095407.847500", "095409.337500", "095410.827500", "095412.317500", "095413.807500", "095415.297500", "095416.787500", "095418.277500", "095419.767500", "095421.257500", "095422.747500", "095424.237500", "095425.727500", "095427.217500", "095428.707500", "095430.197500", "095431.687500", "095433.177500", "095434.667500", "095436.157500", "095437.647500", "095439.137500", "095440.627500", "095442.117500", "095443.607500", "095445.097500", "095446.587500", "095448.077500", "095449.567500", "095451.057500", "095452.547500", "095454.037500", "095455.527500", "095457.017500", "095458.507500", "095459.997500", "095501.487500", "095502.977500", "095504.467500", "095505.957500", "095507.447500", "095508.937500", "095510.427500", "095511.917500", "095513.407500", "095514.897500", "095516.387500", "095517.877500", "095519.367500", "095520.857500", "095522.347500", "095523.837500", "095525.327500", "095526.817500", "095528.307500", "095529.797500", "095531.287500", "095532.777500", "095534.267500", "095535.757500", "095537.247500", "095538.737500", "095540.227500", "095541.717500", "095543.207500", "095544.697500", "095546.187500", "095547.677500", "095549.167500", "095550.657500", "095552.147500", "095553.637500", "095555.127500", "095556.617500", "095558.107500", "095559.597500", "095601.087500", "095602.577500", "095604.067500", "095605.557500", "095607.047500", "095608.537500", "095610.027500", "095611.517500", "095613.007500", "095614.497500", "095615.987500", "095617.477500", "095618.967500", "095620.457500", "095621.947500", "095623.437500", "095624.927500", "095626.417500", "095627.907500", "095629.397500", "095630.887500", "095632.377500", "095633.867500", "095635.357500", "095636.847500", "095638.337500", "095639.827500", "095641.317500", "095642.807500", "095644.297500", "095645.787500", "095647.277500", "095648.767500", "095650.257500", "095651.747500", "095653.237500", "095654.727500", "095656.217500", "095657.707500", "095659.197500", "095700.687500", "095702.177500", "095703.667500", "095705.157500", "095706.647500", "095708.137500", "095709.627500", "095711.117500", "095712.607500", "095714.097500", "095715.587500", "095717.077500", "095718.567500", "095720.057500", "095721.547500", "095723.037500", "095724.527500", "095726.017500", "095727.507500", "095728.997500", "095730.487500", "095731.977500", "095733.467500", "095734.957500", "095736.447500", "095737.937500", "095739.427500", "095740.917500", "095742.407500", "095743.897500", "095745.387500", "095746.877500", "095748.367500", "095749.857500", "095751.347500", "095752.837500", "095754.327500", "095755.817500", "095757.307500", "095758.797500", "095800.287500", "095801.777500", "095803.267500", "095804.757500", "095806.247500", "095807.737500", "095809.227500", "095810.717500", "095812.207500", "095813.697500", "095815.187500", "095816.677500", "095818.167500", "095819.657500", "095821.147500", "095822.637500", "095824.127500", "095825.617500", "095827.107500", "095828.597500", "095830.087500", "095831.577500", "095833.067500", "095834.557500", "095836.047500", "095837.537500", "095839.027500", "095840.517500", "095842.007500", "095843.497500", "095844.987500", "095846.477500", "095847.967500", "095849.457500", "095850.947500", "095852.437500", "095853.927500", "095855.417500", "095856.907500", "095858.397500", "095859.887500", "095901.377500", "095902.867500", "095904.357500", "095905.847500", "095907.337500", "095908.827500", "095910.317500", "095911.807500", "095913.297500", "095914.787500", "095916.277500", "095917.767500", "095919.257500", "095920.747500", "095922.237500", "095923.727500", "095925.217500", "095926.707500", "095928.197500", "095929.687500", "095931.177500", "095932.667500"],
      "ContentTime": ["094851.279000", "094851.283000", "094851.285000", "094851.288000", "094851.291000", "094851.294000", "094851.297000", "094851.303000", "094851.306000", "094851.309000", "094851.311000", "094851.314000", "094851.317000", "094851.320000", "094851.323000", "094851.325000", "094851.328000", "094851.331000", "094851.334000", "094851.337000", "094851.339000", "094851.342000", "094851.345000", "094851.348000", "094851.350000", "094851.353000", "094851.356000", "094851.359000", "094851.362000", "094911.245000", "094911.248000", "094911.251000", "094911.259000", "094911.262000", "094911.264000", "094911.267000", "094911.270000", "094911.273000", "094911.275000", "094911.278000", "094911.281000", "094911.284000", "094911.287000", "094911.289000", "094911.292000", "094911.295000", "094911.298000", "094911.301000", "094911.303000", "094931.246000", "094931.249000", "094931.252000", "094931.254000", "094931.257000", "094931.260000", "094931.263000", "094931.265000", "094931.268000", "094931.271000", "094931.274000", "094931.277000", "094931.279000", "094931.282000", "094931.285000", "094931.288000", "094931.290000", "094931.298000", "094931.301000", "094931.304000", "094951.245000", "094951.248000", "094951.251000", "094951.253000", "094951.256000", "094951.259000", "094951.262000", "094951.265000", "094951.272000", "094951.275000", "094951.278000", "094951.281000", "094951.284000", "094951.286000", "094951.289000", "094951.292000", "094951.295000", "094951.298000", "094951.300000", "094951.303000", "095011.245000", "095011.248000", "095011.251000", "095011.254000", "095011.256000", "095011.259000", "095011.262000", "095011.265000", "095011.267000", "095011.270000", "095011.273000", "095011.276000", "095011.278000", "095011.281000", "095011.284000", "095011.287000", "095011.290000", "095011.292000", "095011.295000", "095051.245000", "095051.248000", "095051.251000", "095051.254000", "095051.257000", "095051.260000", "095051.267000", "095051.270000", "095051.273000", "095051.276000", "095051.279000", "095051.282000", "095051.284000", "095051.287000", "095051.290000", "095051.293000", "095051.296000", "095051.298000", "095051.301000", "095051.304000", "095051.307000", "095051.310000", "095051.313000", "095051.315000", "095051.318000", "095051.321000", "095131.245000", "095131.248000", "095131.251000", "095131.253000", "095131.256000", "095131.259000", "095131.262000", "095131.265000", "095131.267000", "095131.270000", "095131.273000", "095131.276000", "095131.279000", "095131.281000", "095131.284000", "095131.287000", "095131.290000", "095131.293000", "095131.295000", "095131.298000", "095131.301000", "095131.304000", "095131.307000", "095131.310000", "095131.312000", "095131.315000", "095131.318000", "095211.245000", "095211.248000", "095211.251000", "095211.253000", "095211.256000", "095211.259000", "095211.262000", "095211.265000", "095211.267000", "095211.270000", "095211.273000", "095211.276000", "095211.279000", "095211.282000", "095211.285000", "095211.287000", "095211.290000", "095211.293000", "095211.296000", "095211.298000", "095211.301000", "095211.315000", "095211.318000", "095211.321000", "095211.323000", "095211.326000", "095211.329000", "095251.245000", "095251.248000", "095251.251000", "095251.253000", "095251.256000", "095251.259000", "095251.262000", "095251.265000", "095251.268000", "095251.270000", "095251.273000", "095251.276000", "095251.287000", "095251.289000", "095251.292000", "095251.295000", "095251.298000", "095251.301000", "095251.303000", "095251.306000", "095251.309000", "095251.312000", "095251.315000", "095251.317000", "095251.320000", "095251.323000", "095251.326000", "095331.245000", "095331.248000", "095331.251000", "095331.254000", "095331.256000", "095331.259000", "095331.262000", "095331.265000", "095331.268000", "095331.271000", "095331.273000", "095331.276000", "095331.279000", "095331.282000", "095331.285000", "095331.288000", "095331.290000", "095331.293000", "095331.296000", "095331.299000", "095331.309000", "095331.312000", "095331.315000", "095331.318000", "095331.320000", "095331.323000", "095331.326000", "095411.246000", "095411.249000", "095411.252000", "095411.254000", "095411.257000", "095411.260000", "095411.263000", "095411.266000", "095411.269000", "095411.271000", "095411.274000", "095411.277000", "095411.280000", "095411.283000", "095411.286000", "095411.288000", "095411.291000", "095411.294000", "095411.297000", "095411.300000", "095411.302000", "095411.305000", "095411.308000", "095411.311000", "095411.314000", "095411.316000", "095411.319000", "095451.245000", "095451.248000", "095451.251000", "095451.253000", "095451.256000", "095451.259000", "095451.262000", "095451.265000", "095451.268000", "095451.271000", "095451.274000", "095451.277000", "095451.280000", "095451.283000", "095451.286000", "095451.289000", "095451.291000", "095451.294000", "095451.297000", "095451.300000", "095451.303000", "095451.306000", "095451.308000", "095451.311000", "095451.314000", "095451.317000", "095531.245000", "095531.248000", "095531.251000", "095531.254000", "095531.256000", "095531.259000", "095531.262000", "095531.265000", "095531.268000", "095531.270000", "095531.273000", "095531.276000", "095531.279000", "095531.282000", "095531.285000", "095531.287000", "095531.290000", "095531.293000", "095531.296000", "095531.299000", "095531.301000", "095531.304000", "095531.307000", "095531.310000", "095531.313000", "095531.315000", "095531.318000", "095611.245000", "095611.248000", "095611.251000", "095611.254000", "095611.256000", "095611.259000", "095611.262000", "095611.265000", "095611.268000", "095611.270000", "095611.273000", "095611.276000", "095611.279000", "095611.282000", "095611.284000", "095611.287000", "095611.290000", "095611.293000", "095611.296000", "095611.299000", "095611.301000", "095611.304000", "095611.307000", "095611.310000", "095611.313000", "095611.316000", "095611.318000", "095651.245000", "095651.248000", "095651.251000", "095651.254000", "095651.256000", "095651.259000", "095651.262000", "095651.265000", "095651.268000", "095651.270000", "095651.273000", "095651.276000", "095651.279000", "095651.282000", "095651.284000", "095651.287000", "095651.309000", "095651.312000", "095651.315000", "095651.318000", "095651.320000", "095651.323000", "095651.326000", "095651.329000", "095651.332000", "095651.334000", "095651.337000", "095731.245000", "095731.248000", "095731.251000", "095731.254000", "095731.256000", "095731.259000", "095731.262000", "095731.265000", "095731.268000", "095731.270000", "095731.273000", "095731.276000", "095731.279000", "095731.282000", "095731.284000", "095731.287000", "095731.290000", "095731.293000", "095731.296000", "095731.299000", "095731.301000", "095731.304000", "095731.307000", "095731.310000", "095731.312000", "095731.315000", "095731.318000", "095811.245000", "095811.248000", "095811.251000", "095811.254000", "095811.256000", "095811.259000", "095811.262000", "095811.265000", "095811.268000", "095811.270000", "095811.273000", "095811.276000", "095811.279000", "095811.281000", "095811.284000", "095811.287000", "095811.290000", "095811.293000", "095811.296000", "095811.298000", "095811.301000", "095811.304000", "095811.307000", "095811.310000", "095811.312000", "095811.315000", "095811.318000", "095851.246000", "095851.249000", "095851.252000", "095851.255000", "095851.257000", "095851.260000", "095851.263000", "095851.266000", "095851.269000", "095851.271000", "095851.274000", "095851.277000", "095851.280000", "095851.283000", "095851.285000", "095851.288000", "095851.291000", "095851.294000", "095851.297000", "095851.300000", "095851.302000", "095851.305000", "095851.308000", "095851.311000", "095851.314000", "095851.316000", "095851.319000", "095931.245000", "095931.248000", "095931.251000", "095931.254000", "095931.257000", "095931.260000", "095931.263000", "095931.266000", "095931.269000", "095931.272000", "095931.274000", "095931.277000", "095931.280000", "095931.283000", "095931.286000", "095931.289000", "095931.291000", "095931.294000", "095931.297000", "095931.300000", "095931.303000", "095931.305000", "095931.308000", "095931.311000", "095931.314000", "095931.317000", "095934.418000", "095934.421000", "095934.423000"],
