{
  "AcquisitionMatrixPE": 104,
  "AcquisitionNumber": 1,
  "AcquisitionTime": "09:21:22.230000",
  "BandwidthPerPixelPhaseEncode": 17.17,
  "BaseResolution": 104,
  "BodyPartExamined": "BRAIN",
  "CoilString": "HC1-7;NC1_2",
  "ConsistencyInfo": "N4_VE11C_LATEST_20160120",
  "ConversionSoftware": "dcm2niix",
  "ConversionSoftwareVersion": "v1.0.20190902",
  "DerivedVendorReportedEchoSpacing": 0.000560011,
  "DeviceSerialNumber": "167006",
  "DwellTime": 2.1e-06,
  "EchoTime": 0.037,
  "EchoTrainLength": 104,
  "EffectiveEchoSpacing": 0.000560011,
  "FlipAngle": 52,
  "ImageComments": "Unaliased_MB4_PE3_LB",
  "ImageOrientationPatientDICOM": [0.999696, 0.0246473, -0.000491432, -0.0216389, 0.867776, -0.496484],
  "ImageType": [
    "ORIGINAL",
    "PRIMARY",
    "M",
    "MB",
    "ND",
    "MOSAIC"
],
  "ImagingFrequency": 123.259,
  "InPlanePhaseEncodingDirectionDICOM": "COL",
  "InstitutionAddress": "Chemin_Queen-Mary_4565_Montreal_District_CA_H3W_1W5",
  "InstitutionName": "IUGM",
  "InstitutionalDepartmentName": "Department",
  "MRAcquisitionType": "2D",
  "MagneticFieldStrength": 3,
  "Manufacturer": "Siemens",
  "ManufacturersModelName": "Prisma_fit",
  "Modality": "MR",
  "MultibandAccelerationFactor": 4,
  "PartialFourier": 1,
  "PatientPosition": "HFS",
  "PercentPhaseFOV": 100,
  "PhaseEncodingDirection": "j",
  "PhaseEncodingSteps": 104,
  "PhaseResolution": 1,
  "PixelBandwidth": 2290,
  "ProcedureStepDescription": "video_friends",
  "ProtocolName": "func_task-friends-s05e04a",
  "PulseSequenceDetails": "%CustomerSeq%_cmrr_mbep2d_bold",
  "ReceiveCoilActiveElements": "HC1-7;NC1,2",
  "ReceiveCoilName": "HeadNeck_64",
  "ReconMatrixPE": 104,
  "RepetitionTime": 1.49,
  "SAR": 0.0370529,
  "ScanOptions": "FS",
  "ScanningSequence": "EP",
  "SequenceName": "epfid2d1_104",
  "SequenceVariant": "SK_SS",
  "SeriesDescription": "func_task-friends-s05e04a",
  "SeriesNumber": 9,
  "ShimSetting": [628, -7201, -8862, 380, -22, -244, -28, -26],
  "SliceThickness": 2,
  "SliceTiming": [0, 0.7825, 0.0975, 0.8825, 0.195, 0.98, 0.2925, 1.0775, 0.3925, 1.175, 0.49, 1.2725, 0.5875, 1.3725, 0.685, 0, 0.7825, 0.0975, 0.8825, 0.195, 0.98, 0.2925, 1.0775, 0.3925, 1.175, 0.49, 1.2725, 0.5875, 1.3725, 0.685, 0, 0.7825, 0.0975, 0.8825, 0.195, 0.98, 0.2925, 1.0775, 0.3925, 1.175, 0.49, 1.2725, 0.5875, 1.3725, 0.685, 0, 0.7825, 0.0975, 0.8825, 0.195, 0.98, 0.2925, 1.0775, 0.3925, 1.175, 0.49, 1.2725, 0.5875, 1.3725, 0.685],
  "SoftwareVersions": "syngo_MR_E11",
  "SpacingBetweenSlices": 2,
  "StationName": "MRC35049",
  "TaskName": "s05e04a",
  "TotalReadoutTime": 0.0576811,
  "TxRefAmp": 252.724,
  "WipMemBlock": "f90d0fb1-05d8-4944-8b71-ca070a143910||Sequence: R016 ve11c/master r/e634e98; Dec 19 2017 11:00:25 by eja",
  "dcmmeta_affine": [
    [-1.9993921518325806, -0.043277740478515625, 0.023621046915650368, 104.85595703125],
    [-0.04929452762007713, 1.7355520725250244, -0.9926878213882446, -57.336299896240234],
    [-0.0009828645270317793, 0.9929683208465576, 1.7360912561416626, -97.10305786132812],
    [0.0, 0.0, 0.0, 1.0]
],
  "dcmmeta_reorient_transform": [
    [0.0, -1.0, 0.0, 103.0],
    [1.0, 0.0, 0.0, 0.0],
    [0.0, 0.0, 1.0, 0.0],
    [0.0, 0.0, 0.0, 1.0]
],
  "dcmmeta_shape": [104, 104, 60, 488],
  "dcmmeta_slice_dim": 2,
  "dcmmeta_version": 0.6,
  "global": {
    "const": {
      "AcquisitionMatrix": [104, 0, 0, 104],
      "AngioFlag": "N",
      "BitsAllocated": 16,
      "BitsStored": 16,
      "BodyPartExamined": "BRAIN",
      "Columns": 832,
      "EchoNumbers": 1,
      "EchoTime": 37.0,
      "EchoTrainLength": 104,
      "FlipAngle": 52.0,
      "HighBit": 15,
      "ImageOrientationPatient": [0.99969608924898, 0.02464726424249, -0.0004914322455, -0.0216388695788, 0.86777602383615, -0.496484170723],
      "ImagePositionPatient": [-812.42400582587, -771.10971633084, 366.97092243394],
      "ImageType": [
        "ORIGINAL",
        "PRIMARY",
        "M",
        "MB",
        "ND",
        "MOSAIC"
],
      "ImagedNucleus": "1H",
      "ImagingFrequency": 123.259001,
      "InPlanePhaseEncodingDirection": "COL",
      "MRAcquisitionType": "2D",
      "MagneticFieldStrength": 3.0,
      "Manufacturer": "SIEMENS",
      "ManufacturerModelName": "Prisma_fit",
      "Modality": "MR",
      "NumberOfAverages": 1.0,
      "NumberOfPhaseEncodingSteps": 104,
      "PercentPhaseFieldOfView": 100.0,
      "PercentSampling": 100.0,
      "PerformedProcedureStepStartTime": "090120.474000",
      "PhotometricInterpretation": "MONOCHROME2",
      "PixelBandwidth": 2290.0,
      "PixelRepresentation": 0,
      "PixelSpacing": [2.0, 2.0],
      "ProtocolName": "func_task-friends-s05e04a",
      "RepetitionTime": 1490.0,
      "Rows": 832,
      "SAR": 0.03705286842446,
      "SamplesPerPixel": 1,
      "ScanOptions": "FS",
      "ScanningSequence": "EP",
      "SequenceName": "epfid2d1_104",
      "SequenceVariant": [
        "SK",
        "SS"
],
      "SeriesDescription": "func_task-friends-s05e04a",
      "SeriesNumber": 9,
      "SeriesTime": "092251.656000",
      "SliceLocation": -54.592957096575,
      "SliceThickness": 2.0,
      "SmallestImagePixelValue": 0,
      "SoftwareVersions": "syngo MR E11",
      "SpacingBetweenSlices": 1.9999999776104,
      "SpecificCharacterSet": "ISO_IR 100",
      "StudyID": "1",
      "StudyTime": "090120.329000",
      "TransmitCoilName": "Body",
      "VariableFlipAngleFlag": "N",
      "WindowCenterWidthExplanation": "Algo1",
      "dBdt": 0.0},
    "slices": {}
  },
  "time": {
    "samples": {
      "AcquisitionNumber": [1, 2, 3, 4, 5, 6, 7, 8, 9, 10, 11, 12, 13, 14, 15, 16, 17, 18, 19, 20, 21, 22, 23, 24, 25, 26, 27, 28, 29, 30, 31, 32, 33, 34, 35, 36, 37, 38, 39, 40, 41, 42, 43, 44, 45, 46, 47, 48, 49, 50, 51, 52, 53, 54, 55, 56, 57, 58, 59, 60, 61, 62, 63, 64, 65, 66, 67, 68, 69, 70, 71, 72, 73, 74, 75, 76, 77, 78, 79, 80, 81, 82, 83, 84, 85, 86, 87, 88, 89, 90, 91, 92, 93, 94, 95, 96, 97, 98, 99, 100, 101, 102, 103, 104, 105, 106, 107, 108, 109, 110, 111, 112, 113, 114, 115, 116, 117, 118, 119, 120, 121, 122, 123, 124, 125, 126, 127, 128, 129, 130, 131, 132, 133, 134, 135, 136, 137, 138, 139, 140, 141, 142, 143, 144, 145, 146, 147, 148, 149, 150, 151, 152, 153, 154, 155, 156, 157, 158, 159, 160, 161, 162, 163, 164, 165, 166, 167, 168, 169, 170, 171, 172, 173, 174, 175, 176, 177, 178, 179, 180, 181, 182, 183, 184, 185, 186, 187, 188, 189, 190, 191, 192, 193, 194, 195, 196, 197, 198, 199, 200, 201, 202, 203, 204, 205, 206, 207, 208, 209, 210, 211, 212, 213, 214, 215, 216, 217, 218, 219, 220, 221, 222, 223, 224, 225, 226, 227, 228, 229, 230, 231, 232, 233, 234, 235, 236, 237, 238, 239, 240, 241, 242, 243, 244, 245, 246, 247, 248, 249, 250, 251, 252, 253, 254, 255, 256, 257, 258, 259, 260, 261, 262, 263, 264, 265, 266, 267, 268, 269, 270, 271, 272, 273, 274, 275, 276, 277, 278, 279, 280, 281, 282, 283, 284, 285, 286, 287, 288, 289, 290, 291, 292, 293, 294, 295, 296, 297, 298, 299, 300, 301, 302, 303, 304, 305, 306, 307, 308, 309, 310, 311, 312, 313, 314, 315, 316, 317, 318, 319, 320, 321, 322, 323, 324, 325, 326, 327, 328, 329, 330, 331, 332, 333, 334, 335, 336, 337, 338, 339, 340, 341, 342, 343, 344, 345, 346, 347, 348, 349, 350, 351, 352, 353, 354, 355, 356, 357, 358, 359, 360, 361, 362, 363, 364, 365, 366, 367, 368, 369, 370, 371, 372, 373, 374, 375, 376, 377, 378, 379, 380, 381, 382, 383, 384, 385, 386, 387, 388, 389, 390, 391, 392, 393, 394, 395, 396, 397, 398, 399, 400, 401, 402, 403, 404, 405, 406, 407, 408, 409, 410, 411, 412, 413, 414, 415, 416, 417, 418, 419, 420, 421, 422, 423, 424, 425, 426, 427, 428, 429, 430, 431, 432, 433, 434, 435, 436, 437, 438, 439, 440, 441, 442, 443, 444, 445, 446, 447, 448, 449, 450, 451, 452, 453, 454, 455, 456, 457, 458, 459, 460, 461, 462, 463, 464, 465, 466, 467, 468, 469, 470, 471, 472, 473, 474, 475, 476, 477, 478, 479, 480, 481, 482, 483, 484, 485, 486, 487, 488],
      "AcquisitionTime": ["092122.230000", "092123.720000", "092125.210000", "092126.700000", "092128.190000", "092129.680000", "092131.170000", "092132.660000", "092134.150000", "092135.640000", "092137.130000", "092138.620000", "092140.110000", "092141.600000", "092143.090000", "092144.580000", "092146.070000", "092147.560000", "092149.050000", "092150.540000", "092152.030000", "092153.520000", "092155.010000", "092156.500000", "092157.990000", "092159.480000", "092200.970000", "092202.460000", "092203.950000", "092205.440000", "092206.930000", "092208.420000", "092209.910000", "092211.400000", "092212.890000", "092214.380000", "092215.870000", "092217.360000", "092218.850000", "092220.340000", "092221.830000", "092223.320000", "092224.810000", "092226.300000", "092227.790000", "092229.280000", "092230.770000", "092232.260000", "092233.750000", "092235.240000", "092236.730000", "092238.220000", "092239.710000", "092241.200000", "092242.690000", "092244.180000", "092245.670000", "092247.160000", "092248.650000", "092250.140000", "092251.630000", "092253.120000", "092254.610000", "092256.100000", "092257.590000", "092259.080000", "092300.570000", "092302.060000", "092303.550000", "092305.040000", "092306.530000", "092308.020000", "092309.510000", "092311.000000", "092312.490000", "092313.980000", "092315.470000", "092316.960000", "092318.450000", "092319.940000", "092321.430000", "092322.920000", "092324.410000", "092325.900000", "092327.390000", "092328.880000", "092330.370000", "092331.860000", "092333.350000", "092334.840000", "092336.330000", "092337.820000", "092339.310000", "092340.800000", "092342.290000", "092343.780000", "092345.270000", "092346.760000", "092348.250000", "092349.740000", "092351.230000", "092352.720000", "092354.210000", "092355.700000", "092357.190000", "092358.680000", "092400.170000", "092401.660000", "092403.150000", "092404.640000", "092406.130000", "092407.620000", "092409.110000", "092410.600000", "092412.090000", "092413.580000", "092415.070000", "092416.560000", "092418.050000", "092419.540000", "092421.030000", "092422.520000", "092424.010000", "092425.500000", "092426.990000", "092428.480000", "092429.970000", "092431.460000", "092432.950000", "092434.440000", "092435.930000", "092437.420000", "092438.910000", "092440.400000", "092441.890000", "092443.380000", "092444.870000", "092446.360000", "092447.850000", "092449.340000", "092450.830000", "092452.320000", "092453.810000", "092455.300000", "092456.790000", "092458.280000", "092459.770000", "092501.260000", "092502.750000", "092504.240000", "092505.730000", "092507.220000", "092508.710000", "092510.200000", "092511.690000", "092513.180000", "092514.670000", "092516.160000", "092517.650000", "092519.140000", "092520.630000", "092522.120000", "092523.610000", "092525.100000", "092526.590000", "092528.080000", "092529.570000", "092531.060000", "092532.550000", "092534.040000", "092535.530000", "092537.020000", "092538.510000", "092540.000000", "092541.490000", "092542.980000", "092544.470000", "092545.960000", "092547.450000", "092548.940000", "092550.430000", "092551.920000", "092553.410000", "092554.900000", "092556.390000", "092557.880000", "092559.370000", "092600.860000", "092602.350000", "092603.840000", "092605.330000", "092606.820000", "092608.310000", "092609.800000", "092611.290000", "092612.780000", "092614.270000", "092615.760000", "092617.250000", "092618.740000", "092620.230000", "092621.720000", "092623.210000", "092624.700000", "092626.190000", "092627.680000", "092629.170000", "092630.660000", "092632.150000", "092633.640000", "092635.130000", "092636.620000", "092638.110000", "092639.600000", "092641.090000", "092642.580000", "092644.070000", "092645.560000", "092647.050000", "092648.540000", "092650.030000", "092651.520000", "092653.010000", "092654.500000", "092655.990000", "092657.480000", "092658.970000", "092700.460000", "092701.950000", "092703.440000", "092704.930000", "092706.420000", "092707.910000", "092709.400000", "092710.890000", "092712.380000", "092713.870000", "092715.360000", "092716.850000", "092718.340000", "092719.830000", "092721.320000", "092722.810000", "092724.300000", "092725.790000", "092727.280000", "092728.770000", "092730.260000", "092731.750000", "092733.240000", "092734.730000", "092736.220000", "092737.710000", "092739.200000", "092740.690000", "092742.180000", "092743.670000", "092745.160000", "092746.650000", "092748.140000", "092749.630000", "092751.120000", "092752.610000", "092754.100000", "092755.590000", "092757.080000", "092758.570000", "092800.060000", "092801.550000", "092803.040000", "092804.530000", "092806.020000", "092807.510000", "092809.000000", "092810.490000", "092811.980000", "092813.470000", "092814.960000", "092816.450000", "092817.940000", "092819.430000", "092820.920000", "092822.410000", "092823.900000", "092825.390000", "092826.880000", "092828.370000", "092829.860000", "092831.350000", "092832.840000", "092834.330000", "092835.820000", "092837.310000", "092838.800000", "092840.290000", "092841.780000", "092843.270000", "092844.760000", "092846.250000", "092847.740000", "092849.230000", "092850.720000", "092852.210000", "092853.700000", "092855.190000", "092856.680000", "092858.170000", "092859.660000", "092901.150000", "092902.640000", "092904.130000", "092905.620000", "092907.110000", "092908.600000", "092910.090000", "092911.580000", "092913.070000", "092914.560000", "092916.050000", "092917.540000", "092919.030000", "092920.520000", "092922.010000", "092923.500000", "092924.990000", "092926.480000", "092927.970000", "092929.460000", "092930.950000", "092932.440000", "092933.930000", "092935.420000", "092936.910000", "092938.400000", "092939.890000", "092941.380000", "092942.870000", "092944.360000", "092945.850000", "092947.340000", "092948.830000", "092950.320000", "092951.810000", "092953.300000", "092954.790000", "092956.280000", "092957.770000", "092959.260000", "093000.750000", "093002.240000", "093003.730000", "093005.220000", "093006.710000", "093008.200000", "093009.690000", "093011.180000", "093012.670000", "093014.160000", "093015.650000", "093017.140000", "093018.630000", "093020.120000", "093021.610000", "093023.100000", "093024.590000", "093026.080000", "093027.570000", "093029.060000", "093030.550000", "093032.040000", "093033.530000", "093035.020000", "093036.510000", "093038.000000", "093039.490000", "093040.980000", "093042.470000", "093043.960000", "093045.450000", "093046.940000", "093048.430000", "093049.920000", "093051.410000", "093052.900000", "093054.390000", "093055.880000", "093057.370000", "093058.860000", "093100.350000", "093101.840000", "093103.330000", "093104.820000", "093106.310000", "093107.800000", "093109.290000", "093110.780000", "093112.270000", "093113.760000", "093115.250000", "093116.740000", "093118.230000", "093119.720000", "093121.210000", "093122.700000", "093124.190000", "093125.680000", "093127.170000", "093128.660000", "093130.150000", "093131.640000", "093133.130000", "093134.620000", "093136.110000", "093137.600000", "093139.090000", "093140.580000", "093142.070000", "093143.560000", "093145.050000", "093146.540000", "093148.030000", "093149.520000", "093151.010000", "093152.500000", "093153.990000", "093155.480000", "093156.970000", "093158.460000", "093159.950000", "093201.440000", "093202.930000", "093204.420000", "093205.910000", "093207.400000", "093208.890000", "093210.380000", "093211.870000", "093213.360000", "093214.850000", "093216.340000", "093217.830000", "093219.320000", "093220.810000", "093222.300000", "093223.790000", "093225.280000", "093226.770000", "093228.260000", "093229.750000", "093231.240000", "093232.730000", "093234.220000", "093235.710000", "093237.200000", "093238.690000", "093240.180000", "093241.670000", "093243.160000", "093244.650000", "093246.140000", "093247.630000", "093249.120000", "093250.610000", "093252.100000", "093253.590000", "093255.080000", "093256.570000", "093258.060000", "093259.550000", "093301.040000", "093302.530000", "093304.020000", "093305.510000", "093307.000000", "093308.490000", "093309.980000", "093311.470000", "093312.960000", "093314.450000", "093315.940000", "093317.430000", "093318.920000", "093320.410000", "093321.900000", "093323.390000", "093324.880000", "093326.370000", "093327.860000"],
      "ContentTime": ["092251.658000", "092251.661000", "092251.664000", "092251.667000", "092251.670000", "092251.673000", "092251.676000", "092251.678000", "092251.681000", "092251.684000", "092251.691000", "092251.694000", "092251.697000", "092251.699000", "092251.702000", "092251.705000", "092251.708000", "092251.711000", "092251.713000", "092251.716000", "092251.719000", "092251.722000", "092251.724000", "092251.727000", "092251.730000", "092251.733000", "092251.736000", "092251.738000", "092251.741000", "092251.744000", "092251.747000", "092251.749000", "092251.752000", "092251.755000", "092251.758000", "092311.622000", "092311.625000", "092311.628000", "092311.630000", "092311.633000", "092311.636000", "092311.639000", "092311.641000", "092311.644000", "092311.647000", "092311.650000", "092311.653000", "092311.655000", "092311.658000", "092311.661000", "092311.664000", "092311.666000", "092311.669000", "092311.672000", "092311.675000", "092331.622000", "092331.625000", "092331.627000", "092331.630000", "092331.633000", "092331.636000", "092331.638000", "092331.641000", "092331.644000", "092331.647000", "092331.650000", "092331.652000", "092331.655000", "092331.658000", "092331.661000", "092331.664000", "092331.666000", "092331.669000", "092331.672000", "092331.675000", "092351.623000", "092351.626000", "092351.629000", "092351.632000", "092351.635000", "092351.638000", "092351.641000", "092351.644000", "092351.647000", "092351.650000", "092351.652000", "092351.667000", "092351.670000", "092351.673000", "092351.676000", "092351.678000", "092351.681000", "092351.684000", "092351.687000", "092351.690000", "092431.622000", "092431.625000", "092431.627000", "092431.630000", "092431.633000", "092431.636000", "092431.639000", "092431.642000", "092431.645000", "092431.648000", "092431.651000", "092431.654000", "092431.656000", "092431.659000", "092431.662000", "092431.665000", "092431.668000", "092431.670000", "092431.673000", "092431.676000", "092431.679000", "092431.682000", "092431.684000", "092431.687000", "092431.690000", "092431.693000", "092431.696000", "092431.698000", "092431.701000", "092431.704000", "092431.707000", "092511.622000", "092511.625000", "092511.628000", "092511.646000", "092511.648000", "092511.651000", "092511.654000", "092511.657000", "092511.660000", "092511.662000", "092511.665000", "092511.668000", "092511.671000", "092511.674000", "092511.676000", "092511.679000", "092511.682000", "092511.685000", "092511.688000", "092511.691000", "092511.693000", "092511.696000", "092511.699000", "092511.702000", "092511.704000", "092511.707000", "092511.710000", "092551.622000", "092551.625000", "092551.628000", "092551.630000", "092551.633000", "092551.636000", "092551.639000", "092551.642000", "092551.644000", "092551.647000", "092551.650000", "092551.653000", "092551.656000", "092551.659000", "092551.661000", "092551.664000", "092551.667000", "092551.670000", "092551.672000", "092551.675000", "092551.678000", "092551.681000", "092551.684000", "092551.686000", "092551.689000", "092551.692000", "092551.695000", "092631.622000", "092631.625000", "092631.628000", "092631.630000", "092631.633000", "092631.636000", "092631.639000", "092631.641000", "092631.644000", "092631.647000", "092631.650000", "092631.653000", "092631.655000", "092631.658000", "092631.661000", "092631.664000", "092631.667000", "092631.669000", "092631.672000", "092631.675000", "092631.678000", "092631.681000", "092631.683000", "092631.686000", "092631.689000", "092631.692000", "092631.694000", "092711.622000", "092711.625000", "092711.628000", "092711.631000", "092711.633000", "092711.637000", "092711.640000", "092711.646000", "092711.649000", "092711.652000", "092711.655000", "092711.657000", "092711.660000", "092711.663000", "092711.666000", "092711.669000", "092711.672000", "092711.674000", "092711.677000", "092711.680000", "092711.683000", "092711.686000", "092711.688000", "092711.691000", "092711.694000", "092711.697000", "092751.622000", "092751.625000", "092751.628000", "092751.630000", "092751.641000", "092751.644000", "092751.646000", "092751.649000", "092751.652000", "092751.655000", "092751.658000", "092751.660000", "092751.663000", "092751.666000", "092751.669000", "092751.671000", "092751.674000", "092751.677000", "092751.680000", "092751.683000", "092751.685000", "092751.688000", "092751.691000", "092751.694000", "092751.697000", "092751.699000", "092751.702000", "092831.623000", "092831.626000", "092831.629000", "092831.631000", "092831.634000", "092831.637000", "092831.640000", "092831.643000", "092831.645000", "092831.648000", "092831.651000", "092831.654000", "092831.656000", "092831.659000", "092831.662000", "092831.665000", "092831.668000", "092831.671000", "092831.674000", "092831.676000", "092831.679000", "092831.682000", "092831.685000", "092831.687000", "092831.690000", "092831.693000", "092831.696000", "092911.622000", "092911.625000", "092911.628000", "092911.630000", "092911.633000", "092911.636000", "092911.639000", "092911.642000", "092911.644000", "092911.647000", "092911.650000", "092911.653000", "092911.656000", "092911.674000", "092911.677000", "092911.680000", "092911.683000", "092911.685000", "092911.688000", "092911.691000", "092911.694000", "092911.697000", "092911.699000", "092911.702000", "092911.705000", "092911.708000", "092911.711000", "092951.622000", "092951.625000", "092951.628000", "092951.630000", "092951.633000", "092951.636000", "092951.639000", "092951.642000", "092951.645000", "092951.648000", "092951.650000", "092951.653000", "092951.656000", "092951.659000", "092951.662000", "092951.664000", "092951.667000", "092951.670000", "092951.673000", "092951.676000", "092951.678000", "092951.681000", "092951.684000", "092951.687000", "092951.690000", "092951.692000", "092951.695000", "093011.622000", "093011.625000", "093011.628000", "093011.630000", "093011.633000", "093011.636000", "093011.639000", "093011.642000", "093011.644000", "093011.647000", "093011.650000", "093011.653000", "093011.656000", "093051.623000", "093051.626000", "093051.629000", "093051.631000", "093051.634000", "093051.637000", "093051.640000", "093051.643000", "093051.645000", "093051.648000", "093051.651000", "093051.654000", "093051.657000", "093051.659000", "093051.662000", "093051.665000", "093051.668000", "093051.671000", "093051.673000", "093051.676000", "093051.679000", "093051.682000", "093051.685000", "093051.687000", "093051.690000", "093051.693000", "093051.696000", "093131.622000", "093131.625000", "093131.628000", "093131.630000", "093131.633000", "093131.636000", "093131.639000", "093131.642000", "093131.644000", "093131.647000", "093131.650000", "093131.653000", "093131.656000", "093131.659000", "093131.661000", "093131.664000", "093131.667000", "093131.670000", "093131.673000", "093131.675000", "093131.678000", "093131.681000", "093131.684000", "093131.687000", "093131.690000", "093131.692000", "093131.695000", "093211.622000", "093211.625000", "093211.628000", "093211.630000", "093211.633000", "093211.636000", "093211.639000", "093211.642000", "093211.644000", "093211.647000", "093211.650000", "093211.653000", "093211.656000", "093211.659000", "093211.661000", "093211.664000", "093211.667000", "093211.670000", "093211.672000", "093211.675000", "093211.678000", "093211.681000", "093211.684000", "093211.686000", "093211.689000", "093211.692000", "093211.695000", "093251.622000", "093251.625000", "093251.628000", "093251.630000", "093251.633000", "093251.636000", "093251.639000", "093251.642000", "093251.644000", "093251.647000", "093251.650000", "093251.653000", "093251.656000", "093251.658000", "093251.661000", "093251.664000", "093251.667000", "093251.670000", "093251.672000", "093251.675000", "093251.678000", "093251.681000", "093251.684000", "093251.687000", "093251.689000", "093251.692000", "093251.695000", "093330.159000", "093330.163000", "093330.165000", "093330.168000", "093330.171000", "093330.174000", "093330.177000", "093330.180000", "093330.182000", "093330.185000", "093330.188000", "093330.191000", "093330.194000", "093330.197000", "093330.200000", "093330.203000", "093330.205000", "093330.208000", "093330.211000", "093330.214000", "093330.217000", "093330.230000", "093330.233000", "093330.236000", "093330.239000", "093330.242000"],
