{
  "AcquisitionMatrixPE": 104,
  "AcquisitionNumber": 1,
  "AcquisitionTime": "13:51:13.077500",
  "BandwidthPerPixelPhaseEncode": 17.17,
  "BaseResolution": 104,
  "BodyPartExamined": "BRAIN",
  "CoilString": "HC1-7;NC1_2",
  "ConsistencyInfo": "N4_VE11C_LATEST_20160120",
  "ConversionSoftware": "dcm2niix",
  "ConversionSoftwareVersion": "v1.0.20190720  (JP2:OpenJPEG) GCC7.3.0",
  "DerivedVendorReportedEchoSpacing": 0.000560011,
  "DeviceSerialNumber": "167006",
  "DwellTime": 2.1e-06,
  "EchoTime": 0.037,
  "EchoTrainLength": 104,
  "EffectiveEchoSpacing": 0.000560011,
  "FlipAngle": 52,
  "ImageComments": "Unaliased_MB4_PE3_LB",
  "ImageOrientationPatientDICOM": [0.998815, -0.0478861, -0.00867942, 0.0415135, 0.931426, -0.361555],
  "ImageType": [
    "ORIGINAL",
    "PRIMARY",
    "M",
    "MB",
    "ND",
    "MOSAIC"
],
  "ImagingFrequency": 123.259,
  "InPlanePhaseEncodingDirectionDICOM": "COL",
  "InstitutionAddress": "Chemin_Queen-Mary_4565_Montreal_District_CA_H3W_1W5",
  "InstitutionName": "IUGM",
  "InstitutionalDepartmentName": "Department",
  "MRAcquisitionType": "2D",
  "MagneticFieldStrength": 3,
  "Manufacturer": "Siemens",
  "ManufacturersModelName": "Prisma_fit",
  "Modality": "MR",
  "MultibandAccelerationFactor": 4,
  "PartialFourier": 1,
  "PatientPosition": "HFS",
  "PercentPhaseFOV": 100,
  "PhaseEncodingDirection": "j",
  "PhaseEncodingSteps": 104,
  "PhaseResolution": 1,
  "PixelBandwidth": 2290,
  "ProcedureStepDescription": "video_friends",
  "ProtocolName": "func_task-friends-s01e11a",
  "PulseSequenceDetails": "%CustomerSeq%_cmrr_mbep2d_bold",
  "ReceiveCoilActiveElements": "HC1-7;NC1,2",
  "ReceiveCoilName": "HeadNeck_64",
  "ReconMatrixPE": 104,
  "RepetitionTime": 1.49,
  "SAR": 0.0271719,
  "ScanOptions": "FS",
  "ScanningSequence": "EP",
  "SequenceName": "epfid2d1_104",
  "SequenceVariant": "SK_SS",
  "SeriesDescription": "func_task-friends-s01e11a",
  "SeriesNumber": 12,
  "ShimSetting": [636, -7253, -8877, 601, 31, -267, -117, -6],
  "SliceThickness": 2,
  "SliceTiming": [0, 0.7825, 0.0975, 0.88, 0.195, 0.98, 0.2925, 1.0775, 0.3925, 1.175, 0.49, 1.2725, 0.5875, 1.37, 0.685, 0, 0.7825, 0.0975, 0.88, 0.195, 0.98, 0.2925, 1.0775, 0.3925, 1.175, 0.49, 1.2725, 0.5875, 1.37, 0.685, 0, 0.7825, 0.0975, 0.88, 0.195, 0.98, 0.2925, 1.0775, 0.3925, 1.175, 0.49, 1.2725, 0.5875, 1.37, 0.685, 0, 0.7825, 0.0975, 0.88, 0.195, 0.98, 0.2925, 1.0775, 0.3925, 1.175, 0.49, 1.2725, 0.5875, 1.37, 0.685],
  "SoftwareVersions": "syngo_MR_E11",
  "SpacingBetweenSlices": 2,
  "StationName": "MRC35049",
  "TaskName": "friends",
  "TotalReadoutTime": 0.0576811,
  "TxRefAmp": 221.844,
  "WipMemBlock": "83fa634b-52ab-421f-9981-501ed866c8ed||Sequence: R016 ve11c/master r/e634e98; Dec 19 2017 11:00:25 by eja",
  "dcmmeta_affine": [
    [-1.99763023853302, 0.0830269604921341, -0.050795428454875946, 98.60503387451172],
    [0.09577224403619766, 1.8628520965576172, -0.7215328216552734, -77.10309600830078],
    [-0.017358848825097084, 0.7231102585792542, 1.8646206855773926, -80.33577728271484],
    [0.0, 0.0, 0.0, 1.0]
],
  "dcmmeta_reorient_transform": [
    [0.0, -1.0, 0.0, 103.0],
    [1.0, 0.0, 0.0, 0.0],
    [0.0, 0.0, 1.0, 0.0],
    [0.0, 0.0, 0.0, 1.0]
],
  "dcmmeta_shape": [104, 104, 60, 477],
  "dcmmeta_slice_dim": 2,
  "dcmmeta_version": 0.6,
  "global": {
    "const": {
      "AcquisitionMatrix": [104, 0, 0, 104],
      "AngioFlag": "N",
      "BitsAllocated": 16,
      "BitsStored": 16,
      "BodyPartExamined": "BRAIN",
      "Columns": 832,
      "EchoNumbers": 1,
      "EchoTime": 37.0,
      "EchoTrainLength": 104,
      "FlipAngle": 52.0,
      "HighBit": 15,
      "ImageOrientationPatient": [0.99881509153514, -0.0478861203397, -0.0086794239711, 0.04151348036032, 0.93142607018839, -0.3615551226601],
      "ImagePositionPatient": [-864.51600924149, -757.98775894981, 263.67532529233],
      "ImageType": [
        "ORIGINAL",
        "PRIMARY",
        "M",
        "MB",
        "ND",
        "MOSAIC"
],
      "ImagedNucleus": "1H",
      "ImagingFrequency": 123.259191,
      "InPlanePhaseEncodingDirection": "COL",
      "MRAcquisitionType": "2D",
      "MagneticFieldStrength": 3.0,
      "Manufacturer": "SIEMENS",
      "ManufacturerModelName": "Prisma_fit",
      "Modality": "MR",
      "NumberOfAverages": 1.0,
      "NumberOfPhaseEncodingSteps": 104,
      "PercentPhaseFieldOfView": 100.0,
      "PercentSampling": 100.0,
      "PerformedProcedureStepStartTime": "130812.820000",
      "PhotometricInterpretation": "MONOCHROME2",
      "PixelBandwidth": 2290.0,
      "PixelRepresentation": 0,
      "PixelSpacing": [2.0, 2.0],
      "ProtocolName": "func_task-friends-s01e11a",
      "RepetitionTime": 1490.0,
      "Rows": 832,
      "SAR": 0.02717189276553,
      "SamplesPerPixel": 1,
      "ScanOptions": "FS",
      "ScanningSequence": "EP",
      "SequenceName": "epfid2d1_104",
      "SequenceVariant": [
        "SK",
        "SS"
],
      "SeriesDescription": "func_task-friends-s01e11a",
      "SeriesNumber": 12,
      "SeriesTime": "135241.086000",
      "SliceLocation": -49.586014287111,
      "SliceThickness": 2.0,
      "SmallestImagePixelValue": 0,
      "SoftwareVersions": "syngo MR E11",
      "SpacingBetweenSlices": 1.9999999875947,
      "SpecificCharacterSet": "ISO_IR 100",
      "StudyID": "1",
      "StudyTime": "130812.669000",
      "TransmitCoilName": "Body",
      "VariableFlipAngleFlag": "N",
      "WindowCenterWidthExplanation": "Algo1",
      "dBdt": 0.0},
    "slices": {}
  },
  "time": {
    "samples": {
      "AcquisitionNumber": [1, 2, 3, 4, 5, 6, 7, 8, 9, 10, 11, 12, 13, 14, 15, 16, 17, 18, 19, 20, 21, 22, 23, 24, 25, 26, 27, 28, 29, 30, 31, 32, 33, 34, 35, 36, 37, 38, 39, 40, 41, 42, 43, 44, 45, 46, 47, 48, 49, 50, 51, 52, 53, 54, 55, 56, 57, 58, 59, 60, 61, 62, 63, 64, 65, 66, 67, 68, 69, 70, 71, 72, 73, 74, 75, 76, 77, 78, 79, 80, 81, 82, 83, 84, 85, 86, 87, 88, 89, 90, 91, 92, 93, 94, 95, 96, 97, 98, 99, 100, 101, 102, 103, 104, 105, 106, 107, 108, 109, 110, 111, 112, 113, 114, 115, 116, 117, 118, 119, 120, 121, 122, 123, 124, 125, 126, 127, 128, 129, 130, 131, 132, 133, 134, 135, 136, 137, 138, 139, 140, 141, 142, 143, 144, 145, 146, 147, 148, 149, 150, 151, 152, 153, 154, 155, 156, 157, 158, 159, 160, 161, 162, 163, 164, 165, 166, 167, 168, 169, 170, 171, 172, 173, 174, 175, 176, 177, 178, 179, 180, 181, 182, 183, 184, 185, 186, 187, 188, 189, 190, 191, 192, 193, 194, 195, 196, 197, 198, 199, 200, 201, 202, 203, 204, 205, 206, 207, 208, 209, 210, 211, 212, 213, 214, 215, 216, 217, 218, 219, 220, 221, 222, 223, 224, 225, 226, 227, 228, 229, 230, 231, 232, 233, 234, 235, 236, 237, 238, 239, 240, 241, 242, 243, 244, 245, 246, 247, 248, 249, 250, 251, 252, 253, 254, 255, 256, 257, 258, 259, 260, 261, 262, 263, 264, 265, 266, 267, 268, 269, 270, 271, 272, 273, 274, 275, 276, 277, 278, 279, 280, 281, 282, 283, 284, 285, 286, 287, 288, 289, 290, 291, 292, 293, 294, 295, 296, 297, 298, 299, 300, 301, 302, 303, 304, 305, 306, 307, 308, 309, 310, 311, 312, 313, 314, 315, 316, 317, 318, 319, 320, 321, 322, 323, 324, 325, 326, 327, 328, 329, 330, 331, 332, 333, 334, 335, 336, 337, 338, 339, 340, 341, 342, 343, 344, 345, 346, 347, 348, 349, 350, 351, 352, 353, 354, 355, 356, 357, 358, 359, 360, 361, 362, 363, 364, 365, 366, 367, 368, 369, 370, 371, 372, 373, 374, 375, 376, 377, 378, 379, 380, 381, 382, 383, 384, 385, 386, 387, 388, 389, 390, 391, 392, 393, 394, 395, 396, 397, 398, 399, 400, 401, 402, 403, 404, 405, 406, 407, 408, 409, 410, 411, 412, 413, 414, 415, 416, 417, 418, 419, 420, 421, 422, 423, 424, 425, 426, 427, 428, 429, 430, 431, 432, 433, 434, 435, 436, 437, 438, 439, 440, 441, 442, 443, 444, 445, 446, 447, 448, 449, 450, 451, 452, 453, 454, 455, 456, 457, 458, 459, 460, 461, 462, 463, 464, 465, 466, 467, 468, 469, 470, 471, 472, 473, 474, 475, 476, 477],
      "AcquisitionTime": ["135113.077500", "135114.567500", "135116.057500", "135117.547500", "135119.037500", "135120.527500", "135122.017500", "135123.507500", "135124.997500", "135126.487500", "135127.977500", "135129.467500", "135130.957500", "135132.447500", "135133.937500", "135135.427500", "135136.917500", "135138.407500", "135139.897500", "135141.387500", "135142.877500", "135144.367500", "135145.857500", "135147.347500", "135148.837500", "135150.327500", "135151.817500", "135153.307500", "135154.797500", "135156.287500", "135157.777500", "135159.267500", "135200.757500", "135202.247500", "135203.737500", "135205.227500", "135206.717500", "135208.207500", "135209.697500", "135211.187500", "135212.677500", "135214.167500", "135215.657500", "135217.147500", "135218.637500", "135220.127500", "135221.617500", "135223.107500", "135224.597500", "135226.087500", "135227.577500", "135229.067500", "135230.557500", "135232.047500", "135233.537500", "135235.027500", "135236.517500", "135238.007500", "135239.497500", "135240.987500", "135242.477500", "135243.967500", "135245.457500", "135246.947500", "135248.437500", "135249.927500", "135251.417500", "135252.907500", "135254.397500", "135255.887500", "135257.377500", "135258.867500", "135300.357500", "135301.847500", "135303.337500", "135304.827500", "135306.317500", "135307.807500", "135309.297500", "135310.787500", "135312.277500", "135313.767500", "135315.257500", "135316.747500", "135318.237500", "135319.727500", "135321.217500", "135322.707500", "135324.197500", "135325.687500", "135327.177500", "135328.667500", "135330.157500", "135331.647500", "135333.137500", "135334.627500", "135336.117500", "135337.607500", "135339.097500", "135340.587500", "135342.077500", "135343.567500", "135345.057500", "135346.547500", "135348.037500", "135349.527500", "135351.017500", "135352.507500", "135353.997500", "135355.487500", "135356.977500", "135358.467500", "135359.957500", "135401.447500", "135402.937500", "135404.427500", "135405.917500", "135407.407500", "135408.897500", "135410.387500", "135411.877500", "135413.367500", "135414.857500", "135416.347500", "135417.837500", "135419.327500", "135420.817500", "135422.307500", "135423.797500", "135425.287500", "135426.777500", "135428.267500", "135429.757500", "135431.247500", "135432.737500", "135434.227500", "135435.717500", "135437.207500", "135438.697500", "135440.187500", "135441.677500", "135443.167500", "135444.657500", "135446.147500", "135447.637500", "135449.127500", "135450.617500", "135452.107500", "135453.597500", "135455.087500", "135456.577500", "135458.067500", "135459.557500", "135501.047500", "135502.537500", "135504.027500", "135505.517500", "135507.007500", "135508.497500", "135509.987500", "135511.477500", "135512.967500", "135514.457500", "135515.947500", "135517.437500", "135518.927500", "135520.417500", "135521.907500", "135523.397500", "135524.887500", "135526.377500", "135527.867500", "135529.357500", "135530.847500", "135532.337500", "135533.827500", "135535.317500", "135536.807500", "135538.297500", "135539.787500", "135541.277500", "135542.767500", "135544.257500", "135545.747500", "135547.237500", "135548.727500", "135550.217500", "135551.707500", "135553.197500", "135554.687500", "135556.177500", "135557.667500", "135559.157500", "135600.647500", "135602.137500", "135603.627500", "135605.117500", "135606.607500", "135608.097500", "135609.587500", "135611.077500", "135612.567500", "135614.057500", "135615.547500", "135617.037500", "135618.527500", "135620.017500", "135621.507500", "135622.997500", "135624.487500", "135625.977500", "135627.467500", "135628.957500", "135630.447500", "135631.937500", "135633.427500", "135634.917500", "135636.407500", "135637.897500", "135639.387500", "135640.877500", "135642.367500", "135643.857500", "135645.347500", "135646.837500", "135648.327500", "135649.817500", "135651.307500", "135652.797500", "135654.287500", "135655.777500", "135657.267500", "135658.757500", "135700.247500", "135701.737500", "135703.227500", "135704.717500", "135706.207500", "135707.697500", "135709.187500", "135710.677500", "135712.167500", "135713.657500", "135715.147500", "135716.637500", "135718.127500", "135719.617500", "135721.107500", "135722.597500", "135724.087500", "135725.577500", "135727.067500", "135728.557500", "135730.047500", "135731.537500", "135733.027500", "135734.517500", "135736.007500", "135737.497500", "135738.987500", "135740.477500", "135741.967500", "135743.457500", "135744.947500", "135746.437500", "135747.927500", "135749.417500", "135750.907500", "135752.397500", "135753.887500", "135755.377500", "135756.867500", "135758.357500", "135759.847500", "135801.337500", "135802.827500", "135804.317500", "135805.807500", "135807.297500", "135808.787500", "135810.277500", "135811.767500", "135813.257500", "135814.747500", "135816.237500", "135817.727500", "135819.217500", "135820.707500", "135822.197500", "135823.687500", "135825.177500", "135826.667500", "135828.157500", "135829.647500", "135831.137500", "135832.627500", "135834.117500", "135835.607500", "135837.097500", "135838.587500", "135840.077500", "135841.567500", "135843.057500", "135844.547500", "135846.037500", "135847.527500", "135849.017500", "135850.507500", "135851.997500", "135853.487500", "135854.977500", "135856.467500", "135857.957500", "135859.447500", "135900.937500", "135902.427500", "135903.917500", "135905.407500", "135906.897500", "135908.387500", "135909.877500", "135911.367500", "135912.857500", "135914.347500", "135915.837500", "135917.327500", "135918.817500", "135920.307500", "135921.797500", "135923.287500", "135924.777500", "135926.267500", "135927.757500", "135929.247500", "135930.737500", "135932.227500", "135933.717500", "135935.207500", "135936.697500", "135938.187500", "135939.677500", "135941.167500", "135942.657500", "135944.147500", "135945.637500", "135947.127500", "135948.617500", "135950.107500", "135951.597500", "135953.087500", "135954.577500", "135956.067500", "135957.557500", "135959.047500", "140000.537500", "140002.027500", "140003.517500", "140005.007500", "140006.497500", "140007.987500", "140009.477500", "140010.967500", "140012.457500", "140013.947500", "140015.437500", "140016.927500", "140018.417500", "140019.907500", "140021.397500", "140022.887500", "140024.377500", "140025.867500", "140027.357500", "140028.847500", "140030.337500", "140031.827500", "140033.317500", "140034.807500", "140036.297500", "140037.787500", "140039.277500", "140040.767500", "140042.257500", "140043.747500", "140045.237500", "140046.727500", "140048.217500", "140049.707500", "140051.197500", "140052.687500", "140054.177500", "140055.667500", "140057.157500", "140058.647500", "140100.137500", "140101.627500", "140103.117500", "140104.607500", "140106.097500", "140107.587500", "140109.077500", "140110.567500", "140112.057500", "140113.547500", "140115.037500", "140116.527500", "140118.017500", "140119.507500", "140120.997500", "140122.487500", "140123.977500", "140125.467500", "140126.957500", "140128.447500", "140129.937500", "140131.427500", "140132.917500", "140134.407500", "140135.897500", "140137.387500", "140138.877500", "140140.367500", "140141.857500", "140143.347500", "140144.837500", "140146.327500", "140147.817500", "140149.307500", "140150.797500", "140152.287500", "140153.777500", "140155.267500", "140156.757500", "140158.247500", "140159.737500", "140201.227500", "140202.717500", "140204.207500", "140205.697500", "140207.187500", "140208.677500", "140210.167500", "140211.657500", "140213.147500", "140214.637500", "140216.127500", "140217.617500", "140219.107500", "140220.597500", "140222.087500", "140223.577500", "140225.067500", "140226.557500", "140228.047500", "140229.537500", "140231.027500", "140232.517500", "140234.007500", "140235.497500", "140236.987500", "140238.477500", "140239.967500", "140241.457500", "140242.947500", "140244.437500", "140245.927500", "140247.417500", "140248.907500", "140250.397500", "140251.887500", "140253.377500", "140254.867500", "140256.357500", "140257.847500", "140259.337500", "140300.827500", "140302.317500"],
      "ContentTime": ["135241.088000", "135241.092000", "135241.095000", "135241.107000", "135241.110000", "135241.113000", "135241.116000", "135241.118000", "135241.121000", "135241.124000", "135241.127000", "135241.130000", "135241.133000", "135241.136000", "135241.139000", "135241.151000", "135241.154000", "135241.157000", "135241.160000", "135241.163000", "135241.166000", "135241.174000", "135241.178000", "135241.181000", "135241.184000", "135241.187000", "135241.190000", "135241.193000", "135241.196000", "135241.199000", "135241.202000", "135241.205000", "135241.208000", "135241.211000", "135241.214000", "135241.217000", "135301.055000", "135301.058000", "135301.061000", "135301.064000", "135301.067000", "135301.070000", "135301.073000", "135301.075000", "135301.078000", "135301.081000", "135301.084000", "135301.087000", "135301.090000", "135301.093000", "135301.096000", "135301.099000", "135301.102000", "135301.105000", "135301.108000", "135301.110000", "135301.113000", "135321.055000", "135321.058000", "135321.061000", "135321.064000", "135321.067000", "135321.070000", "135321.073000", "135321.076000", "135321.079000", "135321.082000", "135321.085000", "135321.087000", "135321.090000", "135321.093000", "135321.096000", "135321.099000", "135321.102000", "135321.105000", "135321.108000", "135321.111000", "135341.054000", "135341.057000", "135341.060000", "135341.063000", "135341.066000", "135341.069000", "135341.072000", "135341.075000", "135341.078000", "135341.081000", "135341.084000", "135341.086000", "135341.089000", "135341.092000", "135341.095000", "135341.098000", "135341.101000", "135341.104000", "135341.107000", "135341.110000", "135421.055000", "135421.058000", "135421.061000", "135421.064000", "135421.067000", "135421.070000", "135421.073000", "135421.076000", "135421.079000", "135421.082000", "135421.085000", "135421.088000", "135421.091000", "135421.094000", "135421.097000", "135421.100000", "135421.102000", "135421.105000", "135421.108000", "135421.111000", "135421.114000", "135421.117000", "135421.121000", "135421.124000", "135421.127000", "135421.130000", "135421.134000", "135421.137000", "135501.055000", "135501.058000", "135501.061000", "135501.064000", "135501.067000", "135501.070000", "135501.073000", "135501.076000", "135501.079000", "135501.082000", "135501.085000", "135501.088000", "135501.091000", "135501.094000", "135501.097000", "135501.100000", "135501.103000", "135501.106000", "135501.109000", "135501.112000", "135501.115000", "135501.118000", "135501.120000", "135501.123000", "135501.126000", "135501.129000", "135501.132000", "135541.055000", "135541.058000", "135541.061000", "135541.064000", "135541.074000", "135541.077000", "135541.080000", "135541.083000", "135541.086000", "135541.089000", "135541.092000", "135541.095000", "135541.098000", "135541.101000", "135541.104000", "135541.107000", "135541.109000", "135541.127000", "135541.130000", "135541.133000", "135541.136000", "135541.138000", "135541.141000", "135541.144000", "135541.147000", "135541.150000", "135541.153000", "135621.054000", "135621.057000", "135621.060000", "135621.063000", "135621.066000", "135621.069000", "135621.072000", "135621.075000", "135621.078000", "135621.081000", "135621.084000", "135621.087000", "135621.090000", "135621.093000", "135621.096000", "135621.099000", "135621.102000", "135621.105000", "135621.108000", "135621.111000", "135621.114000", "135621.117000", "135621.120000", "135621.123000", "135621.126000", "135621.129000", "135621.132000", "135701.055000", "135701.058000", "135701.061000", "135701.064000", "135701.067000", "135701.070000", "135701.073000", "135701.076000", "135701.079000", "135701.082000", "135701.085000", "135701.088000", "135701.091000", "135701.094000", "135701.097000", "135701.100000", "135701.103000", "135701.106000", "135701.108000", "135701.112000", "135701.115000", "135701.118000", "135701.121000", "135701.124000", "135701.126000", "135701.129000", "135701.133000", "135741.055000", "135741.058000", "135741.061000", "135741.064000", "135741.067000", "135741.070000", "135741.073000", "135741.076000", "135741.079000", "135741.082000", "135741.085000", "135741.088000", "135741.091000", "135741.094000", "135741.097000", "135741.100000", "135741.103000", "135741.106000", "135741.109000", "135741.112000", "135741.115000", "135741.123000", "135741.126000", "135741.129000", "135741.132000", "135741.135000", "135741.138000", "135821.054000", "135821.057000", "135821.069000", "135821.072000", "135821.075000", "135821.078000", "135821.081000", "135821.083000", "135821.086000", "135821.089000", "135821.092000", "135821.095000", "135821.103000", "135821.107000", "135821.110000", "135821.112000", "135821.115000", "135821.118000", "135821.121000", "135821.124000", "135821.127000", "135821.130000", "135821.133000", "135821.136000", "135821.139000", "135821.142000", "135821.145000", "135901.055000", "135901.058000", "135901.061000", "135901.064000", "135901.067000", "135901.070000", "135901.073000", "135901.076000", "135901.079000", "135901.082000", "135901.085000", "135901.088000", "135901.091000", "135901.094000", "135901.097000", "135901.100000", "135901.103000", "135901.106000", "135901.109000", "135901.112000", "135901.115000", "135901.118000", "135901.121000", "135901.124000", "135901.127000", "135901.130000", "135941.055000", "135941.058000", "135941.061000", "135941.064000", "135941.067000", "135941.070000", "135941.073000", "135941.076000", "135941.079000", "135941.082000", "135941.085000", "135941.088000", "135941.091000", "135941.094000", "135941.097000", "135941.100000", "135941.103000", "135941.106000", "135941.108000", "135941.111000", "135941.114000", "135941.117000", "135941.120000", "135941.123000", "135941.126000", "135941.129000", "135941.132000", "140021.055000", "140021.058000", "140021.061000", "140021.064000", "140021.067000", "140021.070000", "140021.073000", "140021.076000", "140021.079000", "140021.082000", "140021.085000", "140021.088000", "140021.103000", "140021.106000", "140021.109000", "140021.112000", "140021.115000", "140021.118000", "140021.121000", "140021.123000", "140021.126000", "140021.129000", "140021.132000", "140021.135000", "140021.138000", "140021.142000", "140021.145000", "140101.054000", "140101.057000", "140101.060000", "140101.063000", "140101.066000", "140101.069000", "140101.072000", "140101.075000", "140101.078000", "140101.081000", "140101.084000", "140101.087000", "140101.090000", "140101.093000", "140101.096000", "140101.099000", "140101.102000", "140101.105000", "140101.108000", "140101.111000", "140101.114000", "140101.117000", "140101.120000", "140101.123000", "140101.126000", "140101.129000", "140101.132000", "140141.055000", "140141.058000", "140141.061000", "140141.064000", "140141.067000", "140141.070000", "140141.073000", "140141.076000", "140141.079000", "140141.082000", "140141.085000", "140141.088000", "140141.091000", "140141.094000", "140141.097000", "140141.100000", "140141.103000", "140141.106000", "140141.109000", "140141.112000", "140141.115000", "140141.117000", "140141.120000", "140141.123000", "140141.126000", "140141.129000", "140141.132000", "140221.055000", "140221.058000", "140221.061000", "140221.064000", "140221.067000", "140221.070000", "140221.073000", "140221.076000", "140221.079000", "140221.082000", "140221.085000", "140221.088000", "140221.091000", "140221.094000", "140221.097000", "140221.100000", "140221.103000", "140221.106000", "140221.109000", "140221.112000", "140221.115000", "140221.118000", "140221.121000", "140221.124000", "140221.127000", "140221.130000", "140221.132000", "140301.054000", "140301.057000", "140301.060000", "140301.063000", "140301.066000", "140301.069000", "140301.072000", "140301.075000", "140301.078000", "140301.082000", "140301.084000", "140301.088000", "140301.090000", "140301.093000", "140301.096000", "140301.099000", "140301.102000", "140301.105000", "140301.108000", "140301.111000", "140301.114000", "140301.117000", "140301.120000", "140301.123000", "140301.126000", "140301.129000", "140304.171000", "140304.174000", "140304.177000"],
