{
  "AcquisitionMatrixPE": 104,
  "AcquisitionNumber": 1,
  "AcquisitionTime": "15:33:37.562500",
  "BandwidthPerPixelPhaseEncode": 17.17,
  "BaseResolution": 104,
  "BodyPartExamined": "BRAIN",
  "CoilString": "HC1-7;NC1_2",
  "ConsistencyInfo": "N4_VE11C_LATEST_20160120",
  "ConversionSoftware": "dcm2niix",
  "ConversionSoftwareVersion": "v1.0.20190720  (JP2:OpenJPEG) GCC7.3.0",
  "DerivedVendorReportedEchoSpacing": 0.000560011,
  "DeviceSerialNumber": "167006",
  "DwellTime": 2.1e-06,
  "EchoTime": 0.037,
  "EchoTrainLength": 104,
  "EffectiveEchoSpacing": 0.000560011,
  "FlipAngle": 52,
  "ImageComments": "Unaliased_MB4_PE3_LB",
  "ImageOrientationPatientDICOM": [0.997935, -0.0616235, 0.0181304, 0.0638339, 0.919878, -0.386974],
  "ImageType": [
    "ORIGINAL",
    "PRIMARY",
    "M",
    "MB",
    "ND",
    "MOSAIC"
],
  "ImagingFrequency": 123.259,
  "InPlanePhaseEncodingDirectionDICOM": "COL",
  "InstitutionAddress": "Chemin_Queen-Mary_4565_Montreal_District_CA_H3W_1W5",
  "InstitutionName": "IUGM",
  "InstitutionalDepartmentName": "Department",
  "MRAcquisitionType": "2D",
  "MagneticFieldStrength": 3,
  "Manufacturer": "Siemens",
  "ManufacturersModelName": "Prisma_fit",
  "Modality": "MR",
  "MultibandAccelerationFactor": 4,
  "PartialFourier": 1,
  "PatientPosition": "HFS",
  "PercentPhaseFOV": 100,
  "PhaseEncodingDirection": "j",
  "PhaseEncodingSteps": 104,
  "PhaseResolution": 1,
  "PixelBandwidth": 2290,
  "ProcedureStepDescription": "video_friends",
  "ProtocolName": "func_task-friends-s01e14b",
  "PulseSequenceDetails": "%CustomerSeq%_cmrr_mbep2d_bold",
  "ReceiveCoilActiveElements": "HC1-7;NC1,2",
  "ReceiveCoilName": "HeadNeck_64",
  "ReconMatrixPE": 104,
  "RepetitionTime": 1.49,
  "SAR": 0.0290812,
  "ScanOptions": "FS",
  "ScanningSequence": "EP",
  "SequenceName": "epfid2d1_104",
  "SequenceVariant": "SK_SS",
  "SeriesDescription": "func_task-friends-s01e14b",
  "SeriesNumber": 38,
  "ShimSetting": [634, -7269, -8862, 595, 41, -242, -94, -25],
  "SliceThickness": 2,
  "SliceTiming": [0, 0.7825, 0.0975, 0.88, 0.195, 0.9775, 0.2925, 1.0775, 0.39, 1.175, 0.4875, 1.2725, 0.5875, 1.37, 0.685, 0, 0.7825, 0.0975, 0.88, 0.195, 0.9775, 0.2925, 1.0775, 0.39, 1.175, 0.4875, 1.2725, 0.5875, 1.37, 0.685, 0, 0.7825, 0.0975, 0.88, 0.195, 0.9775, 0.2925, 1.0775, 0.39, 1.175, 0.4875, 1.2725, 0.5875, 1.37, 0.685, 0, 0.7825, 0.0975, 0.88, 0.195, 0.9775, 0.2925, 1.0775, 0.39, 1.175, 0.4875, 1.2725, 0.5875, 1.37, 0.685],
  "SoftwareVersions": "syngo_MR_E11",
  "SpacingBetweenSlices": 2,
  "StationName": "MRC35049",
  "TaskName": "friends",
  "TotalReadoutTime": 0.0576811,
  "TxRefAmp": 227.089,
  "WipMemBlock": "601ffd42-1e45-472b-b1ff-47ca511c0dc7||Sequence: R016 ve11c/master r/e634e98; Dec 19 2017 11:00:25 by eja",
  "dcmmeta_affine": [
    [-1.995869517326355, 0.1276678889989853, -0.014337925240397453, 95.93536376953125],
    [0.12324699759483337, 1.8397568464279175, -0.7746644616127014, -75.87457275390625],
    [0.03626073896884918, 0.7739481925964355, 1.8438246250152588, -79.7825927734375],
    [0.0, 0.0, 0.0, 1.0]
],
  "dcmmeta_reorient_transform": [
    [0.0, -1.0, 0.0, 103.0],
    [1.0, 0.0, 0.0, 0.0],
    [0.0, 0.0, 1.0, 0.0],
    [0.0, 0.0, 0.0, 1.0]
],
  "dcmmeta_shape": [104, 104, 60, 491],
  "dcmmeta_slice_dim": 2,
  "dcmmeta_version": 0.6,
  "global": {
    "const": {
      "AcquisitionMatrix": [104, 0, 0, 104],
      "AngioFlag": "N",
      "BitsAllocated": 16,
      "BitsStored": 16,
      "BodyPartExamined": "BRAIN",
      "Columns": 832,
      "EchoNumbers": 1,
      "EchoTime": 37.0,
      "EchoTrainLength": 104,
      "FlipAngle": 52.0,
      "HighBit": 15,
      "ImageOrientationPatient": [0.99793478442534, -0.0616234998029, 0.0181303697148, 0.06383394087558, 0.91987840265099, -0.3869740977489],
      "ImagePositionPatient": [-882.05279117941, -738.42994898163, 268.45230728587],
      "ImageType": [
        "ORIGINAL",
        "PRIMARY",
        "M",
        "MB",
        "ND",
        "MOSAIC"
],
      "ImagedNucleus": "1H",
      "ImagingFrequency": 123.259201,
      "InPlanePhaseEncodingDirection": "COL",
      "MRAcquisitionType": "2D",
      "MagneticFieldStrength": 3.0,
      "Manufacturer": "SIEMENS",
      "ManufacturerModelName": "Prisma_fit",
      "Modality": "MR",
      "NumberOfAverages": 1.0,
      "NumberOfPhaseEncodingSteps": 104,
      "PercentPhaseFieldOfView": 100.0,
      "PercentSampling": 100.0,
      "PerformedProcedureStepStartTime": "130812.820000",
      "PhotometricInterpretation": "MONOCHROME2",
      "PixelBandwidth": 2290.0,
      "PixelRepresentation": 0,
      "PixelSpacing": [2.0, 2.0],
      "ProtocolName": "func_task-friends-s01e14b",
      "RepetitionTime": 1490.0,
      "Rows": 832,
      "SAR": 0.02908124213179,
      "SamplesPerPixel": 1,
      "ScanOptions": "FS",
      "ScanningSequence": "EP",
      "SequenceName": "epfid2d1_104",
      "SequenceVariant": [
        "SK",
        "SS"
],
      "SeriesDescription": "func_task-friends-s01e14b",
      "SeriesNumber": 38,
      "SeriesTime": "153453.931000",
      "SliceLocation": -44.851642932944,
      "SliceThickness": 2.0,
      "SmallestImagePixelValue": 0,
      "SoftwareVersions": "syngo MR E11",
      "SpacingBetweenSlices": 1.9999999569852,
      "SpecificCharacterSet": "ISO_IR 100",
      "StudyID": "1",
      "StudyTime": "130812.669000",
      "TransmitCoilName": "Body",
      "VariableFlipAngleFlag": "N",
      "WindowCenterWidthExplanation": "Algo1",
      "dBdt": 0.0},
    "slices": {}
  },
  "time": {
    "samples": {
      "AcquisitionNumber": [1, 2, 3, 4, 5, 6, 7, 8, 9, 10, 11, 12, 13, 14, 15, 16, 17, 18, 19, 20, 21, 22, 23, 24, 25, 26, 27, 28, 29, 30, 31, 32, 33, 34, 35, 36, 37, 38, 39, 40, 41, 42, 43, 44, 45, 46, 47, 48, 49, 50, 51, 52, 53, 54, 55, 56, 57, 58, 59, 60, 61, 62, 63, 64, 65, 66, 67, 68, 69, 70, 71, 72, 73, 74, 75, 76, 77, 78, 79, 80, 81, 82, 83, 84, 85, 86, 87, 88, 89, 90, 91, 92, 93, 94, 95, 96, 97, 98, 99, 100, 101, 102, 103, 104, 105, 106, 107, 108, 109, 110, 111, 112, 113, 114, 115, 116, 117, 118, 119, 120, 121, 122, 123, 124, 125, 126, 127, 128, 129, 130, 131, 132, 133, 134, 135, 136, 137, 138, 139, 140, 141, 142, 143, 144, 145, 146, 147, 148, 149, 150, 151, 152, 153, 154, 155, 156, 157, 158, 159, 160, 161, 162, 163, 164, 165, 166, 167, 168, 169, 170, 171, 172, 173, 174, 175, 176, 177, 178, 179, 180, 181, 182, 183, 184, 185, 186, 187, 188, 189, 190, 191, 192, 193, 194, 195, 196, 197, 198, 199, 200, 201, 202, 203, 204, 205, 206, 207, 208, 209, 210, 211, 212, 213, 214, 215, 216, 217, 218, 219, 220, 221, 222, 223, 224, 225, 226, 227, 228, 229, 230, 231, 232, 233, 234, 235, 236, 237, 238, 239, 240, 241, 242, 243, 244, 245, 246, 247, 248, 249, 250, 251, 252, 253, 254, 255, 256, 257, 258, 259, 260, 261, 262, 263, 264, 265, 266, 267, 268, 269, 270, 271, 272, 273, 274, 275, 276, 277, 278, 279, 280, 281, 282, 283, 284, 285, 286, 287, 288, 289, 290, 291, 292, 293, 294, 295, 296, 297, 298, 299, 300, 301, 302, 303, 304, 305, 306, 307, 308, 309, 310, 311, 312, 313, 314, 315, 316, 317, 318, 319, 320, 321, 322, 323, 324, 325, 326, 327, 328, 329, 330, 331, 332, 333, 334, 335, 336, 337, 338, 339, 340, 341, 342, 343, 344, 345, 346, 347, 348, 349, 350, 351, 352, 353, 354, 355, 356, 357, 358, 359, 360, 361, 362, 363, 364, 365, 366, 367, 368, 369, 370, 371, 372, 373, 374, 375, 376, 377, 378, 379, 380, 381, 382, 383, 384, 385, 386, 387, 388, 389, 390, 391, 392, 393, 394, 395, 396, 397, 398, 399, 400, 401, 402, 403, 404, 405, 406, 407, 408, 409, 410, 411, 412, 413, 414, 415, 416, 417, 418, 419, 420, 421, 422, 423, 424, 425, 426, 427, 428, 429, 430, 431, 432, 433, 434, 435, 436, 437, 438, 439, 440, 441, 442, 443, 444, 445, 446, 447, 448, 449, 450, 451, 452, 453, 454, 455, 456, 457, 458, 459, 460, 461, 462, 463, 464, 465, 466, 467, 468, 469, 470, 471, 472, 473, 474, 475, 476, 477, 478, 479, 480, 481, 482, 483, 484, 485, 486, 487, 488, 489, 490, 491],
      "AcquisitionTime": ["153337.562500", "153339.052500", "153340.542500", "153342.032500", "153343.522500", "153345.012500", "153346.502500", "153347.992500", "153349.482500", "153350.972500", "153352.462500", "153353.952500", "153355.442500", "153356.932500", "153358.422500", "153359.912500", "153401.402500", "153402.892500", "153404.382500", "153405.872500", "153407.362500", "153408.852500", "153410.342500", "153411.832500", "153413.322500", "153414.812500", "153416.302500", "153417.792500", "153419.282500", "153420.772500", "153422.262500", "153423.752500", "153425.242500", "153426.732500", "153428.222500", "153429.712500", "153431.202500", "153432.692500", "153434.182500", "153435.672500", "153437.162500", "153438.652500", "153440.142500", "153441.632500", "153443.122500", "153444.612500", "153446.102500", "153447.592500", "153449.082500", "153450.572500", "153452.062500", "153453.552500", "153455.042500", "153456.532500", "153458.022500", "153459.512500", "153501.002500", "153502.492500", "153503.982500", "153505.472500", "153506.962500", "153508.452500", "153509.942500", "153511.432500", "153512.922500", "153514.412500", "153515.902500", "153517.392500", "153518.882500", "153520.372500", "153521.862500", "153523.352500", "153524.842500", "153526.332500", "153527.822500", "153529.312500", "153530.802500", "153532.292500", "153533.782500", "153535.272500", "153536.762500", "153538.252500", "153539.742500", "153541.232500", "153542.722500", "153544.212500", "153545.702500", "153547.192500", "153548.682500", "153550.172500", "153551.662500", "153553.152500", "153554.642500", "153556.132500", "153557.622500", "153559.112500", "153600.602500", "153602.092500", "153603.582500", "153605.072500", "153606.562500", "153608.052500", "153609.542500", "153611.032500", "153612.522500", "153614.012500", "153615.502500", "153616.992500", "153618.482500", "153619.972500", "153621.462500", "153622.952500", "153624.442500", "153625.932500", "153627.422500", "153628.912500", "153630.402500", "153631.892500", "153633.382500", "153634.872500", "153636.362500", "153637.852500", "153639.342500", "153640.832500", "153642.322500", "153643.812500", "153645.302500", "153646.792500", "153648.282500", "153649.772500", "153651.262500", "153652.752500", "153654.242500", "153655.732500", "153657.222500", "153658.712500", "153700.202500", "153701.692500", "153703.182500", "153704.672500", "153706.162500", "153707.652500", "153709.142500", "153710.632500", "153712.122500", "153713.612500", "153715.102500", "153716.592500", "153718.082500", "153719.572500", "153721.062500", "153722.552500", "153724.042500", "153725.532500", "153727.022500", "153728.512500", "153730.002500", "153731.492500", "153732.982500", "153734.472500", "153735.962500", "153737.452500", "153738.942500", "153740.432500", "153741.922500", "153743.412500", "153744.902500", "153746.392500", "153747.882500", "153749.372500", "153750.862500", "153752.352500", "153753.842500", "153755.332500", "153756.822500", "153758.312500", "153759.802500", "153801.292500", "153802.782500", "153804.272500", "153805.762500", "153807.252500", "153808.742500", "153810.232500", "153811.722500", "153813.212500", "153814.702500", "153816.192500", "153817.682500", "153819.172500", "153820.662500", "153822.152500", "153823.642500", "153825.132500", "153826.622500", "153828.112500", "153829.602500", "153831.092500", "153832.582500", "153834.072500", "153835.562500", "153837.052500", "153838.542500", "153840.032500", "153841.522500", "153843.012500", "153844.502500", "153845.992500", "153847.482500", "153848.972500", "153850.462500", "153851.952500", "153853.442500", "153854.932500", "153856.422500", "153857.912500", "153859.402500", "153900.892500", "153902.382500", "153903.872500", "153905.362500", "153906.852500", "153908.342500", "153909.832500", "153911.322500", "153912.812500", "153914.302500", "153915.792500", "153917.282500", "153918.772500", "153920.262500", "153921.752500", "153923.242500", "153924.732500", "153926.222500", "153927.712500", "153929.202500", "153930.692500", "153932.182500", "153933.672500", "153935.162500", "153936.652500", "153938.142500", "153939.632500", "153941.122500", "153942.612500", "153944.102500", "153945.592500", "153947.082500", "153948.572500", "153950.062500", "153951.552500", "153953.042500", "153954.532500", "153956.022500", "153957.512500", "153959.002500", "154000.492500", "154001.982500", "154003.472500", "154004.962500", "154006.452500", "154007.942500", "154009.432500", "154010.922500", "154012.412500", "154013.902500", "154015.392500", "154016.882500", "154018.372500", "154019.862500", "154021.352500", "154022.842500", "154024.332500", "154025.822500", "154027.312500", "154028.802500", "154030.292500", "154031.782500", "154033.272500", "154034.762500", "154036.252500", "154037.742500", "154039.232500", "154040.722500", "154042.212500", "154043.702500", "154045.192500", "154046.682500", "154048.172500", "154049.662500", "154051.152500", "154052.642500", "154054.132500", "154055.622500", "154057.112500", "154058.602500", "154100.092500", "154101.582500", "154103.072500", "154104.562500", "154106.052500", "154107.542500", "154109.032500", "154110.522500", "154112.012500", "154113.502500", "154114.992500", "154116.482500", "154117.972500", "154119.462500", "154120.952500", "154122.442500", "154123.932500", "154125.422500", "154126.912500", "154128.402500", "154129.892500", "154131.382500", "154132.872500", "154134.362500", "154135.852500", "154137.342500", "154138.832500", "154140.322500", "154141.812500", "154143.302500", "154144.792500", "154146.282500", "154147.772500", "154149.262500", "154150.752500", "154152.242500", "154153.732500", "154155.222500", "154156.712500", "154158.202500", "154159.692500", "154201.182500", "154202.672500", "154204.162500", "154205.652500", "154207.142500", "154208.632500", "154210.122500", "154211.612500", "154213.102500", "154214.592500", "154216.082500", "154217.572500", "154219.062500", "154220.552500", "154222.042500", "154223.532500", "154225.022500", "154226.512500", "154228.002500", "154229.492500", "154230.982500", "154232.472500", "154233.962500", "154235.452500", "154236.942500", "154238.432500", "154239.922500", "154241.412500", "154242.902500", "154244.392500", "154245.882500", "154247.372500", "154248.862500", "154250.352500", "154251.842500", "154253.332500", "154254.822500", "154256.312500", "154257.802500", "154259.292500", "154300.782500", "154302.272500", "154303.762500", "154305.252500", "154306.742500", "154308.232500", "154309.722500", "154311.212500", "154312.702500", "154314.192500", "154315.682500", "154317.172500", "154318.662500", "154320.152500", "154321.642500", "154323.132500", "154324.622500", "154326.112500", "154327.602500", "154329.092500", "154330.582500", "154332.072500", "154333.562500", "154335.052500", "154336.542500", "154338.032500", "154339.522500", "154341.012500", "154342.502500", "154343.992500", "154345.482500", "154346.972500", "154348.462500", "154349.952500", "154351.442500", "154352.932500", "154354.422500", "154355.912500", "154357.402500", "154358.892500", "154400.382500", "154401.872500", "154403.362500", "154404.852500", "154406.342500", "154407.832500", "154409.322500", "154410.812500", "154412.302500", "154413.792500", "154415.282500", "154416.772500", "154418.262500", "154419.752500", "154421.242500", "154422.732500", "154424.222500", "154425.712500", "154427.202500", "154428.692500", "154430.182500", "154431.672500", "154433.162500", "154434.652500", "154436.142500", "154437.632500", "154439.122500", "154440.612500", "154442.102500", "154443.592500", "154445.082500", "154446.572500", "154448.062500", "154449.552500", "154451.042500", "154452.532500", "154454.022500", "154455.512500", "154457.002500", "154458.492500", "154459.982500", "154501.472500", "154502.962500", "154504.452500", "154505.942500", "154507.432500", "154508.922500", "154510.412500", "154511.902500", "154513.392500", "154514.882500", "154516.372500", "154517.862500", "154519.352500", "154520.842500", "154522.332500", "154523.822500", "154525.312500", "154526.802500", "154528.292500", "154529.782500", "154531.272500", "154532.762500", "154534.252500", "154535.742500", "154537.232500", "154538.722500", "154540.212500", "154541.702500", "154543.192500", "154544.682500", "154546.172500", "154547.662500"],
      "ContentTime": ["153453.934000", "153453.937000", "153453.941000", "153453.943000", "153453.946000", "153453.952000", "153453.956000", "153453.959000", "153453.962000", "153453.965000", "153453.968000", "153453.971000", "153453.975000", "153453.978000", "153453.981000", "153453.984000", "153453.987000", "153453.990000", "153453.993000", "153453.996000", "153454.000000", "153454.002000", "153513.886000", "153513.889000", "153513.892000", "153513.895000", "153513.898000", "153513.901000", "153513.904000", "153513.906000", "153513.909000", "153513.912000", "153513.915000", "153513.918000", "153513.921000", "153513.924000", "153513.927000", "153513.930000", "153513.937000", "153513.940000", "153513.943000", "153513.945000", "153513.948000", "153533.886000", "153533.889000", "153533.892000", "153533.895000", "153533.898000", "153533.901000", "153533.904000", "153533.907000", "153533.910000", "153533.913000", "153533.916000", "153533.928000", "153533.931000", "153533.934000", "153533.937000", "153533.940000", "153533.943000", "153533.946000", "153533.949000", "153533.952000", "153553.886000", "153553.889000", "153553.892000", "153553.895000", "153553.898000", "153553.901000", "153553.904000", "153553.907000", "153553.909000", "153553.912000", "153553.915000", "153553.918000", "153553.921000", "153553.924000", "153553.938000", "153553.941000", "153553.944000", "153553.947000", "153553.949000", "153553.952000", "153613.886000", "153613.889000", "153613.892000", "153613.895000", "153613.903000", "153613.906000", "153613.909000", "153613.912000", "153613.915000", "153613.918000", "153613.921000", "153613.924000", "153613.928000", "153613.931000", "153613.934000", "153613.937000", "153613.940000", "153613.943000", "153613.946000", "153613.949000", "153653.886000", "153653.889000", "153653.892000", "153653.895000", "153653.898000", "153653.901000", "153653.904000", "153653.907000", "153653.910000", "153653.913000", "153653.916000", "153653.918000", "153653.921000", "153653.924000", "153653.927000", "153653.930000", "153653.933000", "153653.936000", "153653.939000", "153653.942000", "153653.945000", "153653.948000", "153653.951000", "153653.954000", "153653.957000", "153653.960000", "153653.963000", "153653.966000", "153733.886000", "153733.889000", "153733.892000", "153733.895000", "153733.898000", "153733.901000", "153733.904000", "153733.907000", "153733.910000", "153733.913000", "153733.916000", "153733.919000", "153733.922000", "153733.925000", "153733.928000", "153733.931000", "153733.934000", "153733.937000", "153733.939000", "153733.942000", "153733.945000", "153733.948000", "153733.951000", "153733.954000", "153733.957000", "153733.960000", "153733.963000", "153813.886000", "153813.889000", "153813.892000", "153813.895000", "153813.898000", "153813.901000", "153813.904000", "153813.907000", "153813.910000", "153813.913000", "153813.916000", "153813.919000", "153813.922000", "153813.925000", "153813.928000", "153813.931000", "153813.934000", "153813.938000", "153813.941000", "153813.944000", "153813.947000", "153813.950000", "153813.953000", "153813.956000", "153813.960000", "153813.963000", "153853.886000", "153853.889000", "153853.892000", "153853.895000", "153853.898000", "153853.901000", "153853.904000", "153853.907000", "153853.910000", "153853.913000", "153853.916000", "153853.919000", "153853.922000", "153853.925000", "153853.928000", "153853.931000", "153853.934000", "153853.937000", "153853.940000", "153853.943000", "153853.945000", "153853.948000", "153853.951000", "153853.954000", "153853.957000", "153853.960000", "153853.963000", "153913.886000", "153913.889000", "153913.892000", "153913.895000", "153913.898000", "153913.901000", "153913.904000", "153913.907000", "153913.910000", "153913.913000", "153913.916000", "153913.919000", "153913.922000", "153913.925000", "153953.886000", "153953.889000", "153953.892000", "153953.895000", "153953.898000", "153953.901000", "153953.904000", "153953.907000", "153953.910000", "153953.913000", "153953.916000", "153953.919000", "153953.922000", "153953.925000", "153953.928000", "153953.931000", "153953.934000", "153953.937000", "153953.940000", "153953.943000", "153953.946000", "153953.949000", "153953.952000", "153953.954000", "153953.957000", "153953.960000", "153953.963000", "154033.886000", "154033.889000", "154033.892000", "154033.895000", "154033.898000", "154033.901000", "154033.904000", "154033.907000", "154033.910000", "154033.913000", "154033.916000", "154033.919000", "154033.922000", "154033.925000", "154033.928000", "154033.931000", "154033.934000", "154033.937000", "154033.940000", "154033.943000", "154033.946000", "154033.949000", "154033.962000", "154033.965000", "154033.968000", "154033.971000", "154113.886000", "154113.889000", "154113.892000", "154113.895000", "154113.898000", "154113.901000", "154113.904000", "154113.907000", "154113.910000", "154113.913000", "154113.916000", "154113.919000", "154113.922000", "154113.925000", "154113.928000", "154113.931000", "154113.934000", "154113.937000", "154113.940000", "154113.943000", "154113.946000", "154113.948000", "154113.951000", "154113.954000", "154113.957000", "154113.960000", "154113.963000", "154153.886000", "154153.890000", "154153.892000", "154153.895000", "154153.898000", "154153.901000", "154153.904000", "154153.907000", "154153.910000", "154153.913000", "154153.916000", "154153.919000", "154153.922000", "154153.925000", "154153.928000", "154153.931000", "154153.934000", "154153.937000", "154153.940000", "154153.943000", "154153.946000", "154153.949000", "154153.952000", "154153.955000", "154153.958000", "154153.961000", "154153.964000", "154233.886000", "154233.889000", "154233.892000", "154233.895000", "154233.898000", "154233.901000", "154233.904000", "154233.907000", "154233.910000", "154233.913000", "154233.916000", "154233.919000", "154233.922000", "154233.925000", "154233.928000", "154233.931000", "154233.934000", "154233.937000", "154233.940000", "154233.943000", "154233.946000", "154233.949000", "154233.952000", "154233.955000", "154233.958000", "154233.961000", "154233.964000", "154313.886000", "154313.889000", "154313.892000", "154313.895000", "154313.898000", "154313.901000", "154313.904000", "154313.907000", "154313.910000", "154313.913000", "154313.916000", "154313.919000", "154313.922000", "154313.925000", "154313.928000", "154313.931000", "154313.934000", "154313.937000", "154313.940000", "154313.943000", "154313.946000", "154313.949000", "154313.952000", "154313.955000", "154313.958000", "154313.961000", "154313.964000", "154353.886000", "154353.889000", "154353.892000", "154353.895000", "154353.898000", "154353.901000", "154353.904000", "154353.907000", "154353.910000", "154353.913000", "154353.916000", "154353.919000", "154353.922000", "154353.925000", "154353.928000", "154353.931000", "154353.934000", "154353.937000", "154353.940000", "154353.943000", "154353.946000", "154353.949000", "154353.952000", "154353.955000", "154353.958000", "154353.961000", "154353.964000", "154433.886000", "154433.889000", "154433.893000", "154433.896000", "154433.899000", "154433.902000", "154433.906000", "154433.909000", "154433.912000", "154433.915000", "154433.917000", "154433.920000", "154433.923000", "154433.926000", "154433.929000", "154433.932000", "154433.935000", "154433.938000", "154433.941000", "154433.944000", "154433.947000", "154433.950000", "154433.953000", "154433.956000", "154433.959000", "154433.962000", "154513.886000", "154513.889000", "154513.892000", "154513.895000", "154513.898000", "154513.901000", "154513.904000", "154513.907000", "154513.910000", "154513.913000", "154513.916000", "154513.919000", "154513.922000", "154513.925000", "154513.928000", "154513.931000", "154513.934000", "154513.937000", "154513.948000", "154513.950000", "154513.953000", "154513.956000", "154513.959000", "154513.962000", "154513.965000", "154513.968000", "154513.971000", "154549.913000", "154549.916000", "154549.919000", "154549.922000", "154549.926000", "154549.929000", "154549.932000", "154549.934000", "154549.937000", "154549.940000", "154549.943000", "154549.946000", "154549.949000", "154549.952000", "154549.955000", "154549.958000", "154549.961000", "154549.964000", "154549.967000", "154549.970000", "154549.973000", "154549.976000", "154549.979000", "154549.982000", "154549.985000"],
