{
  "AcquisitionMatrixPE": 104,
  "AcquisitionNumber": 1,
  "AcquisitionTime": "11:35:29.805000",
  "BandwidthPerPixelPhaseEncode": 17.17,
  "BaseResolution": 104,
  "BodyPartExamined": "BRAIN",
  "CoilString": "HC1-7;NC1_2",
  "ConsistencyInfo": "N4_VE11C_LATEST_20160120",
  "ConversionSoftware": "dcm2niix",
  "ConversionSoftwareVersion": "v1.0.20190902",
  "DerivedVendorReportedEchoSpacing": 0.000560011,
  "DeviceSerialNumber": "167006",
  "DwellTime": 2.1e-06,
  "EchoTime": 0.037,
  "EchoTrainLength": 104,
  "EffectiveEchoSpacing": 0.000560011,
  "FlipAngle": 52,
  "ImageComments": "Unaliased_MB4_PE3_LB",
  "ImageOrientationPatientDICOM": [0.998806, 0.0250312, 0.0419444, -0.00889076, 0.937534, -0.347781],
  "ImageType": [
    "ORIGINAL",
    "PRIMARY",
    "M",
    "MB",
    "ND",
    "MOSAIC"
],
  "ImagingFrequency": 123.259,
  "InPlanePhaseEncodingDirectionDICOM": "COL",
  "InstitutionAddress": "Chemin_Queen-Mary_4565_Montreal_District_CA_H3W_1W5",
  "InstitutionName": "IUGM",
  "InstitutionalDepartmentName": "Department",
  "MRAcquisitionType": "2D",
  "MagneticFieldStrength": 3,
  "Manufacturer": "Siemens",
  "ManufacturersModelName": "Prisma_fit",
  "Modality": "MR",
  "MultibandAccelerationFactor": 4,
  "PartialFourier": 1,
  "PatientPosition": "HFS",
  "PercentPhaseFOV": 100,
  "PhaseEncodingDirection": "j",
  "PhaseEncodingSteps": 104,
  "PhaseResolution": 1,
  "PixelBandwidth": 2290,
  "ProcedureStepDescription": "video_friends",
  "ProtocolName": "func_task-friends-s05e04b",
  "PulseSequenceDetails": "%CustomerSeq%_cmrr_mbep2d_bold",
  "ReceiveCoilActiveElements": "HC1-7;NC1,2",
  "ReceiveCoilName": "HeadNeck_64",
  "ReconMatrixPE": 104,
  "RepetitionTime": 1.49,
  "SAR": 0.0381658,
  "ScanOptions": "FS",
  "ScanningSequence": "EP",
  "SequenceName": "epfid2d1_104",
  "SequenceVariant": "SK_SS",
  "SeriesDescription": "func_task-friends-s05e04b",
  "SeriesNumber": 17,
  "ShimSetting": [650, -7187, -8836, 733, 139, 14, 60, -5],
  "SliceThickness": 2,
  "SliceTiming": [0, 0.7825, 0.0975, 0.8825, 0.195, 0.98, 0.2925, 1.0775, 0.3925, 1.175, 0.49, 1.2725, 0.5875, 1.3725, 0.685, 0, 0.7825, 0.0975, 0.8825, 0.195, 0.98, 0.2925, 1.0775, 0.3925, 1.175, 0.49, 1.2725, 0.5875, 1.3725, 0.685, 0, 0.7825, 0.0975, 0.8825, 0.195, 0.98, 0.2925, 1.0775, 0.3925, 1.175, 0.49, 1.2725, 0.5875, 1.3725, 0.685, 0, 0.7825, 0.0975, 0.8825, 0.195, 0.98, 0.2925, 1.0775, 0.3925, 1.175, 0.49, 1.2725, 0.5875, 1.3725, 0.685],
  "SoftwareVersions": "syngo_MR_E11",
  "SpacingBetweenSlices": 2,
  "StationName": "MRC35049",
  "TaskName": "s05e04b",
  "TotalReadoutTime": 0.0576811,
  "TxRefAmp": 248.361,
  "WipMemBlock": "e5256a17-b784-4b4c-8845-1a154e427acb||Sequence: R016 ve11c/master r/e634e98; Dec 19 2017 11:00:25 by eja",
  "dcmmeta_affine": [
    [-1.997612714767456, -0.01778152771294117, 0.09605930745601654, 101.67733764648438],
    [-0.050062425434589386, 1.8750673532485962, -0.6939855813980103, -66.94389343261719],
    [0.08388877660036087, 0.6955617070198059, 1.873274326324463, -68.858154296875],
    [0.0, 0.0, 0.0, 1.0]
],
  "dcmmeta_reorient_transform": [
    [0.0, -1.0, 0.0, 103.0],
    [1.0, 0.0, 0.0, 0.0],
    [0.0, 0.0, 1.0, 0.0],
    [0.0, 0.0, 0.0, 1.0]
],
  "dcmmeta_shape": [104, 104, 60, 524],
  "dcmmeta_slice_dim": 2,
  "dcmmeta_version": 0.6,
  "global": {
    "const": {
      "AcquisitionMatrix": [104, 0, 0, 104],
      "AngioFlag": "N",
      "BitsAllocated": 16,
      "BitsStored": 16,
      "BodyPartExamined": "BRAIN",
      "Columns": 832,
      "EchoNumbers": 1,
      "EchoTime": 37.0,
      "EchoTrainLength": 104,
      "FlipAngle": 52.0,
      "HighBit": 15,
      "ImageOrientationPatient": [0.99880634088193, 0.02503121337576, 0.04194438902868, -0.0088907636975, 0.937533700696, -0.347780842457],
      "ImagePositionPatient": [-820.50438421227, -826.93530733583, 225.43363997628],
      "ImageType": [
        "ORIGINAL",
        "PRIMARY",
        "M",
        "MB",
        "ND",
        "MOSAIC"
],
      "ImagedNucleus": "1H",
      "ImagingFrequency": 123.259002,
      "InPlanePhaseEncodingDirection": "COL",
      "MRAcquisitionType": "2D",
      "MagneticFieldStrength": 3.0,
      "Manufacturer": "SIEMENS",
      "ManufacturerModelName": "Prisma_fit",
      "Modality": "MR",
      "NumberOfAverages": 1.0,
      "NumberOfPhaseEncodingSteps": 104,
      "PercentPhaseFieldOfView": 100.0,
      "PercentSampling": 100.0,
      "PerformedProcedureStepStartTime": "104001.621000",
      "PhotometricInterpretation": "MONOCHROME2",
      "PixelBandwidth": 2290.0,
      "PixelRepresentation": 0,
      "PixelSpacing": [2.0, 2.0],
      "ProtocolName": "func_task-friends-s05e04b",
      "RepetitionTime": 1490.0,
      "Rows": 832,
      "SAR": 0.03816578058593,
      "SamplesPerPixel": 1,
      "ScanOptions": "FS",
      "ScanningSequence": "EP",
      "SequenceName": "epfid2d1_104",
      "SequenceVariant": [
        "SK",
        "SS"
],
      "SeriesDescription": "func_task-friends-s05e04b",
      "SeriesNumber": 17,
      "SeriesTime": "113648.687000",
      "SliceLocation": -36.382527225574,
      "SliceThickness": 2.0,
      "SmallestImagePixelValue": 0,
      "SoftwareVersions": "syngo MR E11",
      "SpacingBetweenSlices": 1.9999999744695,
      "SpecificCharacterSet": "ISO_IR 100",
      "StudyID": "1",
      "StudyTime": "104001.509000",
      "TransmitCoilName": "Body",
      "VariableFlipAngleFlag": "N",
      "WindowCenterWidthExplanation": "Algo1",
      "dBdt": 0.0},
    "slices": {}
  },
  "time": {
    "samples": {
      "AcquisitionNumber": [1, 2, 3, 4, 5, 6, 7, 8, 9, 10, 11, 12, 13, 14, 15, 16, 17, 18, 19, 20, 21, 22, 23, 24, 25, 26, 27, 28, 29, 30, 31, 32, 33, 34, 35, 36, 37, 38, 39, 40, 41, 42, 43, 44, 45, 46, 47, 48, 49, 50, 51, 52, 53, 54, 55, 56, 57, 58, 59, 60, 61, 62, 63, 64, 65, 66, 67, 68, 69, 70, 71, 72, 73, 74, 75, 76, 77, 78, 79, 80, 81, 82, 83, 84, 85, 86, 87, 88, 89, 90, 91, 92, 93, 94, 95, 96, 97, 98, 99, 100, 101, 102, 103, 104, 105, 106, 107, 108, 109, 110, 111, 112, 113, 114, 115, 116, 117, 118, 119, 120, 121, 122, 123, 124, 125, 126, 127, 128, 129, 130, 131, 132, 133, 134, 135, 136, 137, 138, 139, 140, 141, 142, 143, 144, 145, 146, 147, 148, 149, 150, 151, 152, 153, 154, 155, 156, 157, 158, 159, 160, 161, 162, 163, 164, 165, 166, 167, 168, 169, 170, 171, 172, 173, 174, 175, 176, 177, 178, 179, 180, 181, 182, 183, 184, 185, 186, 187, 188, 189, 190, 191, 192, 193, 194, 195, 196, 197, 198, 199, 200, 201, 202, 203, 204, 205, 206, 207, 208, 209, 210, 211, 212, 213, 214, 215, 216, 217, 218, 219, 220, 221, 222, 223, 224, 225, 226, 227, 228, 229, 230, 231, 232, 233, 234, 235, 236, 237, 238, 239, 240, 241, 242, 243, 244, 245, 246, 247, 248, 249, 250, 251, 252, 253, 254, 255, 256, 257, 258, 259, 260, 261, 262, 263, 264, 265, 266, 267, 268, 269, 270, 271, 272, 273, 274, 275, 276, 277, 278, 279, 280, 281, 282, 283, 284, 285, 286, 287, 288, 289, 290, 291, 292, 293, 294, 295, 296, 297, 298, 299, 300, 301, 302, 303, 304, 305, 306, 307, 308, 309, 310, 311, 312, 313, 314, 315, 316, 317, 318, 319, 320, 321, 322, 323, 324, 325, 326, 327, 328, 329, 330, 331, 332, 333, 334, 335, 336, 337, 338, 339, 340, 341, 342, 343, 344, 345, 346, 347, 348, 349, 350, 351, 352, 353, 354, 355, 356, 357, 358, 359, 360, 361, 362, 363, 364, 365, 366, 367, 368, 369, 370, 371, 372, 373, 374, 375, 376, 377, 378, 379, 380, 381, 382, 383, 384, 385, 386, 387, 388, 389, 390, 391, 392, 393, 394, 395, 396, 397, 398, 399, 400, 401, 402, 403, 404, 405, 406, 407, 408, 409, 410, 411, 412, 413, 414, 415, 416, 417, 418, 419, 420, 421, 422, 423, 424, 425, 426, 427, 428, 429, 430, 431, 432, 433, 434, 435, 436, 437, 438, 439, 440, 441, 442, 443, 444, 445, 446, 447, 448, 449, 450, 451, 452, 453, 454, 455, 456, 457, 458, 459, 460, 461, 462, 463, 464, 465, 466, 467, 468, 469, 470, 471, 472, 473, 474, 475, 476, 477, 478, 479, 480, 481, 482, 483, 484, 485, 486, 487, 488, 489, 490, 491, 492, 493, 494, 495, 496, 497, 498, 499, 500, 501, 502, 503, 504, 505, 506, 507, 508, 509, 510, 511, 512, 513, 514, 515, 516, 517, 518, 519, 520, 521, 522, 523, 524],
      "AcquisitionTime": ["113529.805000", "113531.295000", "113532.785000", "113534.275000", "113535.765000", "113537.255000", "113538.745000", "113540.235000", "113541.725000", "113543.215000", "113544.705000", "113546.195000", "113547.685000", "113549.175000", "113550.665000", "113552.155000", "113553.645000", "113555.135000", "113556.625000", "113558.115000", "113559.605000", "113601.095000", "113602.585000", "113604.075000", "113605.565000", "113607.055000", "113608.545000", "113610.035000", "113611.525000", "113613.015000", "113614.505000", "113615.995000", "113617.485000", "113618.975000", "113620.465000", "113621.955000", "113623.445000", "113624.935000", "113626.425000", "113627.915000", "113629.405000", "113630.895000", "113632.385000", "113633.875000", "113635.365000", "113636.855000", "113638.345000", "113639.835000", "113641.325000", "113642.815000", "113644.305000", "113645.795000", "113647.285000", "113648.775000", "113650.265000", "113651.755000", "113653.245000", "113654.735000", "113656.225000", "113657.715000", "113659.205000", "113700.695000", "113702.185000", "113703.675000", "113705.165000", "113706.655000", "113708.145000", "113709.635000", "113711.125000", "113712.615000", "113714.105000", "113715.595000", "113717.085000", "113718.575000", "113720.065000", "113721.555000", "113723.045000", "113724.535000", "113726.025000", "113727.515000", "113729.005000", "113730.495000", "113731.985000", "113733.475000", "113734.965000", "113736.455000", "113737.945000", "113739.435000", "113740.925000", "113742.415000", "113743.905000", "113745.395000", "113746.885000", "113748.375000", "113749.865000", "113751.355000", "113752.845000", "113754.335000", "113755.825000", "113757.315000", "113758.805000", "113800.295000", "113801.785000", "113803.275000", "113804.765000", "113806.255000", "113807.745000", "113809.235000", "113810.725000", "113812.215000", "113813.705000", "113815.195000", "113816.685000", "113818.175000", "113819.665000", "113821.155000", "113822.645000", "113824.135000", "113825.625000", "113827.115000", "113828.605000", "113830.095000", "113831.585000", "113833.075000", "113834.565000", "113836.055000", "113837.545000", "113839.035000", "113840.525000", "113842.015000", "113843.505000", "113844.995000", "113846.485000", "113847.975000", "113849.465000", "113850.955000", "113852.445000", "113853.935000", "113855.425000", "113856.915000", "113858.405000", "113859.895000", "113901.385000", "113902.875000", "113904.365000", "113905.855000", "113907.345000", "113908.835000", "113910.325000", "113911.815000", "113913.305000", "113914.795000", "113916.285000", "113917.775000", "113919.265000", "113920.755000", "113922.245000", "113923.735000", "113925.225000", "113926.715000", "113928.205000", "113929.695000", "113931.185000", "113932.675000", "113934.165000", "113935.655000", "113937.145000", "113938.635000", "113940.125000", "113941.615000", "113943.105000", "113944.595000", "113946.085000", "113947.575000", "113949.065000", "113950.555000", "113952.045000", "113953.535000", "113955.025000", "113956.515000", "113958.005000", "113959.495000", "114000.985000", "114002.475000", "114003.965000", "114005.455000", "114006.945000", "114008.435000", "114009.925000", "114011.415000", "114012.905000", "114014.395000", "114015.885000", "114017.375000", "114018.865000", "114020.355000", "114021.845000", "114023.335000", "114024.825000", "114026.315000", "114027.805000", "114029.295000", "114030.785000", "114032.275000", "114033.765000", "114035.255000", "114036.745000", "114038.235000", "114039.725000", "114041.215000", "114042.705000", "114044.195000", "114045.685000", "114047.175000", "114048.665000", "114050.155000", "114051.645000", "114053.135000", "114054.625000", "114056.115000", "114057.605000", "114059.095000", "114100.585000", "114102.075000", "114103.565000", "114105.055000", "114106.545000", "114108.035000", "114109.525000", "114111.015000", "114112.505000", "114113.995000", "114115.485000", "114116.975000", "114118.465000", "114119.955000", "114121.445000", "114122.935000", "114124.425000", "114125.915000", "114127.405000", "114128.895000", "114130.385000", "114131.875000", "114133.365000", "114134.855000", "114136.345000", "114137.835000", "114139.325000", "114140.815000", "114142.305000", "114143.795000", "114145.285000", "114146.775000", "114148.265000", "114149.755000", "114151.245000", "114152.735000", "114154.225000", "114155.715000", "114157.205000", "114158.695000", "114200.185000", "114201.675000", "114203.165000", "114204.655000", "114206.145000", "114207.635000", "114209.125000", "114210.615000", "114212.105000", "114213.595000", "114215.085000", "114216.575000", "114218.065000", "114219.555000", "114221.045000", "114222.535000", "114224.025000", "114225.515000", "114227.005000", "114228.495000", "114229.985000", "114231.475000", "114232.965000", "114234.455000", "114235.945000", "114237.435000", "114238.925000", "114240.415000", "114241.905000", "114243.395000", "114244.885000", "114246.375000", "114247.865000", "114249.355000", "114250.845000", "114252.335000", "114253.825000", "114255.315000", "114256.805000", "114258.295000", "114259.785000", "114301.275000", "114302.765000", "114304.255000", "114305.745000", "114307.235000", "114308.725000", "114310.215000", "114311.705000", "114313.195000", "114314.685000", "114316.175000", "114317.665000", "114319.155000", "114320.645000", "114322.135000", "114323.625000", "114325.115000", "114326.605000", "114328.095000", "114329.585000", "114331.075000", "114332.565000", "114334.055000", "114335.545000", "114337.035000", "114338.525000", "114340.015000", "114341.505000", "114342.995000", "114344.485000", "114345.975000", "114347.465000", "114348.955000", "114350.445000", "114351.935000", "114353.425000", "114354.915000", "114356.405000", "114357.895000", "114359.385000", "114400.875000", "114402.365000", "114403.855000", "114405.345000", "114406.835000", "114408.325000", "114409.815000", "114411.305000", "114412.795000", "114414.285000", "114415.775000", "114417.265000", "114418.755000", "114420.245000", "114421.735000", "114423.225000", "114424.715000", "114426.205000", "114427.695000", "114429.185000", "114430.675000", "114432.165000", "114433.655000", "114435.145000", "114436.635000", "114438.125000", "114439.615000", "114441.105000", "114442.595000", "114444.085000", "114445.575000", "114447.065000", "114448.555000", "114450.045000", "114451.535000", "114453.025000", "114454.515000", "114456.005000", "114457.495000", "114458.985000", "114500.475000", "114501.965000", "114503.455000", "114504.945000", "114506.435000", "114507.925000", "114509.415000", "114510.905000", "114512.395000", "114513.885000", "114515.375000", "114516.865000", "114518.355000", "114519.845000", "114521.335000", "114522.825000", "114524.315000", "114525.805000", "114527.295000", "114528.785000", "114530.275000", "114531.765000", "114533.255000", "114534.745000", "114536.235000", "114537.725000", "114539.215000", "114540.705000", "114542.195000", "114543.685000", "114545.175000", "114546.665000", "114548.155000", "114549.645000", "114551.135000", "114552.625000", "114554.115000", "114555.605000", "114557.095000", "114558.585000", "114600.075000", "114601.565000", "114603.055000", "114604.545000", "114606.035000", "114607.525000", "114609.015000", "114610.505000", "114611.995000", "114613.485000", "114614.975000", "114616.465000", "114617.955000", "114619.445000", "114620.935000", "114622.425000", "114623.915000", "114625.405000", "114626.895000", "114628.385000", "114629.875000", "114631.365000", "114632.855000", "114634.345000", "114635.835000", "114637.325000", "114638.815000", "114640.305000", "114641.795000", "114643.285000", "114644.775000", "114646.265000", "114647.755000", "114649.245000", "114650.735000", "114652.225000", "114653.715000", "114655.205000", "114656.695000", "114658.185000", "114659.675000", "114701.165000", "114702.655000", "114704.145000", "114705.635000", "114707.125000", "114708.615000", "114710.105000", "114711.595000", "114713.085000", "114714.575000", "114716.065000", "114717.555000", "114719.045000", "114720.535000", "114722.025000", "114723.515000", "114725.005000", "114726.495000", "114727.985000", "114729.475000", "114730.965000", "114732.455000", "114733.945000", "114735.435000", "114736.925000", "114738.415000", "114739.905000", "114741.395000", "114742.885000", "114744.375000", "114745.865000", "114747.355000", "114748.845000", "114750.335000", "114751.825000", "114753.315000", "114754.805000", "114756.295000", "114757.785000", "114759.275000", "114800.765000", "114802.255000", "114803.745000", "114805.235000", "114806.725000", "114808.215000", "114809.705000", "114811.195000", "114812.685000", "114814.175000", "114815.665000", "114817.155000", "114818.645000", "114820.135000", "114821.625000", "114823.115000", "114824.605000", "114826.095000", "114827.585000", "114829.075000"],
      "ContentTime": ["113648.691000", "113648.695000", "113648.698000", "113648.700000", "113648.703000", "113648.706000", "113648.709000", "113648.712000", "113648.715000", "113648.718000", "113648.721000", "113648.724000", "113648.733000", "113648.736000", "113648.739000", "113648.742000", "113648.745000", "113648.748000", "113648.750000", "113648.761000", "113648.764000", "113648.767000", "113708.658000", "113708.661000", "113708.664000", "113708.667000", "113708.670000", "113708.673000", "113708.676000", "113708.679000", "113708.688000", "113708.691000", "113708.694000", "113708.698000", "113708.701000", "113708.704000", "113708.706000", "113708.709000", "113708.712000", "113708.715000", "113708.718000", "113708.721000", "113708.724000", "113728.658000", "113728.661000", "113728.664000", "113728.667000", "113728.678000", "113728.681000", "113728.683000", "113728.686000", "113728.689000", "113728.692000", "113728.695000", "113728.698000", "113728.701000", "113728.704000", "113728.707000", "113728.710000", "113728.713000", "113728.716000", "113728.718000", "113728.721000", "113748.658000", "113748.661000", "113748.664000", "113748.667000", "113748.670000", "113748.673000", "113748.676000", "113748.679000", "113748.682000", "113748.684000", "113748.687000", "113748.690000", "113748.693000", "113748.696000", "113748.699000", "113748.702000", "113748.705000", "113748.708000", "113748.710000", "113748.713000", "113808.658000", "113808.661000", "113808.664000", "113808.667000", "113808.670000", "113808.673000", "113808.676000", "113808.679000", "113808.682000", "113808.684000", "113808.687000", "113808.690000", "113808.693000", "113808.696000", "113808.699000", "113808.702000", "113808.705000", "113808.708000", "113808.711000", "113808.714000", "113848.658000", "113848.661000", "113848.664000", "113848.667000", "113848.670000", "113848.673000", "113848.676000", "113848.679000", "113848.681000", "113848.684000", "113848.687000", "113848.690000", "113848.693000", "113848.696000", "113848.699000", "113848.702000", "113848.705000", "113848.708000", "113848.711000", "113848.714000", "113848.717000", "113848.719000", "113848.722000", "113848.725000", "113848.728000", "113848.731000", "113848.734000", "113848.737000", "113848.740000", "113928.658000", "113928.661000", "113928.664000", "113928.667000", "113928.670000", "113928.673000", "113928.676000", "113928.679000", "113928.682000", "113928.684000", "113928.706000", "113928.709000", "113928.712000", "113928.715000", "113928.718000", "113928.721000", "113928.724000", "113928.727000", "113928.737000", "113928.740000", "113928.743000", "113928.746000", "113928.749000", "113928.752000", "113928.755000", "113928.758000", "113928.761000", "114008.658000", "114008.661000", "114008.664000", "114008.667000", "114008.670000", "114008.673000", "114008.676000", "114008.679000", "114008.682000", "114008.685000", "114008.688000", "114008.691000", "114008.693000", "114008.696000", "114008.699000", "114008.702000", "114008.705000", "114008.708000", "114008.711000", "114008.714000", "114008.717000", "114008.720000", "114008.723000", "114008.726000", "114008.729000", "114008.732000", "114008.735000", "114048.658000", "114048.661000", "114048.664000", "114048.667000", "114048.670000", "114048.673000", "114048.676000", "114048.679000", "114048.682000", "114048.685000", "114048.688000", "114048.691000", "114048.694000", "114048.703000", "114048.706000", "114048.709000", "114048.712000", "114048.715000", "114048.718000", "114048.720000", "114048.723000", "114048.726000", "114048.729000", "114048.732000", "114048.735000", "114048.738000", "114048.741000", "114128.659000", "114128.662000", "114128.665000", "114128.668000", "114128.671000", "114128.674000", "114128.677000", "114128.680000", "114128.683000", "114128.686000", "114128.689000", "114128.692000", "114128.695000", "114128.698000", "114128.700000", "114128.703000", "114128.706000", "114128.709000", "114128.712000", "114128.715000", "114128.718000", "114128.721000", "114128.724000", "114128.727000", "114128.730000", "114128.733000", "114128.736000", "114208.658000", "114208.661000", "114208.664000", "114208.667000", "114208.670000", "114208.673000", "114208.676000", "114208.679000", "114208.682000", "114208.685000", "114208.688000", "114208.691000", "114208.694000", "114208.697000", "114208.700000", "114208.703000", "114208.706000", "114208.709000", "114208.712000", "114208.714000", "114208.726000", "114208.729000", "114208.732000", "114208.735000", "114208.739000", "114208.742000", "114248.658000", "114248.661000", "114248.664000", "114248.667000", "114248.670000", "114248.673000", "114248.676000", "114248.679000", "114248.682000", "114248.685000", "114248.688000", "114248.691000", "114248.694000", "114248.697000", "114248.700000", "114248.703000", "114248.706000", "114248.708000", "114248.711000", "114248.714000", "114248.717000", "114248.720000", "114248.723000", "114248.726000", "114248.729000", "114248.732000", "114248.735000", "114308.658000", "114308.661000", "114308.664000", "114308.667000", "114308.670000", "114308.673000", "114308.676000", "114308.679000", "114308.682000", "114308.685000", "114308.688000", "114308.691000", "114308.694000", "114308.697000", "114348.659000", "114348.662000", "114348.665000", "114348.668000", "114348.671000", "114348.674000", "114348.677000", "114348.680000", "114348.683000", "114348.686000", "114348.689000", "114348.692000", "114348.695000", "114348.698000", "114348.725000", "114348.728000", "114348.731000", "114348.734000", "114348.737000", "114348.740000", "114348.743000", "114348.746000", "114348.749000", "114348.751000", "114348.754000", "114348.757000", "114348.760000", "114428.658000", "114428.661000", "114428.664000", "114428.667000", "114428.670000", "114428.673000", "114428.677000", "114428.680000", "114428.683000", "114428.686000", "114428.689000", "114428.692000", "114428.694000", "114428.697000", "114428.700000", "114428.703000", "114428.706000", "114428.709000", "114428.712000", "114428.715000", "114428.718000", "114428.721000", "114428.731000", "114428.734000", "114428.737000", "114428.740000", "114508.658000", "114508.661000", "114508.664000", "114508.667000", "114508.670000", "114508.673000", "114508.676000", "114508.679000", "114508.682000", "114508.685000", "114508.688000", "114508.691000", "114508.694000", "114508.697000", "114508.700000", "114508.703000", "114508.706000", "114508.709000", "114508.712000", "114508.715000", "114508.718000", "114508.721000", "114508.724000", "114508.727000", "114508.729000", "114508.732000", "114508.735000", "114548.658000", "114548.661000", "114548.664000", "114548.667000", "114548.670000", "114548.673000", "114548.676000", "114548.678000", "114548.681000", "114548.684000", "114548.687000", "114548.690000", "114548.693000", "114548.696000", "114548.700000", "114548.703000", "114548.705000", "114548.708000", "114548.711000", "114548.714000", "114548.717000", "114548.720000", "114548.723000", "114548.726000", "114548.729000", "114548.732000", "114548.735000", "114628.658000", "114628.661000", "114628.664000", "114628.667000", "114628.670000", "114628.673000", "114628.676000", "114628.679000", "114628.682000", "114628.685000", "114628.688000", "114628.691000", "114628.694000", "114628.697000", "114628.699000", "114628.702000", "114628.705000", "114628.708000", "114628.711000", "114628.714000", "114628.717000", "114628.720000", "114628.723000", "114628.726000", "114628.729000", "114628.732000", "114628.735000", "114708.658000", "114708.661000", "114708.664000", "114708.667000", "114708.670000", "114708.673000", "114708.676000", "114708.679000", "114708.682000", "114708.685000", "114708.688000", "114708.691000", "114708.694000", "114708.697000", "114708.700000", "114708.703000", "114708.706000", "114708.709000", "114708.712000", "114708.715000", "114708.718000", "114708.721000", "114708.724000", "114708.727000", "114708.730000", "114708.733000", "114708.736000", "114748.658000", "114748.661000", "114748.664000", "114748.667000", "114748.670000", "114748.673000", "114748.676000", "114748.679000", "114748.682000", "114748.685000", "114748.688000", "114748.691000", "114748.694000", "114748.697000", "114748.700000", "114748.703000", "114748.706000", "114748.709000", "114748.712000", "114748.715000", "114748.718000", "114748.721000", "114748.724000", "114748.727000", "114748.730000", "114748.733000", "114748.735000", "114828.659000", "114828.662000", "114828.665000", "114828.669000", "114828.672000", "114828.675000", "114828.678000", "114828.681000", "114828.684000", "114828.687000", "114828.690000", "114828.694000", "114828.697000", "114828.700000", "114828.703000", "114828.706000", "114828.709000", "114828.712000", "114828.715000", "114828.718000", "114828.721000", "114828.724000", "114828.727000", "114828.730000", "114828.733000", "114828.736000", "114831.722000", "114831.725000", "114831.728000"],
