{
  "AcquisitionMatrixPE": 104,
  "AcquisitionNumber": 1,
  "AcquisitionTime": "11:10:22.572500",
  "BandwidthPerPixelPhaseEncode": 17.17,
  "BaseResolution": 104,
  "BodyPartExamined": "BRAIN",
  "CoilString": "HC1-7;NC1_2",
  "ConsistencyInfo": "N4_VE11C_LATEST_20160120",
  "ConversionSoftware": "dcm2niix",
  "ConversionSoftwareVersion": "v1.0.20190902",
  "DerivedVendorReportedEchoSpacing": 0.000560011,
  "DeviceSerialNumber": "167006",
  "DwellTime": 2.1e-06,
  "EchoTime": 0.037,
  "EchoTrainLength": 104,
  "EffectiveEchoSpacing": 0.000560011,
  "FlipAngle": 52,
  "ImageComments": "Unaliased_MB4_PE3_LB",
  "ImageOrientationPatientDICOM": [0.998806, 0.0250312, 0.0419444, -0.00889076, 0.937534, -0.347781],
  "ImageType": [
    "ORIGINAL",
    "PRIMARY",
    "M",
    "MB",
    "ND",
    "MOSAIC"
],
  "ImagingFrequency": 123.259,
  "InPlanePhaseEncodingDirectionDICOM": "COL",
  "InstitutionAddress": "Chemin_Queen-Mary_4565_Montreal_District_CA_H3W_1W5",
  "InstitutionName": "IUGM",
  "InstitutionalDepartmentName": "Department",
  "MRAcquisitionType": "2D",
  "MagneticFieldStrength": 3,
  "Manufacturer": "Siemens",
  "ManufacturersModelName": "Prisma_fit",
  "Modality": "MR",
  "MultibandAccelerationFactor": 4,
  "PartialFourier": 1,
  "PatientPosition": "HFS",
  "PercentPhaseFOV": 100,
  "PhaseEncodingDirection": "j",
  "PhaseEncodingSteps": 104,
  "PhaseResolution": 1,
  "PixelBandwidth": 2290,
  "ProcedureStepDescription": "video_friends",
  "ProtocolName": "func_task-friends-s05e03b",
  "PulseSequenceDetails": "%CustomerSeq%_cmrr_mbep2d_bold",
  "ReceiveCoilActiveElements": "HC1-7;NC1,2",
  "ReceiveCoilName": "HeadNeck_64",
  "ReconMatrixPE": 104,
  "RepetitionTime": 1.49,
  "SAR": 0.0381506,
  "ScanOptions": "FS",
  "ScanningSequence": "EP",
  "SequenceName": "epfid2d1_104",
  "SequenceVariant": "SK_SS",
  "SeriesDescription": "func_task-friends-s05e03b",
  "SeriesNumber": 13,
  "ShimSetting": [650, -7187, -8836, 733, 139, 14, 60, -5],
  "SliceThickness": 2,
  "SliceTiming": [0, 0.785, 0.0975, 0.8825, 0.1975, 0.98, 0.295, 1.0775, 0.3925, 1.1775, 0.49, 1.275, 0.5875, 1.3725, 0.6875, 0, 0.785, 0.0975, 0.8825, 0.1975, 0.98, 0.295, 1.0775, 0.3925, 1.1775, 0.49, 1.275, 0.5875, 1.3725, 0.6875, 0, 0.785, 0.0975, 0.8825, 0.1975, 0.98, 0.295, 1.0775, 0.3925, 1.1775, 0.49, 1.275, 0.5875, 1.3725, 0.6875, 0, 0.785, 0.0975, 0.8825, 0.1975, 0.98, 0.295, 1.0775, 0.3925, 1.1775, 0.49, 1.275, 0.5875, 1.3725, 0.6875],
  "SoftwareVersions": "syngo_MR_E11",
  "SpacingBetweenSlices": 2,
  "StationName": "MRC35049",
  "TaskName": "s05e03b",
  "TotalReadoutTime": 0.0576811,
  "TxRefAmp": 248.361,
  "WipMemBlock": "cffc287c-8d71-4680-b1be-91577447c2bd||Sequence: R016 ve11c/master r/e634e98; Dec 19 2017 11:00:25 by eja",
  "dcmmeta_affine": [
    [-1.997612714767456, -0.01778152771294117, 0.09605930745601654, 101.67733764648438],
    [-0.050062425434589386, 1.8750673532485962, -0.6939855813980103, -66.94389343261719],
    [0.08388877660036087, 0.6955617070198059, 1.873274326324463, -68.858154296875],
    [0.0, 0.0, 0.0, 1.0]
],
  "dcmmeta_reorient_transform": [
    [0.0, -1.0, 0.0, 103.0],
    [1.0, 0.0, 0.0, 0.0],
    [0.0, 0.0, 1.0, 0.0],
    [0.0, 0.0, 0.0, 1.0]
],
  "dcmmeta_shape": [104, 104, 60, 474],
  "dcmmeta_slice_dim": 2,
  "dcmmeta_version": 0.6,
  "global": {
    "const": {
      "AcquisitionMatrix": [104, 0, 0, 104],
      "AngioFlag": "N",
      "BitsAllocated": 16,
      "BitsStored": 16,
      "BodyPartExamined": "BRAIN",
      "Columns": 832,
      "EchoNumbers": 1,
      "EchoTime": 37.0,
      "EchoTrainLength": 104,
      "FlipAngle": 52.0,
      "HighBit": 15,
      "ImageOrientationPatient": [0.99880634088193, 0.02503121337576, 0.04194438902868, -0.0088907636975, 0.937533700696, -0.347780842457],
      "ImagePositionPatient": [-820.50438421227, -826.93530733583, 225.43363997628],
      "ImageType": [
        "ORIGINAL",
        "PRIMARY",
        "M",
        "MB",
        "ND",
        "MOSAIC"
],
      "ImagedNucleus": "1H",
      "ImagingFrequency": 123.25899,
      "InPlanePhaseEncodingDirection": "COL",
      "MRAcquisitionType": "2D",
      "MagneticFieldStrength": 3.0,
      "Manufacturer": "SIEMENS",
      "ManufacturerModelName": "Prisma_fit",
      "Modality": "MR",
      "NumberOfAverages": 1.0,
      "NumberOfPhaseEncodingSteps": 104,
      "PercentPhaseFieldOfView": 100.0,
      "PercentSampling": 100.0,
      "PerformedProcedureStepStartTime": "104001.621000",
      "PhotometricInterpretation": "MONOCHROME2",
      "PixelBandwidth": 2290.0,
      "PixelRepresentation": 0,
      "PixelSpacing": [2.0, 2.0],
      "ProtocolName": "func_task-friends-s05e03b",
      "RepetitionTime": 1490.0,
      "Rows": 832,
      "SAR": 0.03815058668303,
      "SamplesPerPixel": 1,
      "ScanOptions": "FS",
      "ScanningSequence": "EP",
      "SequenceName": "epfid2d1_104",
      "SequenceVariant": [
        "SK",
        "SS"
],
      "SeriesDescription": "func_task-friends-s05e03b",
      "SeriesNumber": 13,
      "SeriesTime": "111148.602000",
      "SliceLocation": -36.382527225574,
      "SliceThickness": 2.0,
      "SmallestImagePixelValue": 0,
      "SoftwareVersions": "syngo MR E11",
      "SpacingBetweenSlices": 1.9999999744695,
      "SpecificCharacterSet": "ISO_IR 100",
      "StudyID": "1",
      "StudyTime": "104001.509000",
      "TransmitCoilName": "Body",
      "VariableFlipAngleFlag": "N",
      "WindowCenterWidthExplanation": "Algo1",
      "dBdt": 0.0},
    "slices": {}
  },
  "time": {
    "samples": {
      "AcquisitionNumber": [1, 2, 3, 4, 5, 6, 7, 8, 9, 10, 11, 12, 13, 14, 15, 16, 17, 18, 19, 20, 21, 22, 23, 24, 25, 26, 27, 28, 29, 30, 31, 32, 33, 34, 35, 36, 37, 38, 39, 40, 41, 42, 43, 44, 45, 46, 47, 48, 49, 50, 51, 52, 53, 54, 55, 56, 57, 58, 59, 60, 61, 62, 63, 64, 65, 66, 67, 68, 69, 70, 71, 72, 73, 74, 75, 76, 77, 78, 79, 80, 81, 82, 83, 84, 85, 86, 87, 88, 89, 90, 91, 92, 93, 94, 95, 96, 97, 98, 99, 100, 101, 102, 103, 104, 105, 106, 107, 108, 109, 110, 111, 112, 113, 114, 115, 116, 117, 118, 119, 120, 121, 122, 123, 124, 125, 126, 127, 128, 129, 130, 131, 132, 133, 134, 135, 136, 137, 138, 139, 140, 141, 142, 143, 144, 145, 146, 147, 148, 149, 150, 151, 152, 153, 154, 155, 156, 157, 158, 159, 160, 161, 162, 163, 164, 165, 166, 167, 168, 169, 170, 171, 172, 173, 174, 175, 176, 177, 178, 179, 180, 181, 182, 183, 184, 185, 186, 187, 188, 189, 190, 191, 192, 193, 194, 195, 196, 197, 198, 199, 200, 201, 202, 203, 204, 205, 206, 207, 208, 209, 210, 211, 212, 213, 214, 215, 216, 217, 218, 219, 220, 221, 222, 223, 224, 225, 226, 227, 228, 229, 230, 231, 232, 233, 234, 235, 236, 237, 238, 239, 240, 241, 242, 243, 244, 245, 246, 247, 248, 249, 250, 251, 252, 253, 254, 255, 256, 257, 258, 259, 260, 261, 262, 263, 264, 265, 266, 267, 268, 269, 270, 271, 272, 273, 274, 275, 276, 277, 278, 279, 280, 281, 282, 283, 284, 285, 286, 287, 288, 289, 290, 291, 292, 293, 294, 295, 296, 297, 298, 299, 300, 301, 302, 303, 304, 305, 306, 307, 308, 309, 310, 311, 312, 313, 314, 315, 316, 317, 318, 319, 320, 321, 322, 323, 324, 325, 326, 327, 328, 329, 330, 331, 332, 333, 334, 335, 336, 337, 338, 339, 340, 341, 342, 343, 344, 345, 346, 347, 348, 349, 350, 351, 352, 353, 354, 355, 356, 357, 358, 359, 360, 361, 362, 363, 364, 365, 366, 367, 368, 369, 370, 371, 372, 373, 374, 375, 376, 377, 378, 379, 380, 381, 382, 383, 384, 385, 386, 387, 388, 389, 390, 391, 392, 393, 394, 395, 396, 397, 398, 399, 400, 401, 402, 403, 404, 405, 406, 407, 408, 409, 410, 411, 412, 413, 414, 415, 416, 417, 418, 419, 420, 421, 422, 423, 424, 425, 426, 427, 428, 429, 430, 431, 432, 433, 434, 435, 436, 437, 438, 439, 440, 441, 442, 443, 444, 445, 446, 447, 448, 449, 450, 451, 452, 453, 454, 455, 456, 457, 458, 459, 460, 461, 462, 463, 464, 465, 466, 467, 468, 469, 470, 471, 472, 473, 474],
      "AcquisitionTime": ["111022.572500", "111024.062500", "111025.552500", "111027.042500", "111028.532500", "111030.022500", "111031.512500", "111033.002500", "111034.492500", "111035.982500", "111037.472500", "111038.962500", "111040.452500", "111041.942500", "111043.432500", "111044.922500", "111046.412500", "111047.902500", "111049.392500", "111050.882500", "111052.372500", "111053.862500", "111055.352500", "111056.842500", "111058.332500", "111059.822500", "111101.312500", "111102.802500", "111104.292500", "111105.782500", "111107.272500", "111108.762500", "111110.252500", "111111.742500", "111113.232500", "111114.722500", "111116.212500", "111117.702500", "111119.192500", "111120.682500", "111122.172500", "111123.662500", "111125.152500", "111126.642500", "111128.132500", "111129.622500", "111131.112500", "111132.602500", "111134.092500", "111135.582500", "111137.072500", "111138.562500", "111140.052500", "111141.542500", "111143.032500", "111144.522500", "111146.012500", "111147.502500", "111148.992500", "111150.482500", "111151.972500", "111153.462500", "111154.952500", "111156.442500", "111157.932500", "111159.422500", "111200.912500", "111202.402500", "111203.892500", "111205.382500", "111206.872500", "111208.362500", "111209.852500", "111211.342500", "111212.832500", "111214.322500", "111215.812500", "111217.302500", "111218.792500", "111220.282500", "111221.772500", "111223.262500", "111224.752500", "111226.242500", "111227.732500", "111229.222500", "111230.712500", "111232.202500", "111233.692500", "111235.182500", "111236.672500", "111238.162500", "111239.652500", "111241.142500", "111242.632500", "111244.122500", "111245.612500", "111247.102500", "111248.592500", "111250.082500", "111251.572500", "111253.062500", "111254.552500", "111256.042500", "111257.532500", "111259.022500", "111300.512500", "111302.002500", "111303.492500", "111304.982500", "111306.472500", "111307.962500", "111309.452500", "111310.942500", "111312.432500", "111313.922500", "111315.412500", "111316.902500", "111318.392500", "111319.882500", "111321.372500", "111322.862500", "111324.352500", "111325.842500", "111327.332500", "111328.822500", "111330.312500", "111331.802500", "111333.292500", "111334.782500", "111336.272500", "111337.762500", "111339.252500", "111340.742500", "111342.232500", "111343.722500", "111345.212500", "111346.702500", "111348.192500", "111349.682500", "111351.172500", "111352.662500", "111354.152500", "111355.642500", "111357.132500", "111358.622500", "111400.112500", "111401.602500", "111403.092500", "111404.582500", "111406.072500", "111407.562500", "111409.052500", "111410.542500", "111412.032500", "111413.522500", "111415.012500", "111416.502500", "111417.992500", "111419.482500", "111420.972500", "111422.462500", "111423.952500", "111425.442500", "111426.932500", "111428.422500", "111429.912500", "111431.402500", "111432.892500", "111434.382500", "111435.872500", "111437.362500", "111438.852500", "111440.342500", "111441.832500", "111443.322500", "111444.812500", "111446.302500", "111447.792500", "111449.282500", "111450.772500", "111452.262500", "111453.752500", "111455.242500", "111456.732500", "111458.222500", "111459.712500", "111501.202500", "111502.692500", "111504.182500", "111505.672500", "111507.162500", "111508.652500", "111510.142500", "111511.632500", "111513.122500", "111514.612500", "111516.102500", "111517.592500", "111519.082500", "111520.572500", "111522.062500", "111523.552500", "111525.042500", "111526.532500", "111528.022500", "111529.512500", "111531.002500", "111532.492500", "111533.982500", "111535.472500", "111536.962500", "111538.452500", "111539.942500", "111541.432500", "111542.922500", "111544.412500", "111545.902500", "111547.392500", "111548.882500", "111550.372500", "111551.862500", "111553.352500", "111554.842500", "111556.332500", "111557.822500", "111559.312500", "111600.802500", "111602.292500", "111603.782500", "111605.272500", "111606.762500", "111608.252500", "111609.742500", "111611.232500", "111612.722500", "111614.212500", "111615.702500", "111617.192500", "111618.682500", "111620.172500", "111621.662500", "111623.152500", "111624.642500", "111626.132500", "111627.622500", "111629.112500", "111630.602500", "111632.092500", "111633.582500", "111635.072500", "111636.562500", "111638.052500", "111639.542500", "111641.032500", "111642.522500", "111644.012500", "111645.502500", "111646.992500", "111648.482500", "111649.972500", "111651.462500", "111652.952500", "111654.442500", "111655.932500", "111657.422500", "111658.912500", "111700.402500", "111701.892500", "111703.382500", "111704.872500", "111706.362500", "111707.852500", "111709.342500", "111710.832500", "111712.322500", "111713.812500", "111715.302500", "111716.792500", "111718.282500", "111719.772500", "111721.262500", "111722.752500", "111724.242500", "111725.732500", "111727.222500", "111728.712500", "111730.202500", "111731.692500", "111733.182500", "111734.672500", "111736.162500", "111737.652500", "111739.142500", "111740.632500", "111742.122500", "111743.612500", "111745.102500", "111746.592500", "111748.082500", "111749.572500", "111751.062500", "111752.552500", "111754.042500", "111755.532500", "111757.022500", "111758.512500", "111800.002500", "111801.492500", "111802.982500", "111804.472500", "111805.962500", "111807.452500", "111808.942500", "111810.432500", "111811.922500", "111813.412500", "111814.902500", "111816.392500", "111817.882500", "111819.372500", "111820.862500", "111822.352500", "111823.842500", "111825.332500", "111826.822500", "111828.312500", "111829.802500", "111831.292500", "111832.782500", "111834.272500", "111835.762500", "111837.252500", "111838.742500", "111840.232500", "111841.722500", "111843.212500", "111844.702500", "111846.192500", "111847.682500", "111849.172500", "111850.662500", "111852.152500", "111853.642500", "111855.132500", "111856.622500", "111858.112500", "111859.602500", "111901.092500", "111902.582500", "111904.072500", "111905.562500", "111907.052500", "111908.542500", "111910.032500", "111911.522500", "111913.012500", "111914.502500", "111915.992500", "111917.482500", "111918.972500", "111920.462500", "111921.952500", "111923.442500", "111924.932500", "111926.422500", "111927.912500", "111929.402500", "111930.892500", "111932.382500", "111933.872500", "111935.362500", "111936.852500", "111938.342500", "111939.832500", "111941.322500", "111942.812500", "111944.302500", "111945.792500", "111947.282500", "111948.772500", "111950.262500", "111951.752500", "111953.242500", "111954.732500", "111956.222500", "111957.712500", "111959.202500", "112000.692500", "112002.182500", "112003.672500", "112005.162500", "112006.652500", "112008.142500", "112009.632500", "112011.122500", "112012.612500", "112014.102500", "112015.592500", "112017.082500", "112018.572500", "112020.062500", "112021.552500", "112023.042500", "112024.532500", "112026.022500", "112027.512500", "112029.002500", "112030.492500", "112031.982500", "112033.472500", "112034.962500", "112036.452500", "112037.942500", "112039.432500", "112040.922500", "112042.412500", "112043.902500", "112045.392500", "112046.882500", "112048.372500", "112049.862500", "112051.352500", "112052.842500", "112054.332500", "112055.822500", "112057.312500", "112058.802500", "112100.292500", "112101.782500", "112103.272500", "112104.762500", "112106.252500", "112107.742500", "112109.232500", "112110.722500", "112112.212500", "112113.702500", "112115.192500", "112116.682500", "112118.172500", "112119.662500", "112121.152500", "112122.642500", "112124.132500", "112125.622500", "112127.112500", "112128.602500", "112130.092500", "112131.582500", "112133.072500", "112134.562500", "112136.052500", "112137.542500", "112139.032500", "112140.522500", "112142.012500", "112143.502500", "112144.992500", "112146.482500", "112147.972500", "112149.462500", "112150.952500", "112152.442500", "112153.932500", "112155.422500", "112156.912500", "112158.402500", "112159.892500", "112201.382500", "112202.872500", "112204.362500", "112205.852500", "112207.342500"],
      "ContentTime": ["111148.605000", "111148.608000", "111148.616000", "111148.619000", "111148.622000", "111148.625000", "111148.631000", "111148.634000", "111148.637000", "111148.640000", "111148.643000", "111148.646000", "111148.649000", "111148.652000", "111148.655000", "111148.658000", "111148.664000", "111148.667000", "111148.670000", "111148.672000", "111148.675000", "111148.678000", "111148.681000", "111148.684000", "111148.687000", "111208.577000", "111208.580000", "111208.583000", "111208.586000", "111208.589000", "111208.592000", "111208.600000", "111208.603000", "111208.606000", "111208.609000", "111208.612000", "111208.614000", "111208.617000", "111208.620000", "111208.623000", "111208.626000", "111208.629000", "111208.632000", "111208.635000", "111208.638000", "111228.577000", "111228.580000", "111228.583000", "111228.586000", "111228.589000", "111228.592000", "111228.595000", "111228.603000", "111228.606000", "111228.609000", "111228.612000", "111228.615000", "111228.617000", "111228.620000", "111228.623000", "111228.626000", "111228.629000", "111228.639000", "111228.642000", "111228.645000", "111248.577000", "111248.580000", "111248.583000", "111248.586000", "111248.589000", "111248.592000", "111248.595000", "111248.598000", "111248.600000", "111248.603000", "111248.606000", "111248.609000", "111248.612000", "111248.615000", "111248.618000", "111248.621000", "111248.624000", "111248.627000", "111248.630000", "111248.633000", "111308.577000", "111308.580000", "111308.583000", "111308.586000", "111308.589000", "111308.592000", "111308.595000", "111308.597000", "111308.600000", "111308.603000", "111308.606000", "111308.609000", "111308.612000", "111308.615000", "111308.618000", "111308.621000", "111308.624000", "111308.627000", "111308.630000", "111308.633000", "111348.577000", "111348.580000", "111348.583000", "111348.586000", "111348.589000", "111348.592000", "111348.595000", "111348.597000", "111348.600000", "111348.603000", "111348.606000", "111348.609000", "111348.612000", "111348.615000", "111348.618000", "111348.621000", "111348.624000", "111348.627000", "111348.630000", "111348.641000", "111348.644000", "111348.647000", "111348.650000", "111348.653000", "111348.656000", "111348.659000", "111348.662000", "111348.665000", "111348.668000", "111348.671000", "111348.674000", "111348.677000", "111428.577000", "111428.580000", "111428.583000", "111428.595000", "111428.598000", "111428.602000", "111428.604000", "111428.607000", "111428.610000", "111428.616000", "111428.619000", "111428.622000", "111428.625000", "111428.628000", "111428.631000", "111428.634000", "111428.637000", "111428.640000", "111428.643000", "111428.646000", "111428.649000", "111428.652000", "111428.655000", "111428.658000", "111428.661000", "111428.664000", "111428.667000", "111508.577000", "111508.580000", "111508.583000", "111508.586000", "111508.589000", "111508.592000", "111508.595000", "111508.598000", "111508.601000", "111508.604000", "111508.607000", "111508.610000", "111508.613000", "111508.615000", "111508.618000", "111508.621000", "111508.624000", "111508.627000", "111508.630000", "111508.633000", "111508.636000", "111508.639000", "111508.642000", "111508.645000", "111508.648000", "111508.651000", "111508.654000", "111548.577000", "111548.580000", "111548.583000", "111548.586000", "111548.589000", "111548.592000", "111548.595000", "111548.598000", "111548.601000", "111548.604000", "111548.607000", "111548.609000", "111548.612000", "111548.615000", "111548.618000", "111548.630000", "111548.633000", "111548.636000", "111548.639000", "111548.642000", "111548.645000", "111548.648000", "111548.651000", "111548.653000", "111548.656000", "111548.659000", "111548.662000", "111628.577000", "111628.580000", "111628.583000", "111628.606000", "111628.609000", "111628.612000", "111628.615000", "111628.617000", "111628.620000", "111628.623000", "111628.626000", "111628.629000", "111628.632000", "111628.635000", "111628.638000", "111628.641000", "111628.644000", "111628.647000", "111628.650000", "111628.653000", "111628.656000", "111628.659000", "111628.662000", "111628.665000", "111628.667000", "111628.670000", "111628.673000", "111708.577000", "111708.580000", "111708.583000", "111708.586000", "111708.589000", "111708.592000", "111708.595000", "111708.598000", "111708.601000", "111708.604000", "111708.607000", "111708.610000", "111708.612000", "111708.615000", "111708.618000", "111708.621000", "111708.624000", "111708.627000", "111708.630000", "111708.633000", "111708.636000", "111708.639000", "111708.642000", "111708.645000", "111708.650000", "111708.653000", "111748.577000", "111748.580000", "111748.583000", "111748.586000", "111748.589000", "111748.592000", "111748.595000", "111748.598000", "111748.601000", "111748.604000", "111748.607000", "111748.609000", "111748.612000", "111748.615000", "111748.618000", "111748.621000", "111748.624000", "111748.627000", "111748.630000", "111748.640000", "111748.642000", "111748.645000", "111748.648000", "111748.651000", "111748.654000", "111748.657000", "111748.660000", "111828.577000", "111828.580000", "111828.583000", "111828.586000", "111828.589000", "111828.592000", "111828.595000", "111828.598000", "111828.601000", "111828.604000", "111828.607000", "111828.610000", "111828.612000", "111828.615000", "111828.627000", "111828.630000", "111828.632000", "111828.635000", "111828.638000", "111828.641000", "111828.644000", "111828.647000", "111828.650000", "111828.653000", "111828.656000", "111828.659000", "111828.662000", "111908.577000", "111908.580000", "111908.583000", "111908.586000", "111908.589000", "111908.592000", "111908.595000", "111908.598000", "111908.601000", "111908.604000", "111908.607000", "111908.609000", "111908.612000", "111908.615000", "111908.618000", "111908.621000", "111908.624000", "111908.627000", "111908.630000", "111908.640000", "111908.643000", "111908.646000", "111908.649000", "111908.652000", "111908.655000", "111908.658000", "111908.661000", "111948.577000", "111948.580000", "111948.583000", "111948.586000", "111948.589000", "111948.592000", "111948.595000", "111948.598000", "111948.601000", "111948.604000", "111948.607000", "111948.610000", "111948.613000", "111948.616000", "111948.618000", "111948.621000", "111948.624000", "111948.627000", "111948.630000", "111948.633000", "111948.636000", "111948.639000", "111948.642000", "111948.645000", "111948.648000", "111948.651000", "111948.654000", "112028.577000", "112028.580000", "112028.583000", "112028.586000", "112028.589000", "112028.592000", "112028.595000", "112028.598000", "112028.601000", "112028.604000", "112028.607000", "112028.610000", "112028.613000", "112028.616000", "112028.619000", "112028.622000", "112028.624000", "112028.627000", "112028.630000", "112028.633000", "112028.636000", "112028.639000", "112028.642000", "112028.645000", "112028.648000", "112028.651000", "112028.664000", "112108.577000", "112108.580000", "112108.583000", "112108.586000", "112108.589000", "112108.592000", "112108.595000", "112108.598000", "112108.601000", "112108.604000", "112108.607000", "112108.609000", "112108.612000", "112108.615000", "112108.618000", "112108.621000", "112108.624000", "112108.627000", "112108.630000", "112108.633000", "112108.636000", "112108.639000", "112108.642000", "112108.645000", "112108.648000", "112108.651000", "112108.654000", "112148.577000", "112148.580000", "112148.583000", "112148.586000", "112148.589000", "112148.592000", "112148.595000", "112148.598000", "112148.601000", "112148.604000", "112148.607000", "112148.610000", "112148.613000", "112148.616000", "112148.619000", "112148.622000", "112148.625000", "112148.628000", "112148.631000", "112148.634000", "112148.636000", "112148.639000", "112148.642000", "112148.645000", "112148.648000", "112148.651000", "112209.616000", "112209.619000", "112209.622000", "112209.625000", "112209.628000", "112209.631000", "112209.634000", "112209.637000", "112209.641000", "112209.644000", "112209.647000", "112209.650000", "112209.653000", "112209.656000", "112209.659000"],
