{
  "AcquisitionMatrixPE": 104,
  "AcquisitionNumber": 1,
  "AcquisitionTime": "10:58:35.715000",
  "BandwidthPerPixelPhaseEncode": 17.17,
  "BaseResolution": 104,
  "BodyPartExamined": "BRAIN",
  "CoilString": "HC1-7;NC1_2",
  "ConsistencyInfo": "N4_VE11C_LATEST_20160120",
  "ConversionSoftware": "dcm2niix",
  "ConversionSoftwareVersion": "v1.0.20190902",
  "DerivedVendorReportedEchoSpacing": 0.000560011,
  "DeviceSerialNumber": "167006",
  "DwellTime": 2.1e-06,
  "EchoTime": 0.037,
  "EchoTrainLength": 104,
  "EffectiveEchoSpacing": 0.000560011,
  "FlipAngle": 52,
  "ImageComments": "Unaliased_MB4_PE3_LB",
  "ImageOrientationPatientDICOM": [0.998806, 0.0250312, 0.0419444, -0.00889076, 0.937534, -0.347781],
  "ImageType": [
    "ORIGINAL",
    "PRIMARY",
    "M",
    "MB",
    "ND",
    "MOSAIC"
],
  "ImagingFrequency": 123.259,
  "InPlanePhaseEncodingDirectionDICOM": "COL",
  "InstitutionAddress": "Chemin_Queen-Mary_4565_Montreal_District_CA_H3W_1W5",
  "InstitutionName": "IUGM",
  "InstitutionalDepartmentName": "Department",
  "MRAcquisitionType": "2D",
  "MagneticFieldStrength": 3,
  "Manufacturer": "Siemens",
  "ManufacturersModelName": "Prisma_fit",
  "Modality": "MR",
  "MultibandAccelerationFactor": 4,
  "PartialFourier": 1,
  "PatientPosition": "HFS",
  "PercentPhaseFOV": 100,
  "PhaseEncodingDirection": "j",
  "PhaseEncodingSteps": 104,
  "PhaseResolution": 1,
  "PixelBandwidth": 2290,
  "ProcedureStepDescription": "video_friends",
  "ProtocolName": "func_task-friends-s05e03a",
  "PulseSequenceDetails": "%CustomerSeq%_cmrr_mbep2d_bold",
  "ReceiveCoilActiveElements": "HC1-7;NC1,2",
  "ReceiveCoilName": "HeadNeck_64",
  "ReconMatrixPE": 104,
  "RepetitionTime": 1.49,
  "SAR": 0.0381398,
  "ScanOptions": "FS",
  "ScanningSequence": "EP",
  "SequenceName": "epfid2d1_104",
  "SequenceVariant": "SK_SS",
  "SeriesDescription": "func_task-friends-s05e03a",
  "SeriesNumber": 11,
  "ShimSetting": [650, -7187, -8836, 733, 139, 14, 60, -5],
  "SliceThickness": 2,
  "SliceTiming": [0, 0.785, 0.0975, 0.8825, 0.195, 0.98, 0.295, 1.0775, 0.3925, 1.175, 0.49, 1.275, 0.5875, 1.3725, 0.685, 0, 0.785, 0.0975, 0.8825, 0.195, 0.98, 0.295, 1.0775, 0.3925, 1.175, 0.49, 1.275, 0.5875, 1.3725, 0.685, 0, 0.785, 0.0975, 0.8825, 0.195, 0.98, 0.295, 1.0775, 0.3925, 1.175, 0.49, 1.275, 0.5875, 1.3725, 0.685, 0, 0.785, 0.0975, 0.8825, 0.195, 0.98, 0.295, 1.0775, 0.3925, 1.175, 0.49, 1.275, 0.5875, 1.3725, 0.685],
  "SoftwareVersions": "syngo_MR_E11",
  "SpacingBetweenSlices": 2,
  "StationName": "MRC35049",
  "TaskName": "s05e03a",
  "TotalReadoutTime": 0.0576811,
  "TxRefAmp": 248.361,
  "WipMemBlock": "c9a63c9b-8015-46be-8aff-64404a4605d8||Sequence: R016 ve11c/master r/e634e98; Dec 19 2017 11:00:25 by eja",
  "dcmmeta_affine": [
    [-1.997612714767456, -0.01778152771294117, 0.09605930745601654, 101.67733764648438],
    [-0.050062425434589386, 1.8750673532485962, -0.6939855813980103, -66.94389343261719],
    [0.08388877660036087, 0.6955617070198059, 1.873274326324463, -68.858154296875],
    [0.0, 0.0, 0.0, 1.0]
],
  "dcmmeta_reorient_transform": [
    [0.0, -1.0, 0.0, 103.0],
    [1.0, 0.0, 0.0, 0.0],
    [0.0, 0.0, 1.0, 0.0],
    [0.0, 0.0, 0.0, 1.0]
],
  "dcmmeta_shape": [104, 104, 60, 444],
  "dcmmeta_slice_dim": 2,
  "dcmmeta_version": 0.6,
  "global": {
    "const": {
      "AcquisitionMatrix": [104, 0, 0, 104],
      "AngioFlag": "N",
      "BitsAllocated": 16,
      "BitsStored": 16,
      "BodyPartExamined": "BRAIN",
      "Columns": 832,
      "EchoNumbers": 1,
      "EchoTime": 37.0,
      "EchoTrainLength": 104,
      "FlipAngle": 52.0,
      "HighBit": 15,
      "ImageOrientationPatient": [0.99880634088193, 0.02503121337576, 0.04194438902868, -0.0088907636975, 0.937533700696, -0.347780842457],
      "ImagePositionPatient": [-820.50438421227, -826.93530733583, 225.43363997628],
      "ImageType": [
        "ORIGINAL",
        "PRIMARY",
        "M",
        "MB",
        "ND",
        "MOSAIC"
],
      "ImagedNucleus": "1H",
      "ImagingFrequency": 123.25898,
      "InPlanePhaseEncodingDirection": "COL",
      "MRAcquisitionType": "2D",
      "MagneticFieldStrength": 3.0,
      "Manufacturer": "SIEMENS",
      "ManufacturerModelName": "Prisma_fit",
      "Modality": "MR",
      "NumberOfAverages": 1.0,
      "NumberOfPhaseEncodingSteps": 104,
      "PercentPhaseFieldOfView": 100.0,
      "PercentSampling": 100.0,
      "PerformedProcedureStepStartTime": "104001.621000",
      "PhotometricInterpretation": "MONOCHROME2",
      "PixelBandwidth": 2290.0,
      "PixelRepresentation": 0,
      "PixelSpacing": [2.0, 2.0],
      "ProtocolName": "func_task-friends-s05e03a",
      "RepetitionTime": 1490.0,
      "Rows": 832,
      "SAR": 0.03813984926399,
      "SamplesPerPixel": 1,
      "ScanOptions": "FS",
      "ScanningSequence": "EP",
      "SequenceName": "epfid2d1_104",
      "SequenceVariant": [
        "SK",
        "SS"
],
      "SeriesDescription": "func_task-friends-s05e03a",
      "SeriesNumber": 11,
      "SeriesTime": "110008.693000",
      "SliceLocation": -36.382527225574,
      "SliceThickness": 2.0,
      "SmallestImagePixelValue": 0,
      "SoftwareVersions": "syngo MR E11",
      "SpacingBetweenSlices": 1.9999999744695,
      "SpecificCharacterSet": "ISO_IR 100",
      "StudyID": "1",
      "StudyTime": "104001.509000",
      "TransmitCoilName": "Body",
      "VariableFlipAngleFlag": "N",
      "WindowCenterWidthExplanation": "Algo1",
      "dBdt": 0.0},
    "slices": {}
  },
  "time": {
    "samples": {
      "AcquisitionNumber": [1, 2, 3, 4, 5, 6, 7, 8, 9, 10, 11, 12, 13, 14, 15, 16, 17, 18, 19, 20, 21, 22, 23, 24, 25, 26, 27, 28, 29, 30, 31, 32, 33, 34, 35, 36, 37, 38, 39, 40, 41, 42, 43, 44, 45, 46, 47, 48, 49, 50, 51, 52, 53, 54, 55, 56, 57, 58, 59, 60, 61, 62, 63, 64, 65, 66, 67, 68, 69, 70, 71, 72, 73, 74, 75, 76, 77, 78, 79, 80, 81, 82, 83, 84, 85, 86, 87, 88, 89, 90, 91, 92, 93, 94, 95, 96, 97, 98, 99, 100, 101, 102, 103, 104, 105, 106, 107, 108, 109, 110, 111, 112, 113, 114, 115, 116, 117, 118, 119, 120, 121, 122, 123, 124, 125, 126, 127, 128, 129, 130, 131, 132, 133, 134, 135, 136, 137, 138, 139, 140, 141, 142, 143, 144, 145, 146, 147, 148, 149, 150, 151, 152, 153, 154, 155, 156, 157, 158, 159, 160, 161, 162, 163, 164, 165, 166, 167, 168, 169, 170, 171, 172, 173, 174, 175, 176, 177, 178, 179, 180, 181, 182, 183, 184, 185, 186, 187, 188, 189, 190, 191, 192, 193, 194, 195, 196, 197, 198, 199, 200, 201, 202, 203, 204, 205, 206, 207, 208, 209, 210, 211, 212, 213, 214, 215, 216, 217, 218, 219, 220, 221, 222, 223, 224, 225, 226, 227, 228, 229, 230, 231, 232, 233, 234, 235, 236, 237, 238, 239, 240, 241, 242, 243, 244, 245, 246, 247, 248, 249, 250, 251, 252, 253, 254, 255, 256, 257, 258, 259, 260, 261, 262, 263, 264, 265, 266, 267, 268, 269, 270, 271, 272, 273, 274, 275, 276, 277, 278, 279, 280, 281, 282, 283, 284, 285, 286, 287, 288, 289, 290, 291, 292, 293, 294, 295, 296, 297, 298, 299, 300, 301, 302, 303, 304, 305, 306, 307, 308, 309, 310, 311, 312, 313, 314, 315, 316, 317, 318, 319, 320, 321, 322, 323, 324, 325, 326, 327, 328, 329, 330, 331, 332, 333, 334, 335, 336, 337, 338, 339, 340, 341, 342, 343, 344, 345, 346, 347, 348, 349, 350, 351, 352, 353, 354, 355, 356, 357, 358, 359, 360, 361, 362, 363, 364, 365, 366, 367, 368, 369, 370, 371, 372, 373, 374, 375, 376, 377, 378, 379, 380, 381, 382, 383, 384, 385, 386, 387, 388, 389, 390, 391, 392, 393, 394, 395, 396, 397, 398, 399, 400, 401, 402, 403, 404, 405, 406, 407, 408, 409, 410, 411, 412, 413, 414, 415, 416, 417, 418, 419, 420, 421, 422, 423, 424, 425, 426, 427, 428, 429, 430, 431, 432, 433, 434, 435, 436, 437, 438, 439, 440, 441, 442, 443, 444],
      "AcquisitionTime": ["105835.715000", "105837.205000", "105838.695000", "105840.185000", "105841.675000", "105843.165000", "105844.655000", "105846.145000", "105847.635000", "105849.125000", "105850.615000", "105852.105000", "105853.595000", "105855.085000", "105856.575000", "105858.065000", "105859.555000", "105901.045000", "105902.535000", "105904.025000", "105905.515000", "105907.005000", "105908.495000", "105909.985000", "105911.475000", "105912.965000", "105914.455000", "105915.945000", "105917.435000", "105918.925000", "105920.415000", "105921.905000", "105923.395000", "105924.885000", "105926.375000", "105927.865000", "105929.355000", "105930.845000", "105932.335000", "105933.825000", "105935.315000", "105936.805000", "105938.295000", "105939.785000", "105941.275000", "105942.765000", "105944.255000", "105945.745000", "105947.235000", "105948.725000", "105950.215000", "105951.705000", "105953.195000", "105954.685000", "105956.175000", "105957.665000", "105959.155000", "110000.645000", "110002.135000", "110003.625000", "110005.115000", "110006.605000", "110008.095000", "110009.585000", "110011.075000", "110012.565000", "110014.055000", "110015.545000", "110017.035000", "110018.525000", "110020.015000", "110021.505000", "110022.995000", "110024.485000", "110025.975000", "110027.465000", "110028.955000", "110030.445000", "110031.935000", "110033.425000", "110034.915000", "110036.405000", "110037.895000", "110039.385000", "110040.875000", "110042.365000", "110043.855000", "110045.345000", "110046.835000", "110048.325000", "110049.815000", "110051.305000", "110052.795000", "110054.285000", "110055.775000", "110057.265000", "110058.755000", "110100.245000", "110101.735000", "110103.225000", "110104.715000", "110106.205000", "110107.695000", "110109.185000", "110110.675000", "110112.165000", "110113.655000", "110115.145000", "110116.635000", "110118.125000", "110119.615000", "110121.105000", "110122.595000", "110124.085000", "110125.575000", "110127.065000", "110128.555000", "110130.045000", "110131.535000", "110133.025000", "110134.515000", "110136.005000", "110137.495000", "110138.985000", "110140.475000", "110141.965000", "110143.455000", "110144.945000", "110146.435000", "110147.925000", "110149.415000", "110150.905000", "110152.395000", "110153.885000", "110155.375000", "110156.865000", "110158.355000", "110159.845000", "110201.335000", "110202.825000", "110204.315000", "110205.805000", "110207.295000", "110208.785000", "110210.275000", "110211.765000", "110213.255000", "110214.745000", "110216.235000", "110217.725000", "110219.215000", "110220.705000", "110222.195000", "110223.685000", "110225.175000", "110226.665000", "110228.155000", "110229.645000", "110231.135000", "110232.625000", "110234.115000", "110235.605000", "110237.095000", "110238.585000", "110240.075000", "110241.565000", "110243.055000", "110244.545000", "110246.035000", "110247.525000", "110249.015000", "110250.505000", "110251.995000", "110253.485000", "110254.975000", "110256.465000", "110257.955000", "110259.445000", "110300.935000", "110302.425000", "110303.915000", "110305.405000", "110306.895000", "110308.385000", "110309.875000", "110311.365000", "110312.855000", "110314.345000", "110315.835000", "110317.325000", "110318.815000", "110320.305000", "110321.795000", "110323.285000", "110324.775000", "110326.265000", "110327.755000", "110329.245000", "110330.735000", "110332.225000", "110333.715000", "110335.205000", "110336.695000", "110338.185000", "110339.675000", "110341.165000", "110342.655000", "110344.145000", "110345.635000", "110347.125000", "110348.615000", "110350.105000", "110351.595000", "110353.085000", "110354.575000", "110356.065000", "110357.555000", "110359.045000", "110400.535000", "110402.025000", "110403.515000", "110405.005000", "110406.495000", "110407.985000", "110409.475000", "110410.965000", "110412.455000", "110413.945000", "110415.435000", "110416.925000", "110418.415000", "110419.905000", "110421.395000", "110422.885000", "110424.375000", "110425.865000", "110427.355000", "110428.845000", "110430.335000", "110431.825000", "110433.315000", "110434.805000", "110436.295000", "110437.785000", "110439.275000", "110440.765000", "110442.255000", "110443.745000", "110445.235000", "110446.725000", "110448.215000", "110449.705000", "110451.195000", "110452.685000", "110454.175000", "110455.665000", "110457.155000", "110458.645000", "110500.135000", "110501.625000", "110503.115000", "110504.605000", "110506.095000", "110507.585000", "110509.075000", "110510.565000", "110512.055000", "110513.545000", "110515.035000", "110516.525000", "110518.015000", "110519.505000", "110520.995000", "110522.485000", "110523.975000", "110525.465000", "110526.955000", "110528.445000", "110529.935000", "110531.425000", "110532.915000", "110534.405000", "110535.895000", "110537.385000", "110538.875000", "110540.365000", "110541.855000", "110543.345000", "110544.835000", "110546.325000", "110547.815000", "110549.305000", "110550.795000", "110552.285000", "110553.775000", "110555.265000", "110556.755000", "110558.245000", "110559.735000", "110601.225000", "110602.715000", "110604.205000", "110605.695000", "110607.185000", "110608.675000", "110610.165000", "110611.655000", "110613.145000", "110614.635000", "110616.125000", "110617.615000", "110619.105000", "110620.595000", "110622.085000", "110623.575000", "110625.065000", "110626.555000", "110628.045000", "110629.535000", "110631.025000", "110632.515000", "110634.005000", "110635.495000", "110636.985000", "110638.475000", "110639.965000", "110641.455000", "110642.945000", "110644.435000", "110645.925000", "110647.415000", "110648.905000", "110650.395000", "110651.885000", "110653.375000", "110654.865000", "110656.355000", "110657.845000", "110659.335000", "110700.825000", "110702.315000", "110703.805000", "110705.295000", "110706.785000", "110708.275000", "110709.765000", "110711.255000", "110712.745000", "110714.235000", "110715.725000", "110717.215000", "110718.705000", "110720.195000", "110721.685000", "110723.175000", "110724.665000", "110726.155000", "110727.645000", "110729.135000", "110730.625000", "110732.115000", "110733.605000", "110735.095000", "110736.585000", "110738.075000", "110739.565000", "110741.055000", "110742.545000", "110744.035000", "110745.525000", "110747.015000", "110748.505000", "110749.995000", "110751.485000", "110752.975000", "110754.465000", "110755.955000", "110757.445000", "110758.935000", "110800.425000", "110801.915000", "110803.405000", "110804.895000", "110806.385000", "110807.875000", "110809.365000", "110810.855000", "110812.345000", "110813.835000", "110815.325000", "110816.815000", "110818.305000", "110819.795000", "110821.285000", "110822.775000", "110824.265000", "110825.755000", "110827.245000", "110828.735000", "110830.225000", "110831.715000", "110833.205000", "110834.695000", "110836.185000", "110837.675000", "110839.165000", "110840.655000", "110842.145000", "110843.635000", "110845.125000", "110846.615000", "110848.105000", "110849.595000", "110851.085000", "110852.575000", "110854.065000", "110855.555000", "110857.045000", "110858.535000", "110900.025000", "110901.515000", "110903.005000", "110904.495000", "110905.985000", "110907.475000", "110908.965000", "110910.455000", "110911.945000", "110913.435000", "110914.925000", "110916.415000", "110917.905000", "110919.395000", "110920.885000", "110922.375000", "110923.865000", "110925.355000", "110926.845000", "110928.335000", "110929.825000", "110931.315000", "110932.805000", "110934.295000", "110935.785000"],
      "ContentTime": ["110008.696000", "110008.699000", "110008.702000", "110008.705000", "110008.708000", "110008.718000", "110008.721000", "110008.724000", "110008.726000", "110008.729000", "110008.732000", "110008.735000", "110008.738000", "110008.741000", "110008.744000", "110008.747000", "110008.756000", "110008.758000", "110008.761000", "110008.764000", "110008.767000", "110008.770000", "110008.773000", "110008.776000", "110008.779000", "110008.785000", "110008.788000", "110008.791000", "110008.794000", "110008.796000", "110008.800000", "110008.803000", "110008.806000", "110008.809000", "110008.811000", "110008.814000", "110008.817000", "110008.820000", "110008.823000", "110028.658000", "110028.661000", "110028.664000", "110028.667000", "110028.670000", "110028.673000", "110028.675000", "110028.678000", "110028.688000", "110028.691000", "110028.694000", "110028.704000", "110028.707000", "110028.710000", "110028.713000", "110028.716000", "110028.719000", "110028.722000", "110028.725000", "110028.728000", "110048.658000", "110048.661000", "110048.664000", "110048.667000", "110048.670000", "110048.673000", "110048.676000", "110048.679000", "110048.681000", "110048.684000", "110048.688000", "110048.690000", "110048.693000", "110048.697000", "110048.700000", "110048.703000", "110048.706000", "110048.709000", "110048.712000", "110048.715000", "110108.658000", "110108.668000", "110108.671000", "110108.674000", "110108.677000", "110108.679000", "110108.682000", "110108.685000", "110108.688000", "110108.691000", "110108.700000", "110108.703000", "110108.706000", "110108.709000", "110108.712000", "110108.714000", "110108.717000", "110108.720000", "110108.723000", "110108.726000", "110148.658000", "110148.661000", "110148.664000", "110148.667000", "110148.677000", "110148.680000", "110148.683000", "110148.686000", "110148.689000", "110148.692000", "110148.695000", "110148.698000", "110148.701000", "110148.703000", "110148.706000", "110148.709000", "110148.712000", "110148.715000", "110148.720000", "110148.724000", "110148.727000", "110148.729000", "110148.732000", "110148.735000", "110148.738000", "110148.741000", "110148.744000", "110148.747000", "110148.750000", "110148.753000", "110228.658000", "110228.661000", "110228.664000", "110228.667000", "110228.670000", "110228.673000", "110228.676000", "110228.679000", "110228.682000", "110228.685000", "110228.688000", "110228.691000", "110228.694000", "110228.697000", "110228.700000", "110228.703000", "110228.706000", "110228.709000", "110228.711000", "110228.714000", "110228.723000", "110228.726000", "110228.729000", "110228.732000", "110228.735000", "110228.738000", "110248.658000", "110248.661000", "110248.664000", "110248.667000", "110248.670000", "110248.673000", "110248.676000", "110248.687000", "110248.690000", "110248.693000", "110248.696000", "110248.699000", "110248.702000", "110248.704000", "110328.658000", "110328.661000", "110328.664000", "110328.667000", "110328.670000", "110328.673000", "110328.676000", "110328.679000", "110328.682000", "110328.685000", "110328.688000", "110328.691000", "110328.693000", "110328.696000", "110328.699000", "110328.702000", "110328.705000", "110328.708000", "110328.728000", "110328.731000", "110328.733000", "110328.736000", "110328.739000", "110328.742000", "110328.745000", "110328.748000", "110328.751000", "110408.658000", "110408.661000", "110408.664000", "110408.667000", "110408.670000", "110408.673000", "110408.681000", "110408.686000", "110408.689000", "110408.692000", "110408.695000", "110408.698000", "110408.701000", "110408.704000", "110408.707000", "110408.710000", "110408.713000", "110408.716000", "110408.719000", "110408.722000", "110408.725000", "110408.727000", "110408.730000", "110408.733000", "110408.736000", "110408.739000", "110408.742000", "110448.658000", "110448.661000", "110448.664000", "110448.667000", "110448.670000", "110448.673000", "110448.676000", "110448.679000", "110448.681000", "110448.684000", "110448.687000", "110448.690000", "110448.693000", "110448.696000", "110448.699000", "110448.702000", "110448.705000", "110448.708000", "110448.711000", "110448.714000", "110448.717000", "110448.720000", "110448.723000", "110448.726000", "110448.729000", "110448.733000", "110528.658000", "110528.661000", "110528.664000", "110528.667000", "110528.670000", "110528.673000", "110528.676000", "110528.679000", "110528.682000", "110528.685000", "110528.687000", "110528.699000", "110528.702000", "110528.705000", "110528.708000", "110528.711000", "110528.714000", "110528.717000", "110528.720000", "110528.723000", "110528.731000", "110528.734000", "110528.737000", "110528.740000", "110528.743000", "110528.746000", "110528.752000", "110608.658000", "110608.661000", "110608.664000", "110608.667000", "110608.670000", "110608.673000", "110608.685000", "110608.688000", "110608.691000", "110608.694000", "110608.697000", "110608.715000", "110608.718000", "110608.721000", "110608.724000", "110608.727000", "110608.730000", "110608.733000", "110608.736000", "110608.739000", "110608.742000", "110608.744000", "110608.747000", "110608.750000", "110608.757000", "110608.760000", "110608.763000", "110648.659000", "110648.662000", "110648.665000", "110648.668000", "110648.671000", "110648.674000", "110648.677000", "110648.680000", "110648.683000", "110648.686000", "110648.689000", "110648.692000", "110648.695000", "110648.698000", "110648.710000", "110648.713000", "110648.716000", "110648.719000", "110648.721000", "110648.724000", "110648.727000", "110648.730000", "110648.733000", "110648.736000", "110648.739000", "110648.742000", "110648.745000", "110728.658000", "110728.661000", "110728.664000", "110728.667000", "110728.670000", "110728.673000", "110728.676000", "110728.679000", "110728.682000", "110728.685000", "110728.688000", "110728.691000", "110728.693000", "110728.697000", "110728.699000", "110728.702000", "110728.705000", "110728.708000", "110728.711000", "110728.714000", "110728.717000", "110728.720000", "110728.723000", "110728.726000", "110728.729000", "110728.732000", "110728.735000", "110808.658000", "110808.661000", "110808.664000", "110808.667000", "110808.670000", "110808.673000", "110808.676000", "110808.679000", "110808.682000", "110808.685000", "110808.688000", "110808.690000", "110808.693000", "110808.696000", "110808.699000", "110808.702000", "110808.705000", "110808.708000", "110808.711000", "110808.714000", "110808.717000", "110808.720000", "110808.723000", "110808.726000", "110808.729000", "110808.732000", "110808.735000", "110848.658000", "110848.661000", "110848.664000", "110848.667000", "110848.670000", "110848.673000", "110848.676000", "110848.679000", "110848.682000", "110848.685000", "110848.687000", "110848.693000", "110848.695000", "110848.699000", "110848.702000", "110848.704000", "110848.707000", "110848.710000", "110848.713000", "110848.716000", "110848.719000", "110848.722000", "110848.725000", "110848.728000", "110848.731000", "110848.734000", "110848.737000", "110928.658000", "110928.661000", "110928.664000", "110928.667000", "110928.670000", "110928.673000", "110928.676000", "110928.679000", "110928.682000", "110928.685000", "110928.687000", "110928.690000", "110928.699000", "110928.702000", "110928.705000", "110928.708000", "110928.711000", "110928.714000", "110928.717000", "110928.720000", "110928.723000", "110928.726000", "110928.729000", "110928.732000", "110928.735000", "110928.738000", "110937.835000", "110937.839000", "110937.842000", "110937.845000", "110937.848000", "110937.851000", "110937.854000"],
