{
  "AcquisitionMatrixPE": 104,
  "AcquisitionNumber": 1,
  "AcquisitionTime": "18:22:22.027500",
  "BandwidthPerPixelPhaseEncode": 17.17,
  "BaseResolution": 104,
  "BodyPartExamined": "BRAIN",
  "CoilCombinationMethod": "Sum of Squares",
  "ConsistencyInfo": "N4_VE11C_LATEST_20160120",
  "ConversionSoftware": "dcm2niix",
  "ConversionSoftwareVersion": "v1.0.20230411",
  "DerivedVendorReportedEchoSpacing": 0.000560011,
  "DeviceSerialNumber": "167006",
  "DwellTime": 2.1e-06,
  "EchoTime": 0.037,
  "EchoTrainLength": 104,
  "EffectiveEchoSpacing": 0.000560011,
  "FlipAngle": 52,
  "HeudiconvVersion": "0.5.3.post861+ge7d3c7f",
  "ImageComments": "Unaliased MB4/PE3/LB",
  "ImageOrientationPatientDICOM": [0.999342, -0.0353382, -0.00818589, 0.0298344, 0.929092, -0.368643],
  "ImageOrientationText": "Tra>Cor(-21.6)>Sag(-1.2)",
  "ImageType": [
    "ORIGINAL",
    "PRIMARY",
    "M",
    "MB",
    "ND",
    "MOSAIC"
],
  "ImagingFrequency": 123.249558,
  "InPlanePhaseEncodingDirectionDICOM": "COL",
  "InstitutionAddress": "Chemin Queen-Mary 4565,Montreal,District,CA,H3W 1W5",
  "InstitutionName": "IUGM",
  "InstitutionalDepartmentName": "Department",
  "MRAcquisitionType": "2D",
  "MagneticFieldStrength": 3,
  "Manufacturer": "Siemens",
  "ManufacturersModelName": "Prisma_fit",
  "MatrixCoilMode": "SENSE",
  "Modality": "MR",
  "MultibandAccelerationFactor": 4,
  "NonlinearGradientCorrection": false,
  "PartialFourier": 1,
  "PatientPosition": "HFS",
  "PercentPhaseFOV": 100,
  "PercentSampling": 100,
  "PhaseEncodingDirection": "j",
  "PhaseEncodingSteps": 104,
  "PhaseResolution": 1,
  "PixelBandwidth": 2290,
  "ProcedureStepDescription": "video^friends",
  "ProtocolName": "func_task-friends-s07e12b",
  "PulseSequenceDetails": "%CustomerSeq%\\cmrr_mbep2d_bold",
  "ReceiveCoilActiveElements": "HC1-7;NC1,2",
  "ReceiveCoilName": "HeadNeck_64",
  "ReconMatrixPE": 104,
  "RepetitionTime": 1.49,
  "SAR": 0.0609286,
  "ScanOptions": "FS",
  "ScanningSequence": "EP",
  "SequenceName": "epfid2d1_104",
  "SequenceVariant": "SK\\SS",
  "SeriesDescription": "func_task-friends-s07e12b",
  "SeriesNumber": 12,
  "ShimSetting": [588, -7305, -8818, 320, 30, -451, -57, 115],
  "SliceThickness": 2,
  "SliceTiming": [0, 0.785, 0.0975, 0.8825, 0.1975, 0.98, 0.295, 1.0775, 0.3925, 1.1775, 0.49, 1.275, 0.5875, 1.3725, 0.6875, 0, 0.785, 0.0975, 0.8825, 0.1975, 0.98, 0.295, 1.0775, 0.3925, 1.1775, 0.49, 1.275, 0.5875, 1.3725, 0.6875, 0, 0.785, 0.0975, 0.8825, 0.1975, 0.98, 0.295, 1.0775, 0.3925, 1.1775, 0.49, 1.275, 0.5875, 1.3725, 0.6875, 0, 0.785, 0.0975, 0.8825, 0.1975, 0.98, 0.295, 1.0775, 0.3925, 1.1775, 0.49, 1.275, 0.5875, 1.3725, 0.6875],
  "SoftwareVersions": "syngo MR E11",
  "SpacingBetweenSlices": 2,
  "StationName": "MRC35049",
  "TaskName": "s07e12b",
  "TotalReadoutTime": 0.0576811,
  "TxRefAmp": 268.344,
  "WipMemBlock": "10999227-8fe3-4737-8ac8-eb7cf907c000||Sequence: R017 ve11c/master r/75a17815+; Jun 28 2022 16:32:11 by eja",
  "dcmmeta_affine": [
    [-1.9986838102340698, 0.059668779373168945, -0.041265249252319336, 98.33055114746094],
    [0.07067636400461197, 1.8581842184066772, -0.7363126873970032, -74.04022979736328],
    [-0.016371777281165123, 0.737286388874054, 1.85906982421875, -59.51304626464844],
    [0.0, 0.0, 0.0, 1.0]
],
  "dcmmeta_reorient_transform": [
    [0.0, -1.0, 0.0, 103.0],
    [1.0, 0.0, 0.0, 0.0],
    [0.0, 0.0, 1.0, 0.0],
    [0.0, 0.0, 0.0, 1.0]
],
  "dcmmeta_shape": [104, 104, 60, 486],
  "dcmmeta_slice_dim": 2,
  "dcmmeta_version": 0.6,
  "global": {
    "const": {
      "AcquisitionMatrix": [104, 0, 0, 104],
      "AngioFlag": "N",
      "BitsAllocated": 16,
      "BitsStored": 16,
      "BodyPartExamined": "BRAIN",
      "Columns": 832,
      "EchoNumbers": 1,
      "EchoTime": 37.0,
      "EchoTrainLength": 104,
      "FlipAngle": 52.0,
      "HighBit": 15,
      "ImageOrientationPatient": [0.99934188543826, -0.0353381837919, -0.0081858887729, 0.02983438944848, 0.92909209128422, -0.3686431813005],
      "ImagePositionPatient": [-853.71676266118, -768.00558333954, 290.75901278732],
      "ImageType": [
        "ORIGINAL",
        "PRIMARY",
        "M",
        "MB",
        "ND",
        "MOSAIC"
],
      "ImagedNucleus": "1H",
      "ImagingFrequency": 123.249558,
      "InPlanePhaseEncodingDirection": "COL",
      "MRAcquisitionType": "2D",
      "MagneticFieldStrength": 3.0,
      "Manufacturer": "SIEMENS",
      "ManufacturerModelName": "Prisma_fit",
      "Modality": "MR",
      "NumberOfAverages": 1.0,
      "NumberOfPhaseEncodingSteps": 104,
      "PercentPhaseFieldOfView": 100.0,
      "PercentSampling": 100.0,
      "PerformedProcedureStepStartTime": "180159.849000",
      "PhotometricInterpretation": "MONOCHROME2",
      "PixelBandwidth": 2290.0,
      "PixelRepresentation": 0,
      "PixelSpacing": [2.0, 2.0],
      "ProtocolName": "func_task-friends-s07e12b",
      "RepetitionTime": 1490.0,
      "Rows": 832,
      "SAR": 0.06092856156014,
      "SamplesPerPixel": 1,
      "ScanOptions": "FS",
      "ScanningSequence": "EP",
      "SequenceName": "epfid2d1_104",
      "SequenceVariant": [
        "SK",
        "SS"
],
      "SeriesDescription": "func_task-friends-s07e12b",
      "SeriesNumber": 12,
      "SeriesTime": "182321.661000",
      "SliceLocation": -30.08989067045,
      "SliceThickness": 2.0,
      "SmallestImagePixelValue": 0,
      "SoftwareVersions": "syngo MR E11",
      "SpacingBetweenSlices": 1.9999999872237,
      "SpecificCharacterSet": "ISO_IR 100",
      "StudyID": "1",
      "StudyTime": "180159.711000",
      "TransmitCoilName": "Body",
      "VariableFlipAngleFlag": "N",
      "WindowCenterWidthExplanation": "Algo1",
      "dBdt": 0.0},
    "slices": {}
  },
  "time": {
    "samples": {
      "AcquisitionNumber": [1, 2, 3, 4, 5, 6, 7, 8, 9, 10, 11, 12, 13, 14, 15, 16, 17, 18, 19, 20, 21, 22, 23, 24, 25, 26, 27, 28, 29, 30, 31, 32, 33, 34, 35, 36, 37, 38, 39, 40, 41, 42, 43, 44, 45, 46, 47, 48, 49, 50, 51, 52, 53, 54, 55, 56, 57, 58, 59, 60, 61, 62, 63, 64, 65, 66, 67, 68, 69, 70, 71, 72, 73, 74, 75, 76, 77, 78, 79, 80, 81, 82, 83, 84, 85, 86, 87, 88, 89, 90, 91, 92, 93, 94, 95, 96, 97, 98, 99, 100, 101, 102, 103, 104, 105, 106, 107, 108, 109, 110, 111, 112, 113, 114, 115, 116, 117, 118, 119, 120, 121, 122, 123, 124, 125, 126, 127, 128, 129, 130, 131, 132, 133, 134, 135, 136, 137, 138, 139, 140, 141, 142, 143, 144, 145, 146, 147, 148, 149, 150, 151, 152, 153, 154, 155, 156, 157, 158, 159, 160, 161, 162, 163, 164, 165, 166, 167, 168, 169, 170, 171, 172, 173, 174, 175, 176, 177, 178, 179, 180, 181, 182, 183, 184, 185, 186, 187, 188, 189, 190, 191, 192, 193, 194, 195, 196, 197, 198, 199, 200, 201, 202, 203, 204, 205, 206, 207, 208, 209, 210, 211, 212, 213, 214, 215, 216, 217, 218, 219, 220, 221, 222, 223, 224, 225, 226, 227, 228, 229, 230, 231, 232, 233, 234, 235, 236, 237, 238, 239, 240, 241, 242, 243, 244, 245, 246, 247, 248, 249, 250, 251, 252, 253, 254, 255, 256, 257, 258, 259, 260, 261, 262, 263, 264, 265, 266, 267, 268, 269, 270, 271, 272, 273, 274, 275, 276, 277, 278, 279, 280, 281, 282, 283, 284, 285, 286, 287, 288, 289, 290, 291, 292, 293, 294, 295, 296, 297, 298, 299, 300, 301, 302, 303, 304, 305, 306, 307, 308, 309, 310, 311, 312, 313, 314, 315, 316, 317, 318, 319, 320, 321, 322, 323, 324, 325, 326, 327, 328, 329, 330, 331, 332, 333, 334, 335, 336, 337, 338, 339, 340, 341, 342, 343, 344, 345, 346, 347, 348, 349, 350, 351, 352, 353, 354, 355, 356, 357, 358, 359, 360, 361, 362, 363, 364, 365, 366, 367, 368, 369, 370, 371, 372, 373, 374, 375, 376, 377, 378, 379, 380, 381, 382, 383, 384, 385, 386, 387, 388, 389, 390, 391, 392, 393, 394, 395, 396, 397, 398, 399, 400, 401, 402, 403, 404, 405, 406, 407, 408, 409, 410, 411, 412, 413, 414, 415, 416, 417, 418, 419, 420, 421, 422, 423, 424, 425, 426, 427, 428, 429, 430, 431, 432, 433, 434, 435, 436, 437, 438, 439, 440, 441, 442, 443, 444, 445, 446, 447, 448, 449, 450, 451, 452, 453, 454, 455, 456, 457, 458, 459, 460, 461, 462, 463, 464, 465, 466, 467, 468, 469, 470, 471, 472, 473, 474, 475, 476, 477, 478, 479, 480, 481, 482, 483, 484, 485, 486],
      "AcquisitionTime": ["182222.027500", "182223.517500", "182225.007500", "182226.497500", "182227.987500", "182229.477500", "182230.967500", "182232.457500", "182233.947500", "182235.437500", "182236.927500", "182238.417500", "182239.907500", "182241.397500", "182242.887500", "182244.377500", "182245.867500", "182247.357500", "182248.847500", "182250.337500", "182251.827500", "182253.317500", "182254.807500", "182256.297500", "182257.787500", "182259.277500", "182300.767500", "182302.257500", "182303.747500", "182305.237500", "182306.727500", "182308.217500", "182309.707500", "182311.197500", "182312.687500", "182314.177500", "182315.667500", "182317.157500", "182318.647500", "182320.137500", "182321.627500", "182323.117500", "182324.607500", "182326.097500", "182327.587500", "182329.077500", "182330.567500", "182332.057500", "182333.547500", "182335.037500", "182336.527500", "182338.017500", "182339.507500", "182340.997500", "182342.487500", "182343.977500", "182345.467500", "182346.957500", "182348.447500", "182349.937500", "182351.427500", "182352.917500", "182354.407500", "182355.897500", "182357.387500", "182358.877500", "182400.367500", "182401.857500", "182403.347500", "182404.837500", "182406.327500", "182407.817500", "182409.307500", "182410.797500", "182412.287500", "182413.777500", "182415.267500", "182416.757500", "182418.247500", "182419.737500", "182421.227500", "182422.717500", "182424.207500", "182425.697500", "182427.187500", "182428.677500", "182430.167500", "182431.657500", "182433.147500", "182434.637500", "182436.127500", "182437.617500", "182439.107500", "182440.597500", "182442.087500", "182443.577500", "182445.067500", "182446.557500", "182448.047500", "182449.537500", "182451.027500", "182452.517500", "182454.007500", "182455.497500", "182456.987500", "182458.477500", "182459.967500", "182501.457500", "182502.947500", "182504.437500", "182505.927500", "182507.417500", "182508.907500", "182510.397500", "182511.887500", "182513.377500", "182514.867500", "182516.357500", "182517.847500", "182519.337500", "182520.827500", "182522.317500", "182523.807500", "182525.297500", "182526.787500", "182528.277500", "182529.767500", "182531.257500", "182532.747500", "182534.237500", "182535.727500", "182537.217500", "182538.707500", "182540.197500", "182541.687500", "182543.177500", "182544.667500", "182546.157500", "182547.647500", "182549.137500", "182550.627500", "182552.117500", "182553.607500", "182555.097500", "182556.587500", "182558.077500", "182559.567500", "182601.057500", "182602.547500", "182604.037500", "182605.527500", "182607.017500", "182608.507500", "182609.997500", "182611.487500", "182612.977500", "182614.467500", "182615.957500", "182617.447500", "182618.937500", "182620.427500", "182621.917500", "182623.407500", "182624.897500", "182626.387500", "182627.877500", "182629.367500", "182630.857500", "182632.347500", "182633.837500", "182635.327500", "182636.817500", "182638.307500", "182639.797500", "182641.287500", "182642.777500", "182644.267500", "182645.757500", "182647.247500", "182648.737500", "182650.227500", "182651.717500", "182653.207500", "182654.697500", "182656.187500", "182657.677500", "182659.167500", "182700.657500", "182702.147500", "182703.637500", "182705.127500", "182706.617500", "182708.107500", "182709.597500", "182711.087500", "182712.577500", "182714.067500", "182715.557500", "182717.047500", "182718.537500", "182720.027500", "182721.517500", "182723.007500", "182724.497500", "182725.987500", "182727.477500", "182728.967500", "182730.457500", "182731.947500", "182733.437500", "182734.927500", "182736.417500", "182737.907500", "182739.397500", "182740.887500", "182742.377500", "182743.867500", "182745.357500", "182746.847500", "182748.337500", "182749.827500", "182751.317500", "182752.807500", "182754.297500", "182755.787500", "182757.277500", "182758.767500", "182800.257500", "182801.747500", "182803.237500", "182804.727500", "182806.217500", "182807.707500", "182809.197500", "182810.687500", "182812.177500", "182813.667500", "182815.157500", "182816.647500", "182818.137500", "182819.627500", "182821.117500", "182822.607500", "182824.097500", "182825.587500", "182827.077500", "182828.567500", "182830.057500", "182831.547500", "182833.037500", "182834.527500", "182836.017500", "182837.507500", "182838.997500", "182840.487500", "182841.977500", "182843.467500", "182844.957500", "182846.447500", "182847.937500", "182849.427500", "182850.917500", "182852.407500", "182853.897500", "182855.387500", "182856.877500", "182858.367500", "182859.857500", "182901.347500", "182902.837500", "182904.327500", "182905.817500", "182907.307500", "182908.797500", "182910.287500", "182911.777500", "182913.267500", "182914.757500", "182916.247500", "182917.737500", "182919.227500", "182920.717500", "182922.207500", "182923.697500", "182925.187500", "182926.677500", "182928.167500", "182929.657500", "182931.147500", "182932.637500", "182934.127500", "182935.617500", "182937.107500", "182938.597500", "182940.087500", "182941.577500", "182943.067500", "182944.557500", "182946.047500", "182947.537500", "182949.027500", "182950.517500", "182952.007500", "182953.497500", "182954.987500", "182956.477500", "182957.967500", "182959.457500", "183000.947500", "183002.437500", "183003.927500", "183005.417500", "183006.907500", "183008.397500", "183009.887500", "183011.377500", "183012.867500", "183014.357500", "183015.847500", "183017.337500", "183018.827500", "183020.317500", "183021.807500", "183023.297500", "183024.787500", "183026.277500", "183027.767500", "183029.257500", "183030.747500", "183032.237500", "183033.727500", "183035.217500", "183036.707500", "183038.197500", "183039.687500", "183041.177500", "183042.667500", "183044.157500", "183045.647500", "183047.137500", "183048.627500", "183050.117500", "183051.607500", "183053.097500", "183054.587500", "183056.077500", "183057.567500", "183059.057500", "183100.547500", "183102.037500", "183103.527500", "183105.017500", "183106.507500", "183107.997500", "183109.487500", "183110.977500", "183112.467500", "183113.957500", "183115.447500", "183116.937500", "183118.427500", "183119.917500", "183121.407500", "183122.897500", "183124.387500", "183125.877500", "183127.367500", "183128.857500", "183130.347500", "183131.837500", "183133.327500", "183134.817500", "183136.307500", "183137.797500", "183139.287500", "183140.777500", "183142.267500", "183143.757500", "183145.247500", "183146.737500", "183148.227500", "183149.717500", "183151.207500", "183152.697500", "183154.187500", "183155.677500", "183157.167500", "183158.657500", "183200.147500", "183201.637500", "183203.127500", "183204.617500", "183206.107500", "183207.597500", "183209.087500", "183210.577500", "183212.067500", "183213.557500", "183215.047500", "183216.537500", "183218.027500", "183219.517500", "183221.007500", "183222.497500", "183223.987500", "183225.477500", "183226.967500", "183228.457500", "183229.947500", "183231.437500", "183232.927500", "183234.417500", "183235.907500", "183237.397500", "183238.887500", "183240.377500", "183241.867500", "183243.357500", "183244.847500", "183246.337500", "183247.827500", "183249.317500", "183250.807500", "183252.297500", "183253.787500", "183255.277500", "183256.767500", "183258.257500", "183259.747500", "183301.237500", "183302.727500", "183304.217500", "183305.707500", "183307.197500", "183308.687500", "183310.177500", "183311.667500", "183313.157500", "183314.647500", "183316.137500", "183317.627500", "183319.117500", "183320.607500", "183322.097500", "183323.587500", "183325.077500", "183326.567500", "183328.057500", "183329.547500", "183331.037500", "183332.527500", "183334.017500", "183335.507500", "183336.997500", "183338.487500", "183339.977500", "183341.467500", "183342.957500", "183344.447500", "183345.937500", "183347.427500", "183348.917500", "183350.407500", "183351.897500", "183353.387500", "183354.877500", "183356.367500", "183357.857500", "183359.347500", "183400.837500", "183402.327500", "183403.817500", "183405.307500", "183406.797500", "183408.287500", "183409.777500", "183411.267500", "183412.757500", "183414.247500", "183415.737500", "183417.227500", "183418.717500", "183420.207500", "183421.697500", "183423.187500", "183424.677500"],
      "ContentTime": ["182321.663000", "182321.667000", "182321.670000", "182321.673000", "182321.676000", "182321.679000", "182321.682000", "182321.684000", "182341.605000", "182341.608000", "182341.611000", "182341.614000", "182341.617000", "182341.619000", "182341.622000", "182341.625000", "182341.628000", "182341.631000", "182341.634000", "182341.637000", "182341.639000", "182341.648000", "182341.651000", "182341.654000", "182341.657000", "182341.660000", "182341.663000", "182341.665000", "182341.668000", "182401.605000", "182401.608000", "182401.626000", "182401.629000", "182401.632000", "182401.635000", "182401.638000", "182401.640000", "182401.643000", "182401.646000", "182401.649000", "182401.652000", "182401.655000", "182401.658000", "182401.661000", "182401.664000", "182401.667000", "182401.670000", "182401.672000", "182401.675000", "182421.605000", "182421.629000", "182421.632000", "182421.635000", "182421.638000", "182421.641000", "182421.644000", "182421.647000", "182421.650000", "182421.653000", "182421.655000", "182421.658000", "182421.661000", "182421.664000", "182421.667000", "182421.670000", "182421.673000", "182421.675000", "182421.678000", "182421.681000", "182441.605000", "182441.608000", "182441.611000", "182441.614000", "182441.617000", "182441.619000", "182441.622000", "182441.625000", "182441.628000", "182441.631000", "182441.634000", "182441.637000", "182441.640000", "182441.643000", "182441.645000", "182441.648000", "182441.651000", "182441.654000", "182441.657000", "182441.660000", "182521.605000", "182521.608000", "182521.611000", "182521.627000", "182521.630000", "182521.633000", "182521.636000", "182521.639000", "182521.650000", "182521.653000", "182521.656000", "182521.659000", "182521.662000", "182521.665000", "182521.668000", "182521.671000", "182521.674000", "182521.677000", "182521.679000", "182521.682000", "182521.685000", "182521.688000", "182521.691000", "182521.694000", "182521.697000", "182521.700000", "182521.703000", "182521.705000", "182521.708000", "182521.711000", "182521.714000", "182601.605000", "182601.608000", "182601.611000", "182601.614000", "182601.617000", "182601.620000", "182601.623000", "182601.626000", "182601.628000", "182601.631000", "182601.634000", "182601.637000", "182601.640000", "182601.643000", "182601.646000", "182601.649000", "182601.652000", "182601.655000", "182601.657000", "182601.660000", "182601.663000", "182601.666000", "182601.669000", "182601.672000", "182601.675000", "182601.678000", "182601.681000", "182641.605000", "182641.608000", "182641.611000", "182641.614000", "182641.617000", "182641.620000", "182641.623000", "182641.626000", "182641.629000", "182641.632000", "182641.635000", "182641.638000", "182641.641000", "182641.644000", "182641.647000", "182641.650000", "182641.653000", "182641.656000", "182641.659000", "182641.662000", "182641.665000", "182641.668000", "182641.671000", "182641.674000", "182641.677000", "182641.680000", "182721.605000", "182721.608000", "182721.611000", "182721.614000", "182721.617000", "182721.620000", "182721.623000", "182721.626000", "182721.628000", "182721.631000", "182721.634000", "182721.637000", "182721.640000", "182721.643000", "182721.647000", "182721.649000", "182721.652000", "182721.655000", "182721.658000", "182721.661000", "182721.664000", "182721.667000", "182721.670000", "182721.673000", "182721.676000", "182721.678000", "182721.681000", "182801.605000", "182801.608000", "182801.611000", "182801.614000", "182801.617000", "182801.620000", "182801.623000", "182801.626000", "182801.629000", "182801.631000", "182801.634000", "182801.637000", "182801.640000", "182801.643000", "182801.646000", "182801.649000", "182801.652000", "182801.654000", "182801.657000", "182801.660000", "182801.663000", "182801.666000", "182801.669000", "182801.672000", "182801.675000", "182801.678000", "182801.680000", "182841.605000", "182841.608000", "182841.611000", "182841.614000", "182841.617000", "182841.620000", "182841.623000", "182841.626000", "182841.628000", "182841.631000", "182841.634000", "182841.637000", "182841.640000", "182841.643000", "182841.646000", "182841.649000", "182841.652000", "182841.655000", "182841.657000", "182841.660000", "182841.663000", "182841.666000", "182841.669000", "182841.672000", "182841.675000", "182841.678000", "182841.681000", "182921.605000", "182921.608000", "182921.611000", "182921.614000", "182921.617000", "182921.620000", "182921.623000", "182921.626000", "182921.629000", "182921.631000", "182921.634000", "182921.637000", "182921.640000", "182921.643000", "182921.646000", "182921.649000", "182921.652000", "182921.655000", "182921.658000", "182921.661000", "182921.664000", "182921.667000", "182921.670000", "182921.673000", "182921.676000", "182921.679000", "182921.682000", "183001.605000", "183001.608000", "183001.611000", "183001.614000", "183001.617000", "183001.620000", "183001.623000", "183001.626000", "183001.629000", "183001.632000", "183001.634000", "183001.637000", "183001.640000", "183001.643000", "183001.646000", "183001.649000", "183001.652000", "183001.655000", "183001.658000", "183001.661000", "183001.664000", "183001.666000", "183001.669000", "183001.672000", "183001.675000", "183001.678000", "183001.681000", "183041.605000", "183041.608000", "183041.611000", "183041.614000", "183041.617000", "183041.620000", "183041.623000", "183041.626000", "183041.629000", "183041.632000", "183041.634000", "183041.637000", "183041.640000", "183041.643000", "183041.646000", "183041.649000", "183041.652000", "183041.655000", "183041.658000", "183041.661000", "183041.663000", "183041.666000", "183041.669000", "183041.672000", "183041.675000", "183041.687000", "183041.690000", "183121.605000", "183121.608000", "183121.611000", "183121.614000", "183121.617000", "183121.620000", "183121.623000", "183121.626000", "183121.629000", "183121.632000", "183121.635000", "183121.638000", "183121.641000", "183121.644000", "183121.646000", "183121.649000", "183121.652000", "183121.655000", "183121.658000", "183121.661000", "183121.664000", "183121.667000", "183121.670000", "183121.673000", "183121.676000", "183121.678000", "183201.621000", "183201.624000", "183201.627000", "183201.630000", "183201.633000", "183201.636000", "183201.639000", "183201.642000", "183201.644000", "183201.647000", "183201.650000", "183201.653000", "183201.656000", "183201.659000", "183201.662000", "183201.665000", "183201.668000", "183201.671000", "183201.674000", "183201.677000", "183201.680000", "183201.682000", "183201.685000", "183201.688000", "183201.691000", "183201.694000", "183201.697000", "183241.605000", "183241.608000", "183241.611000", "183241.614000", "183241.617000", "183241.620000", "183241.623000", "183241.626000", "183241.629000", "183241.631000", "183241.634000", "183241.637000", "183241.640000", "183241.643000", "183241.646000", "183241.649000", "183241.652000", "183241.655000", "183241.658000", "183241.661000", "183241.664000", "183241.667000", "183241.669000", "183241.672000", "183241.675000", "183241.678000", "183241.681000", "183321.605000", "183321.608000", "183321.611000", "183321.614000", "183321.617000", "183321.620000", "183321.623000", "183321.626000", "183321.629000", "183321.631000", "183321.634000", "183321.637000", "183321.640000", "183321.643000", "183321.646000", "183321.649000", "183321.652000", "183321.655000", "183321.658000", "183321.661000", "183321.663000", "183321.666000", "183321.669000", "183321.672000", "183321.675000", "183321.678000", "183321.681000", "183401.605000", "183401.608000", "183401.611000", "183401.614000", "183401.617000", "183401.620000", "183401.623000", "183401.626000", "183401.628000", "183401.631000", "183401.634000", "183401.637000", "183401.640000", "183401.643000", "183401.646000", "183401.649000", "183401.652000", "183401.655000", "183401.658000", "183401.661000", "183401.664000", "183401.666000", "183401.669000", "183401.672000", "183401.675000", "183401.678000", "183401.681000", "183426.537000", "183426.540000", "183426.544000", "183426.546000", "183426.549000", "183426.552000", "183426.555000", "183426.558000", "183426.561000", "183426.564000", "183426.567000", "183426.570000", "183426.573000", "183426.575000", "183426.578000", "183426.581000", "183426.584000"],
