{
  "AcquisitionMatrixPE": 104,
  "AcquisitionNumber": 1,
  "AcquisitionTime": "18:08:53.765000",
  "BandwidthPerPixelPhaseEncode": 17.17,
  "BaseResolution": 104,
  "BodyPartExamined": "BRAIN",
  "CoilCombinationMethod": "Sum of Squares",
  "ConsistencyInfo": "N4_VE11C_LATEST_20160120",
  "ConversionSoftware": "dcm2niix",
  "ConversionSoftwareVersion": "v1.0.20230411",
  "DerivedVendorReportedEchoSpacing": 0.000560011,
  "DeviceSerialNumber": "167006",
  "DwellTime": 2.1e-06,
  "EchoTime": 0.037,
  "EchoTrainLength": 104,
  "EffectiveEchoSpacing": 0.000560011,
  "FlipAngle": 52,
  "HeudiconvVersion": "0.5.3.post861+ge7d3c7f",
  "ImageComments": "Unaliased MB4/PE3/LB",
  "ImageOrientationPatientDICOM": [0.999342, -0.0353382, -0.00818589, 0.0298344, 0.929092, -0.368643],
  "ImageOrientationText": "Tra>Cor(-21.6)>Sag(-1.2)",
  "ImageType": [
    "ORIGINAL",
    "PRIMARY",
    "M",
    "MB",
    "ND",
    "MOSAIC"
],
  "ImagingFrequency": 123.24955,
  "InPlanePhaseEncodingDirectionDICOM": "COL",
  "InstitutionAddress": "Chemin Queen-Mary 4565,Montreal,District,CA,H3W 1W5",
  "InstitutionName": "IUGM",
  "InstitutionalDepartmentName": "Department",
  "MRAcquisitionType": "2D",
  "MagneticFieldStrength": 3,
  "Manufacturer": "Siemens",
  "ManufacturersModelName": "Prisma_fit",
  "MatrixCoilMode": "SENSE",
  "Modality": "MR",
  "MultibandAccelerationFactor": 4,
  "NonlinearGradientCorrection": false,
  "PartialFourier": 1,
  "PatientPosition": "HFS",
  "PercentPhaseFOV": 100,
  "PercentSampling": 100,
  "PhaseEncodingDirection": "j",
  "PhaseEncodingSteps": 104,
  "PhaseResolution": 1,
  "PixelBandwidth": 2290,
  "ProcedureStepDescription": "video^friends",
  "ProtocolName": "func_task-friends-s07e12a",
  "PulseSequenceDetails": "%CustomerSeq%\\cmrr_mbep2d_bold",
  "ReceiveCoilActiveElements": "HC1-7;NC1,2",
  "ReceiveCoilName": "HeadNeck_64",
  "ReconMatrixPE": 104,
  "RepetitionTime": 1.49,
  "SAR": 0.0609286,
  "ScanOptions": "FS",
  "ScanningSequence": "EP",
  "SequenceName": "epfid2d1_104",
  "SequenceVariant": "SK\\SS",
  "SeriesDescription": "func_task-friends-s07e12a",
  "SeriesNumber": 10,
  "ShimSetting": [588, -7305, -8818, 320, 30, -451, -57, 115],
  "SliceThickness": 2,
  "SliceTiming": [0, 0.785, 0.0975, 0.8825, 0.195, 0.98, 0.295, 1.0775, 0.3925, 1.175, 0.49, 1.275, 0.5875, 1.3725, 0.685, 0, 0.785, 0.0975, 0.8825, 0.195, 0.98, 0.295, 1.0775, 0.3925, 1.175, 0.49, 1.275, 0.5875, 1.3725, 0.685, 0, 0.785, 0.0975, 0.8825, 0.195, 0.98, 0.295, 1.0775, 0.3925, 1.175, 0.49, 1.275, 0.5875, 1.3725, 0.685, 0, 0.785, 0.0975, 0.8825, 0.195, 0.98, 0.295, 1.0775, 0.3925, 1.175, 0.49, 1.275, 0.5875, 1.3725, 0.685],
  "SoftwareVersions": "syngo MR E11",
  "SpacingBetweenSlices": 2,
  "StationName": "MRC35049",
  "TaskName": "s07e12a",
  "TotalReadoutTime": 0.0576811,
  "TxRefAmp": 268.344,
  "WipMemBlock": "9a7ff65f-ecfd-49c4-a56b-c93082278ac1||Sequence: R017 ve11c/master r/75a17815+; Jun 28 2022 16:32:11 by eja",
  "dcmmeta_affine": [
    [-1.9986838102340698, 0.059668779373168945, -0.041265249252319336, 98.33055114746094],
    [0.07067636400461197, 1.8581842184066772, -0.7363126873970032, -74.04022979736328],
    [-0.016371777281165123, 0.737286388874054, 1.85906982421875, -59.51304626464844],
    [0.0, 0.0, 0.0, 1.0]
],
  "dcmmeta_reorient_transform": [
    [0.0, -1.0, 0.0, 103.0],
    [1.0, 0.0, 0.0, 0.0],
    [0.0, 0.0, 1.0, 0.0],
    [0.0, 0.0, 0.0, 1.0]
],
  "dcmmeta_shape": [104, 104, 60, 452],
  "dcmmeta_slice_dim": 2,
  "dcmmeta_version": 0.6,
  "global": {
    "const": {
      "AcquisitionMatrix": [104, 0, 0, 104],
      "AngioFlag": "N",
      "BitsAllocated": 16,
      "BitsStored": 16,
      "BodyPartExamined": "BRAIN",
      "Columns": 832,
      "EchoNumbers": 1,
      "EchoTime": 37.0,
      "EchoTrainLength": 104,
      "FlipAngle": 52.0,
      "HighBit": 15,
      "ImageOrientationPatient": [0.99934188543826, -0.0353381837919, -0.0081858887729, 0.02983438944848, 0.92909209128422, -0.3686431813005],
      "ImagePositionPatient": [-853.71676266118, -768.00558333954, 290.75901278732],
      "ImageType": [
        "ORIGINAL",
        "PRIMARY",
        "M",
        "MB",
        "ND",
        "MOSAIC"
],
      "ImagedNucleus": "1H",
      "ImagingFrequency": 123.24955,
      "InPlanePhaseEncodingDirection": "COL",
      "MRAcquisitionType": "2D",
      "MagneticFieldStrength": 3.0,
      "Manufacturer": "SIEMENS",
      "ManufacturerModelName": "Prisma_fit",
      "Modality": "MR",
      "NumberOfAverages": 1.0,
      "NumberOfPhaseEncodingSteps": 104,
      "PercentPhaseFieldOfView": 100.0,
      "PercentSampling": 100.0,
      "PerformedProcedureStepStartTime": "180159.849000",
      "PhotometricInterpretation": "MONOCHROME2",
      "PixelBandwidth": 2290.0,
      "PixelRepresentation": 0,
      "PixelSpacing": [2.0, 2.0],
      "ProtocolName": "func_task-friends-s07e12a",
      "RepetitionTime": 1490.0,
      "Rows": 832,
      "SAR": 0.0609285564043,
      "SamplesPerPixel": 1,
      "ScanOptions": "FS",
      "ScanningSequence": "EP",
      "SequenceName": "epfid2d1_104",
      "SequenceVariant": [
        "SK",
        "SS"
],
      "SeriesDescription": "func_task-friends-s07e12a",
      "SeriesNumber": 10,
      "SeriesTime": "181010.981000",
      "SliceLocation": -30.08989067045,
      "SliceThickness": 2.0,
      "SmallestImagePixelValue": 0,
      "SoftwareVersions": "syngo MR E11",
      "SpacingBetweenSlices": 1.9999999872237,
      "SpecificCharacterSet": "ISO_IR 100",
      "StudyID": "1",
      "StudyTime": "180159.711000",
      "TransmitCoilName": "Body",
      "VariableFlipAngleFlag": "N",
      "WindowCenterWidthExplanation": "Algo1",
      "dBdt": 0.0},
    "slices": {}
  },
  "time": {
    "samples": {
      "AcquisitionNumber": [1, 2, 3, 4, 5, 6, 7, 8, 9, 10, 11, 12, 13, 14, 15, 16, 17, 18, 19, 20, 21, 22, 23, 24, 25, 26, 27, 28, 29, 30, 31, 32, 33, 34, 35, 36, 37, 38, 39, 40, 41, 42, 43, 44, 45, 46, 47, 48, 49, 50, 51, 52, 53, 54, 55, 56, 57, 58, 59, 60, 61, 62, 63, 64, 65, 66, 67, 68, 69, 70, 71, 72, 73, 74, 75, 76, 77, 78, 79, 80, 81, 82, 83, 84, 85, 86, 87, 88, 89, 90, 91, 92, 93, 94, 95, 96, 97, 98, 99, 100, 101, 102, 103, 104, 105, 106, 107, 108, 109, 110, 111, 112, 113, 114, 115, 116, 117, 118, 119, 120, 121, 122, 123, 124, 125, 126, 127, 128, 129, 130, 131, 132, 133, 134, 135, 136, 137, 138, 139, 140, 141, 142, 143, 144, 145, 146, 147, 148, 149, 150, 151, 152, 153, 154, 155, 156, 157, 158, 159, 160, 161, 162, 163, 164, 165, 166, 167, 168, 169, 170, 171, 172, 173, 174, 175, 176, 177, 178, 179, 180, 181, 182, 183, 184, 185, 186, 187, 188, 189, 190, 191, 192, 193, 194, 195, 196, 197, 198, 199, 200, 201, 202, 203, 204, 205, 206, 207, 208, 209, 210, 211, 212, 213, 214, 215, 216, 217, 218, 219, 220, 221, 222, 223, 224, 225, 226, 227, 228, 229, 230, 231, 232, 233, 234, 235, 236, 237, 238, 239, 240, 241, 242, 243, 244, 245, 246, 247, 248, 249, 250, 251, 252, 253, 254, 255, 256, 257, 258, 259, 260, 261, 262, 263, 264, 265, 266, 267, 268, 269, 270, 271, 272, 273, 274, 275, 276, 277, 278, 279, 280, 281, 282, 283, 284, 285, 286, 287, 288, 289, 290, 291, 292, 293, 294, 295, 296, 297, 298, 299, 300, 301, 302, 303, 304, 305, 306, 307, 308, 309, 310, 311, 312, 313, 314, 315, 316, 317, 318, 319, 320, 321, 322, 323, 324, 325, 326, 327, 328, 329, 330, 331, 332, 333, 334, 335, 336, 337, 338, 339, 340, 341, 342, 343, 344, 345, 346, 347, 348, 349, 350, 351, 352, 353, 354, 355, 356, 357, 358, 359, 360, 361, 362, 363, 364, 365, 366, 367, 368, 369, 370, 371, 372, 373, 374, 375, 376, 377, 378, 379, 380, 381, 382, 383, 384, 385, 386, 387, 388, 389, 390, 391, 392, 393, 394, 395, 396, 397, 398, 399, 400, 401, 402, 403, 404, 405, 406, 407, 408, 409, 410, 411, 412, 413, 414, 415, 416, 417, 418, 419, 420, 421, 422, 423, 424, 425, 426, 427, 428, 429, 430, 431, 432, 433, 434, 435, 436, 437, 438, 439, 440, 441, 442, 443, 444, 445, 446, 447, 448, 449, 450, 451, 452],
      "AcquisitionTime": ["180853.765000", "180855.255000", "180856.745000", "180858.235000", "180859.725000", "180901.215000", "180902.705000", "180904.195000", "180905.685000", "180907.175000", "180908.665000", "180910.155000", "180911.645000", "180913.135000", "180914.625000", "180916.115000", "180917.605000", "180919.095000", "180920.585000", "180922.075000", "180923.565000", "180925.055000", "180926.545000", "180928.035000", "180929.525000", "180931.015000", "180932.505000", "180933.995000", "180935.485000", "180936.975000", "180938.465000", "180939.955000", "180941.445000", "180942.935000", "180944.425000", "180945.915000", "180947.405000", "180948.895000", "180950.385000", "180951.875000", "180953.365000", "180954.855000", "180956.345000", "180957.835000", "180959.325000", "181000.815000", "181002.305000", "181003.795000", "181005.285000", "181006.775000", "181008.265000", "181009.755000", "181011.245000", "181012.735000", "181014.225000", "181015.715000", "181017.205000", "181018.695000", "181020.185000", "181021.675000", "181023.165000", "181024.655000", "181026.145000", "181027.635000", "181029.125000", "181030.615000", "181032.105000", "181033.595000", "181035.085000", "181036.575000", "181038.065000", "181039.555000", "181041.045000", "181042.535000", "181044.025000", "181045.515000", "181047.005000", "181048.495000", "181049.985000", "181051.475000", "181052.965000", "181054.455000", "181055.945000", "181057.435000", "181058.925000", "181100.415000", "181101.905000", "181103.395000", "181104.885000", "181106.375000", "181107.865000", "181109.355000", "181110.845000", "181112.335000", "181113.825000", "181115.315000", "181116.805000", "181118.295000", "181119.785000", "181121.275000", "181122.765000", "181124.255000", "181125.745000", "181127.235000", "181128.725000", "181130.215000", "181131.705000", "181133.195000", "181134.685000", "181136.175000", "181137.665000", "181139.155000", "181140.645000", "181142.135000", "181143.625000", "181145.115000", "181146.605000", "181148.095000", "181149.585000", "181151.075000", "181152.565000", "181154.055000", "181155.545000", "181157.035000", "181158.525000", "181200.015000", "181201.505000", "181202.995000", "181204.485000", "181205.975000", "181207.465000", "181208.955000", "181210.445000", "181211.935000", "181213.425000", "181214.915000", "181216.405000", "181217.895000", "181219.385000", "181220.875000", "181222.365000", "181223.855000", "181225.345000", "181226.835000", "181228.325000", "181229.815000", "181231.305000", "181232.795000", "181234.285000", "181235.775000", "181237.265000", "181238.755000", "181240.245000", "181241.735000", "181243.225000", "181244.715000", "181246.205000", "181247.695000", "181249.185000", "181250.675000", "181252.165000", "181253.655000", "181255.145000", "181256.635000", "181258.125000", "181259.615000", "181301.105000", "181302.595000", "181304.085000", "181305.575000", "181307.065000", "181308.555000", "181310.045000", "181311.535000", "181313.025000", "181314.515000", "181316.005000", "181317.495000", "181318.985000", "181320.475000", "181321.965000", "181323.455000", "181324.945000", "181326.435000", "181327.925000", "181329.415000", "181330.905000", "181332.395000", "181333.885000", "181335.375000", "181336.865000", "181338.355000", "181339.845000", "181341.335000", "181342.825000", "181344.315000", "181345.805000", "181347.295000", "181348.785000", "181350.275000", "181351.765000", "181353.255000", "181354.745000", "181356.235000", "181357.725000", "181359.215000", "181400.705000", "181402.195000", "181403.685000", "181405.175000", "181406.665000", "181408.155000", "181409.645000", "181411.135000", "181412.625000", "181414.115000", "181415.605000", "181417.095000", "181418.585000", "181420.075000", "181421.565000", "181423.055000", "181424.545000", "181426.035000", "181427.525000", "181429.015000", "181430.505000", "181431.995000", "181433.485000", "181434.975000", "181436.465000", "181437.955000", "181439.445000", "181440.935000", "181442.425000", "181443.915000", "181445.405000", "181446.895000", "181448.385000", "181449.875000", "181451.365000", "181452.855000", "181454.345000", "181455.835000", "181457.325000", "181458.815000", "181500.305000", "181501.795000", "181503.285000", "181504.775000", "181506.265000", "181507.755000", "181509.245000", "181510.735000", "181512.225000", "181513.715000", "181515.205000", "181516.695000", "181518.185000", "181519.675000", "181521.165000", "181522.655000", "181524.145000", "181525.635000", "181527.125000", "181528.615000", "181530.105000", "181531.595000", "181533.085000", "181534.575000", "181536.065000", "181537.555000", "181539.045000", "181540.535000", "181542.025000", "181543.515000", "181545.005000", "181546.495000", "181547.985000", "181549.475000", "181550.965000", "181552.455000", "181553.945000", "181555.435000", "181556.925000", "181558.415000", "181559.905000", "181601.395000", "181602.885000", "181604.375000", "181605.865000", "181607.355000", "181608.845000", "181610.335000", "181611.825000", "181613.315000", "181614.805000", "181616.295000", "181617.785000", "181619.275000", "181620.765000", "181622.255000", "181623.745000", "181625.235000", "181626.725000", "181628.215000", "181629.705000", "181631.195000", "181632.685000", "181634.175000", "181635.665000", "181637.155000", "181638.645000", "181640.135000", "181641.625000", "181643.115000", "181644.605000", "181646.095000", "181647.585000", "181649.075000", "181650.565000", "181652.055000", "181653.545000", "181655.035000", "181656.525000", "181658.015000", "181659.505000", "181700.995000", "181702.485000", "181703.975000", "181705.465000", "181706.955000", "181708.445000", "181709.935000", "181711.425000", "181712.915000", "181714.405000", "181715.895000", "181717.385000", "181718.875000", "181720.365000", "181721.855000", "181723.345000", "181724.835000", "181726.325000", "181727.815000", "181729.305000", "181730.795000", "181732.285000", "181733.775000", "181735.265000", "181736.755000", "181738.245000", "181739.735000", "181741.225000", "181742.715000", "181744.205000", "181745.695000", "181747.185000", "181748.675000", "181750.165000", "181751.655000", "181753.145000", "181754.635000", "181756.125000", "181757.615000", "181759.105000", "181800.595000", "181802.085000", "181803.575000", "181805.065000", "181806.555000", "181808.045000", "181809.535000", "181811.025000", "181812.515000", "181814.005000", "181815.495000", "181816.985000", "181818.475000", "181819.965000", "181821.455000", "181822.945000", "181824.435000", "181825.925000", "181827.415000", "181828.905000", "181830.395000", "181831.885000", "181833.375000", "181834.865000", "181836.355000", "181837.845000", "181839.335000", "181840.825000", "181842.315000", "181843.805000", "181845.295000", "181846.785000", "181848.275000", "181849.765000", "181851.255000", "181852.745000", "181854.235000", "181855.725000", "181857.215000", "181858.705000", "181900.195000", "181901.685000", "181903.175000", "181904.665000", "181906.155000", "181907.645000", "181909.135000", "181910.625000", "181912.115000", "181913.605000", "181915.095000", "181916.585000", "181918.075000", "181919.565000", "181921.055000", "181922.545000", "181924.035000", "181925.525000", "181927.015000", "181928.505000", "181929.995000", "181931.485000", "181932.975000", "181934.465000", "181935.955000", "181937.445000", "181938.935000", "181940.425000", "181941.915000", "181943.405000", "181944.895000", "181946.385000", "181947.875000", "181949.365000", "181950.855000", "181952.345000", "181953.835000", "181955.325000", "181956.815000", "181958.305000", "181959.795000", "182001.285000", "182002.775000", "182004.265000", "182005.755000"],
      "ContentTime": ["181010.984000", "181010.987000", "181010.997000", "181011.000000", "181011.003000", "181011.006000", "181011.009000", "181011.012000", "181011.015000", "181011.018000", "181011.021000", "181011.024000", "181011.026000", "181011.029000", "181011.032000", "181011.035000", "181011.038000", "181011.041000", "181011.044000", "181011.047000", "181011.050000", "181011.053000", "181011.056000", "181011.058000", "181011.061000", "181011.064000", "181011.067000", "181011.070000", "181030.947000", "181030.950000", "181030.953000", "181030.956000", "181030.959000", "181030.962000", "181030.964000", "181030.967000", "181030.970000", "181030.973000", "181030.976000", "181030.979000", "181030.984000", "181030.987000", "181030.990000", "181030.993000", "181030.996000", "181030.998000", "181031.002000", "181031.005000", "181050.947000", "181050.950000", "181050.953000", "181050.956000", "181050.959000", "181050.962000", "181050.965000", "181050.968000", "181050.970000", "181050.976000", "181050.979000", "181050.982000", "181050.984000", "181050.987000", "181050.990000", "181050.993000", "181050.996000", "181051.000000", "181051.003000", "181051.006000", "181110.947000", "181110.950000", "181110.953000", "181110.956000", "181110.959000", "181110.961000", "181110.964000", "181110.967000", "181110.970000", "181110.973000", "181110.976000", "181110.979000", "181110.982000", "181110.985000", "181110.987000", "181110.990000", "181110.993000", "181110.996000", "181111.000000", "181111.003000", "181150.947000", "181150.950000", "181150.953000", "181150.956000", "181150.959000", "181150.962000", "181150.965000", "181150.967000", "181150.970000", "181150.973000", "181150.976000", "181150.979000", "181150.982000", "181150.985000", "181150.988000", "181150.991000", "181150.994000", "181150.997000", "181151.001000", "181151.004000", "181151.007000", "181151.009000", "181151.012000", "181151.015000", "181151.018000", "181151.021000", "181151.024000", "181151.027000", "181151.030000", "181151.033000", "181230.947000", "181230.950000", "181230.953000", "181230.956000", "181230.959000", "181230.961000", "181230.964000", "181230.967000", "181230.970000", "181230.973000", "181230.976000", "181230.979000", "181230.982000", "181230.985000", "181230.988000", "181230.991000", "181230.994000", "181230.996000", "181231.000000", "181231.003000", "181231.006000", "181231.009000", "181231.012000", "181231.015000", "181231.018000", "181231.021000", "181231.024000", "181310.947000", "181310.950000", "181310.953000", "181310.956000", "181310.959000", "181310.962000", "181310.965000", "181310.968000", "181310.970000", "181310.973000", "181310.976000", "181310.979000", "181310.982000", "181310.985000", "181310.988000", "181310.991000", "181310.994000", "181310.997000", "181311.001000", "181311.004000", "181311.007000", "181311.010000", "181311.012000", "181311.015000", "181311.018000", "181311.021000", "181311.024000", "181350.947000", "181350.950000", "181350.953000", "181350.956000", "181350.959000", "181350.962000", "181350.965000", "181350.967000", "181350.970000", "181350.973000", "181350.976000", "181350.979000", "181350.982000", "181350.985000", "181350.988000", "181350.991000", "181350.994000", "181350.997000", "181351.001000", "181351.004000", "181351.007000", "181351.010000", "181351.013000", "181351.026000", "181351.029000", "181351.032000", "181430.947000", "181430.950000", "181430.953000", "181430.956000", "181430.959000", "181430.962000", "181430.971000", "181430.974000", "181430.977000", "181430.980000", "181430.983000", "181430.986000", "181430.989000", "181430.992000", "181430.995000", "181430.998000", "181431.002000", "181431.004000", "181431.007000", "181431.010000", "181431.013000", "181431.016000", "181431.019000", "181431.022000", "181431.025000", "181431.028000", "181431.031000", "181510.947000", "181510.950000", "181510.953000", "181510.956000", "181510.959000", "181510.962000", "181510.965000", "181510.968000", "181510.971000", "181510.974000", "181510.976000", "181510.979000", "181510.982000", "181510.985000", "181510.988000", "181510.991000", "181510.994000", "181510.997000", "181511.001000", "181511.004000", "181511.007000", "181511.010000", "181511.013000", "181511.015000", "181511.018000", "181511.021000", "181511.024000", "181550.947000", "181550.950000", "181550.953000", "181550.956000", "181550.959000", "181550.962000", "181550.965000", "181550.968000", "181550.971000", "181550.974000", "181550.977000", "181550.979000", "181550.982000", "181550.985000", "181550.988000", "181550.991000", "181550.994000", "181550.997000", "181551.001000", "181551.004000", "181551.007000", "181551.010000", "181551.013000", "181551.016000", "181551.018000", "181551.022000", "181551.024000", "181630.947000", "181630.950000", "181630.953000", "181630.956000", "181630.959000", "181630.962000", "181630.965000", "181630.967000", "181630.970000", "181630.973000", "181630.976000", "181630.979000", "181630.982000", "181630.985000", "181630.988000", "181630.991000", "181630.994000", "181630.997000", "181631.001000", "181631.004000", "181631.006000", "181631.009000", "181631.012000", "181631.015000", "181631.018000", "181631.021000", "181631.024000", "181710.947000", "181710.950000", "181710.953000", "181710.956000", "181710.959000", "181710.962000", "181710.965000", "181710.968000", "181710.971000", "181710.974000", "181710.977000", "181710.980000", "181710.982000", "181710.985000", "181710.988000", "181710.991000", "181710.994000", "181710.997000", "181711.001000", "181711.004000", "181711.007000", "181711.010000", "181711.013000", "181711.016000", "181711.019000", "181711.021000", "181711.024000", "181750.947000", "181750.950000", "181750.953000", "181750.956000", "181750.959000", "181750.962000", "181750.965000", "181750.968000", "181750.971000", "181750.974000", "181750.976000", "181750.979000", "181750.982000", "181750.985000", "181750.988000", "181750.991000", "181750.994000", "181750.997000", "181751.001000", "181751.004000", "181751.007000", "181751.009000", "181751.012000", "181751.015000", "181751.018000", "181751.021000", "181751.024000", "181830.947000", "181830.950000", "181830.953000", "181830.956000", "181830.959000", "181830.962000", "181830.965000", "181830.968000", "181830.971000", "181830.974000", "181830.976000", "181830.980000", "181830.984000", "181830.987000", "181830.990000", "181830.993000", "181830.996000", "181830.998000", "181831.010000", "181831.012000", "181831.015000", "181831.018000", "181831.021000", "181831.024000", "181831.027000", "181831.030000", "181910.947000", "181910.950000", "181910.953000", "181910.956000", "181910.959000", "181910.962000", "181910.965000", "181910.968000", "181910.971000", "181910.974000", "181910.977000", "181910.979000", "181910.982000", "181910.985000", "181910.988000", "181910.991000", "181910.994000", "181910.997000", "181911.001000", "181911.004000", "181911.007000", "181911.010000", "181911.020000", "181911.023000", "181911.026000", "181911.029000", "181911.032000", "181950.947000", "181950.950000", "181950.953000", "181950.956000", "181950.959000", "181950.962000", "181950.965000", "181950.968000", "181950.971000", "181950.974000", "181950.977000", "181950.980000", "181950.982000", "181950.985000", "181950.988000", "181950.991000", "181950.994000", "181950.997000", "181951.002000", "181951.005000", "181951.008000", "181951.011000", "181951.014000", "181951.017000", "181951.020000", "181951.023000", "181951.026000", "182008.001000", "182008.004000", "182008.007000", "182008.010000", "182008.013000", "182008.017000", "182008.019000", "182008.022000", "182008.025000", "182008.028000", "182008.031000", "182008.034000"],
