{
  "AcquisitionMatrixPE": 104,
  "AcquisitionNumber": 1,
  "AcquisitionTime": "16:34:45.222500",
  "BandwidthPerPixelPhaseEncode": 17.17,
  "BaseResolution": 104,
  "BodyPartExamined": "BRAIN",
  "CoilString": "HC1-7;NC1_2",
  "ConsistencyInfo": "N4_VE11C_LATEST_20160120",
  "ConversionSoftware": "dcm2niix",
  "ConversionSoftwareVersion": "v1.0.20190720  (JP2:OpenJPEG) GCC7.3.0",
  "DerivedVendorReportedEchoSpacing": 0.000560011,
  "DeviceSerialNumber": "167006",
  "DwellTime": 2.1e-06,
  "EchoTime": 0.037,
  "EchoTrainLength": 104,
  "EffectiveEchoSpacing": 0.000560011,
  "FlipAngle": 52,
  "ImageComments": "Unaliased_MB4_PE3_LB",
  "ImageOrientationPatientDICOM": [0.998515, -0.053771, -0.00874053, 0.0469141, 0.930312, -0.363757],
  "ImageType": [
    "ORIGINAL",
    "PRIMARY",
    "M",
    "MB",
    "ND",
    "MOSAIC"
],
  "ImagingFrequency": 123.259,
  "InPlanePhaseEncodingDirectionDICOM": "COL",
  "InstitutionAddress": "Chemin_Queen-Mary_4565_Montreal_District_CA_H3W_1W5",
  "InstitutionName": "IUGM",
  "InstitutionalDepartmentName": "Department",
  "MRAcquisitionType": "2D",
  "MagneticFieldStrength": 3,
  "Manufacturer": "Siemens",
  "ManufacturersModelName": "Prisma_fit",
  "Modality": "MR",
  "MultibandAccelerationFactor": 4,
  "PartialFourier": 1,
  "PatientPosition": "HFS",
  "PercentPhaseFOV": 100,
  "PhaseEncodingDirection": "j",
  "PhaseEncodingSteps": 104,
  "PhaseResolution": 1,
  "PixelBandwidth": 2290,
  "ProcedureStepDescription": "video_friends",
  "ProtocolName": "func_task-friends-s02e04b",
  "PulseSequenceDetails": "%CustomerSeq%_cmrr_mbep2d_bold",
  "ReceiveCoilActiveElements": "HC1-7;NC1,2",
  "ReceiveCoilName": "HeadNeck_64",
  "ReconMatrixPE": 104,
  "RepetitionTime": 1.49,
  "SAR": 0.0264745,
  "ScanOptions": "FS",
  "ScanningSequence": "EP",
  "SequenceName": "epfid2d1_104",
  "SequenceVariant": "SK_SS",
  "SeriesDescription": "func_task-friends-s02e04b",
  "SeriesNumber": 25,
  "ShimSetting": [629, -7262, -8815, 626, 10, -237, -85, -6],
  "SliceThickness": 2,
  "SliceTiming": [0, 0.7825, 0.0975, 0.88, 0.195, 0.98, 0.2925, 1.0775, 0.39, 1.175, 0.49, 1.2725, 0.5875, 1.37, 0.685, 0, 0.7825, 0.0975, 0.88, 0.195, 0.98, 0.2925, 1.0775, 0.39, 1.175, 0.49, 1.2725, 0.5875, 1.37, 0.685, 0, 0.7825, 0.0975, 0.88, 0.195, 0.98, 0.2925, 1.0775, 0.39, 1.175, 0.49, 1.2725, 0.5875, 1.37, 0.685, 0, 0.7825, 0.0975, 0.88, 0.195, 0.98, 0.2925, 1.0775, 0.39, 1.175, 0.49, 1.2725, 0.5875, 1.37, 0.685],
  "SoftwareVersions": "syngo_MR_E11",
  "SpacingBetweenSlices": 2,
  "StationName": "MRC35049",
  "TaskName": "friends",
  "TotalReadoutTime": 0.0576811,
  "TxRefAmp": 217.589,
  "WipMemBlock": "b81c5c26-2c98-4c61-b20c-4a36a3dc7f87||Sequence: R016 ve11c/master r/e634e98; Dec 19 2017 11:00:25 by eja",
  "dcmmeta_affine": [
    [-1.9970300197601318, 0.09382814168930054, -0.05538198724389076, 98.11275482177734],
    [0.10754206776618958, 1.8606237173080444, -0.725612998008728, -76.70418548583984],
    [-0.017481060698628426, 0.7275134325027466, 1.8629059791564941, -63.5787239074707],
    [0.0, 0.0, 0.0, 1.0]
],
  "dcmmeta_reorient_transform": [
    [0.0, -1.0, 0.0, 103.0],
    [1.0, 0.0, 0.0, 0.0],
    [0.0, 0.0, 1.0, 0.0],
    [0.0, 0.0, 0.0, 1.0]
],
  "dcmmeta_shape": [104, 104, 60, 454],
  "dcmmeta_slice_dim": 2,
  "dcmmeta_version": 0.6,
  "global": {
    "const": {
      "AcquisitionMatrix": [104, 0, 0, 104],
      "AngioFlag": "N",
      "BitsAllocated": 16,
      "BitsStored": 16,
      "BodyPartExamined": "BRAIN",
      "Columns": 832,
      "EchoNumbers": 1,
      "EchoTime": 37.0,
      "EchoTrainLength": 104,
      "FlipAngle": 52.0,
      "HighBit": 15,
      "ImageOrientationPatient": [0.99851503693429, -0.0537710344615, -0.0087405302503, 0.04691406928808, 0.93031184293732, -0.3637567112692],
      "ImagePositionPatient": [-868.84944468216, -753.06176069632, 282.53315103492],
      "ImageType": [
        "ORIGINAL",
        "PRIMARY",
        "M",
        "MB",
        "ND",
        "MOSAIC"
],
      "ImagedNucleus": "1H",
      "ImagingFrequency": 123.259132,
      "InPlanePhaseEncodingDirection": "COL",
      "MRAcquisitionType": "2D",
      "MagneticFieldStrength": 3.0,
      "Manufacturer": "SIEMENS",
      "ManufacturerModelName": "Prisma_fit",
      "Modality": "MR",
      "NumberOfAverages": 1.0,
      "NumberOfPhaseEncodingSteps": 104,
      "PercentPhaseFieldOfView": 100.0,
      "PercentSampling": 100.0,
      "PerformedProcedureStepStartTime": "143955.817000",
      "PhotometricInterpretation": "MONOCHROME2",
      "PixelBandwidth": 2290.0,
      "PixelRepresentation": 0,
      "PixelSpacing": [2.0, 2.0],
      "ProtocolName": "func_task-friends-s02e04b",
      "RepetitionTime": 1490.0,
      "Rows": 832,
      "SAR": 0.02647446388652,
      "SamplesPerPixel": 1,
      "ScanOptions": "FS",
      "ScanningSequence": "EP",
      "SequenceName": "epfid2d1_104",
      "SequenceVariant": [
        "SK",
        "SS"
],
      "SeriesDescription": "func_task-friends-s02e04b",
      "SeriesNumber": 25,
      "SeriesTime": "163606.190000",
      "SliceLocation": -34.108653945239,
      "SliceThickness": 2.0,
      "SmallestImagePixelValue": 0,
      "SoftwareVersions": "syngo MR E11",
      "SpacingBetweenSlices": 2.0000000564107,
      "SpecificCharacterSet": "ISO_IR 100",
      "StudyID": "1",
      "StudyTime": "143955.673000",
      "TransmitCoilName": "Body",
      "VariableFlipAngleFlag": "N",
      "WindowCenterWidthExplanation": "Algo1",
      "dBdt": 0.0},
    "slices": {}
  },
  "time": {
    "samples": {
      "AcquisitionNumber": [1, 2, 3, 4, 5, 6, 7, 8, 9, 10, 11, 12, 13, 14, 15, 16, 17, 18, 19, 20, 21, 22, 23, 24, 25, 26, 27, 28, 29, 30, 31, 32, 33, 34, 35, 36, 37, 38, 39, 40, 41, 42, 43, 44, 45, 46, 47, 48, 49, 50, 51, 52, 53, 54, 55, 56, 57, 58, 59, 60, 61, 62, 63, 64, 65, 66, 67, 68, 69, 70, 71, 72, 73, 74, 75, 76, 77, 78, 79, 80, 81, 82, 83, 84, 85, 86, 87, 88, 89, 90, 91, 92, 93, 94, 95, 96, 97, 98, 99, 100, 101, 102, 103, 104, 105, 106, 107, 108, 109, 110, 111, 112, 113, 114, 115, 116, 117, 118, 119, 120, 121, 122, 123, 124, 125, 126, 127, 128, 129, 130, 131, 132, 133, 134, 135, 136, 137, 138, 139, 140, 141, 142, 143, 144, 145, 146, 147, 148, 149, 150, 151, 152, 153, 154, 155, 156, 157, 158, 159, 160, 161, 162, 163, 164, 165, 166, 167, 168, 169, 170, 171, 172, 173, 174, 175, 176, 177, 178, 179, 180, 181, 182, 183, 184, 185, 186, 187, 188, 189, 190, 191, 192, 193, 194, 195, 196, 197, 198, 199, 200, 201, 202, 203, 204, 205, 206, 207, 208, 209, 210, 211, 212, 213, 214, 215, 216, 217, 218, 219, 220, 221, 222, 223, 224, 225, 226, 227, 228, 229, 230, 231, 232, 233, 234, 235, 236, 237, 238, 239, 240, 241, 242, 243, 244, 245, 246, 247, 248, 249, 250, 251, 252, 253, 254, 255, 256, 257, 258, 259, 260, 261, 262, 263, 264, 265, 266, 267, 268, 269, 270, 271, 272, 273, 274, 275, 276, 277, 278, 279, 280, 281, 282, 283, 284, 285, 286, 287, 288, 289, 290, 291, 292, 293, 294, 295, 296, 297, 298, 299, 300, 301, 302, 303, 304, 305, 306, 307, 308, 309, 310, 311, 312, 313, 314, 315, 316, 317, 318, 319, 320, 321, 322, 323, 324, 325, 326, 327, 328, 329, 330, 331, 332, 333, 334, 335, 336, 337, 338, 339, 340, 341, 342, 343, 344, 345, 346, 347, 348, 349, 350, 351, 352, 353, 354, 355, 356, 357, 358, 359, 360, 361, 362, 363, 364, 365, 366, 367, 368, 369, 370, 371, 372, 373, 374, 375, 376, 377, 378, 379, 380, 381, 382, 383, 384, 385, 386, 387, 388, 389, 390, 391, 392, 393, 394, 395, 396, 397, 398, 399, 400, 401, 402, 403, 404, 405, 406, 407, 408, 409, 410, 411, 412, 413, 414, 415, 416, 417, 418, 419, 420, 421, 422, 423, 424, 425, 426, 427, 428, 429, 430, 431, 432, 433, 434, 435, 436, 437, 438, 439, 440, 441, 442, 443, 444, 445, 446, 447, 448, 449, 450, 451, 452, 453, 454],
      "AcquisitionTime": ["163445.222500", "163446.712500", "163448.202500", "163449.692500", "163451.182500", "163452.672500", "163454.162500", "163455.652500", "163457.142500", "163458.632500", "163500.122500", "163501.612500", "163503.102500", "163504.592500", "163506.082500", "163507.572500", "163509.062500", "163510.552500", "163512.042500", "163513.532500", "163515.022500", "163516.512500", "163518.002500", "163519.492500", "163520.982500", "163522.472500", "163523.962500", "163525.452500", "163526.942500", "163528.432500", "163529.922500", "163531.412500", "163532.902500", "163534.392500", "163535.882500", "163537.372500", "163538.862500", "163540.352500", "163541.842500", "163543.332500", "163544.822500", "163546.312500", "163547.802500", "163549.292500", "163550.782500", "163552.272500", "163553.762500", "163555.252500", "163556.742500", "163558.232500", "163559.722500", "163601.212500", "163602.702500", "163604.192500", "163605.682500", "163607.172500", "163608.662500", "163610.152500", "163611.642500", "163613.132500", "163614.622500", "163616.112500", "163617.602500", "163619.092500", "163620.582500", "163622.072500", "163623.562500", "163625.052500", "163626.542500", "163628.032500", "163629.522500", "163631.012500", "163632.502500", "163633.992500", "163635.482500", "163636.972500", "163638.462500", "163639.952500", "163641.442500", "163642.932500", "163644.422500", "163645.912500", "163647.402500", "163648.892500", "163650.382500", "163651.872500", "163653.362500", "163654.852500", "163656.342500", "163657.832500", "163659.322500", "163700.812500", "163702.302500", "163703.792500", "163705.282500", "163706.772500", "163708.262500", "163709.752500", "163711.242500", "163712.732500", "163714.222500", "163715.712500", "163717.202500", "163718.692500", "163720.182500", "163721.672500", "163723.162500", "163724.652500", "163726.142500", "163727.632500", "163729.122500", "163730.612500", "163732.102500", "163733.592500", "163735.082500", "163736.572500", "163738.062500", "163739.552500", "163741.042500", "163742.532500", "163744.022500", "163745.512500", "163747.002500", "163748.492500", "163749.982500", "163751.472500", "163752.962500", "163754.452500", "163755.942500", "163757.432500", "163758.922500", "163800.412500", "163801.902500", "163803.392500", "163804.882500", "163806.372500", "163807.862500", "163809.352500", "163810.842500", "163812.332500", "163813.822500", "163815.312500", "163816.802500", "163818.292500", "163819.782500", "163821.272500", "163822.762500", "163824.252500", "163825.742500", "163827.232500", "163828.722500", "163830.212500", "163831.702500", "163833.192500", "163834.682500", "163836.172500", "163837.662500", "163839.152500", "163840.642500", "163842.132500", "163843.622500", "163845.112500", "163846.602500", "163848.092500", "163849.582500", "163851.072500", "163852.562500", "163854.052500", "163855.542500", "163857.032500", "163858.522500", "163900.012500", "163901.502500", "163902.992500", "163904.482500", "163905.972500", "163907.462500", "163908.952500", "163910.442500", "163911.932500", "163913.422500", "163914.912500", "163916.402500", "163917.892500", "163919.382500", "163920.872500", "163922.362500", "163923.852500", "163925.342500", "163926.832500", "163928.322500", "163929.812500", "163931.302500", "163932.792500", "163934.282500", "163935.772500", "163937.262500", "163938.752500", "163940.242500", "163941.732500", "163943.222500", "163944.712500", "163946.202500", "163947.692500", "163949.182500", "163950.672500", "163952.162500", "163953.652500", "163955.142500", "163956.632500", "163958.122500", "163959.612500", "164001.102500", "164002.592500", "164004.082500", "164005.572500", "164007.062500", "164008.552500", "164010.042500", "164011.532500", "164013.022500", "164014.512500", "164016.002500", "164017.492500", "164018.982500", "164020.472500", "164021.962500", "164023.452500", "164024.942500", "164026.432500", "164027.922500", "164029.412500", "164030.902500", "164032.392500", "164033.882500", "164035.372500", "164036.862500", "164038.352500", "164039.842500", "164041.332500", "164042.822500", "164044.312500", "164045.802500", "164047.292500", "164048.782500", "164050.272500", "164051.762500", "164053.252500", "164054.742500", "164056.232500", "164057.722500", "164059.212500", "164100.702500", "164102.192500", "164103.682500", "164105.172500", "164106.662500", "164108.152500", "164109.642500", "164111.132500", "164112.622500", "164114.112500", "164115.602500", "164117.092500", "164118.582500", "164120.072500", "164121.562500", "164123.052500", "164124.542500", "164126.032500", "164127.522500", "164129.012500", "164130.502500", "164131.992500", "164133.482500", "164134.972500", "164136.462500", "164137.952500", "164139.442500", "164140.932500", "164142.422500", "164143.912500", "164145.402500", "164146.892500", "164148.382500", "164149.872500", "164151.362500", "164152.852500", "164154.342500", "164155.832500", "164157.322500", "164158.812500", "164200.302500", "164201.792500", "164203.282500", "164204.772500", "164206.262500", "164207.752500", "164209.242500", "164210.732500", "164212.222500", "164213.712500", "164215.202500", "164216.692500", "164218.182500", "164219.672500", "164221.162500", "164222.652500", "164224.142500", "164225.632500", "164227.122500", "164228.612500", "164230.102500", "164231.592500", "164233.082500", "164234.572500", "164236.062500", "164237.552500", "164239.042500", "164240.532500", "164242.022500", "164243.512500", "164245.002500", "164246.492500", "164247.982500", "164249.472500", "164250.962500", "164252.452500", "164253.942500", "164255.432500", "164256.922500", "164258.412500", "164259.902500", "164301.392500", "164302.882500", "164304.372500", "164305.862500", "164307.352500", "164308.842500", "164310.332500", "164311.822500", "164313.312500", "164314.802500", "164316.292500", "164317.782500", "164319.272500", "164320.762500", "164322.252500", "164323.742500", "164325.232500", "164326.722500", "164328.212500", "164329.702500", "164331.192500", "164332.682500", "164334.172500", "164335.662500", "164337.152500", "164338.642500", "164340.132500", "164341.622500", "164343.112500", "164344.602500", "164346.092500", "164347.582500", "164349.072500", "164350.562500", "164352.052500", "164353.542500", "164355.032500", "164356.522500", "164358.012500", "164359.502500", "164400.992500", "164402.482500", "164403.972500", "164405.462500", "164406.952500", "164408.442500", "164409.932500", "164411.422500", "164412.912500", "164414.402500", "164415.892500", "164417.382500", "164418.872500", "164420.362500", "164421.852500", "164423.342500", "164424.832500", "164426.322500", "164427.812500", "164429.302500", "164430.792500", "164432.282500", "164433.772500", "164435.262500", "164436.752500", "164438.242500", "164439.732500", "164441.222500", "164442.712500", "164444.202500", "164445.692500", "164447.182500", "164448.672500", "164450.162500", "164451.652500", "164453.142500", "164454.632500", "164456.122500", "164457.612500", "164459.102500", "164500.592500", "164502.082500", "164503.572500", "164505.062500", "164506.552500", "164508.042500", "164509.532500", "164511.022500", "164512.512500", "164514.002500", "164515.492500", "164516.982500", "164518.472500", "164519.962500", "164521.452500", "164522.942500", "164524.432500", "164525.922500", "164527.412500", "164528.902500", "164530.392500", "164531.882500", "164533.372500", "164534.862500", "164536.352500", "164537.842500", "164539.332500", "164540.822500", "164542.312500", "164543.802500", "164545.292500", "164546.782500", "164548.272500", "164549.762500", "164551.252500", "164552.742500", "164554.232500", "164555.722500", "164557.212500", "164558.702500", "164600.192500"],
      "ContentTime": ["163606.193000", "163606.197000", "163606.200000", "163606.203000", "163606.213000", "163606.216000", "163606.219000", "163606.222000", "163606.224000", "163606.227000", "163606.230000", "163606.233000", "163606.236000", "163606.239000", "163606.248000", "163606.251000", "163606.254000", "163606.257000", "163606.259000", "163606.262000", "163606.265000", "163606.268000", "163606.276000", "163606.279000", "163606.282000", "163606.285000", "163606.288000", "163626.151000", "163626.154000", "163626.158000", "163626.161000", "163626.165000", "163626.168000", "163626.172000", "163626.175000", "163626.179000", "163626.182000", "163626.186000", "163626.188000", "163626.200000", "163626.204000", "163626.207000", "163626.211000", "163626.214000", "163626.218000", "163626.221000", "163626.224000", "163626.227000", "163646.151000", "163646.154000", "163646.157000", "163646.160000", "163646.162000", "163646.165000", "163646.168000", "163646.172000", "163646.175000", "163646.183000", "163646.185000", "163646.188000", "163646.191000", "163646.194000", "163646.197000", "163646.200000", "163646.203000", "163646.205000", "163646.208000", "163646.211000", "163706.150000", "163706.156000", "163706.159000", "163706.161000", "163706.164000", "163706.167000", "163706.170000", "163706.173000", "163706.176000", "163706.178000", "163706.181000", "163706.184000", "163706.187000", "163706.190000", "163706.193000", "163706.196000", "163706.199000", "163706.202000", "163706.204000", "163706.207000", "163746.151000", "163746.154000", "163746.157000", "163746.160000", "163746.163000", "163746.166000", "163746.168000", "163746.171000", "163746.174000", "163746.177000", "163746.180000", "163746.183000", "163746.186000", "163746.201000", "163746.204000", "163746.207000", "163746.210000", "163746.213000", "163746.216000", "163746.218000", "163746.221000", "163746.224000", "163746.227000", "163746.230000", "163746.233000", "163746.235000", "163746.238000", "163746.241000", "163746.244000", "163746.247000", "163746.250000", "163746.252000", "163826.151000", "163826.163000", "163826.167000", "163826.170000", "163826.174000", "163826.178000", "163826.180000", "163826.184000", "163826.187000", "163826.190000", "163826.194000", "163826.198000", "163826.201000", "163826.205000", "163826.209000", "163826.212000", "163826.216000", "163826.219000", "163826.222000", "163826.225000", "163826.229000", "163826.232000", "163826.240000", "163826.244000", "163826.248000", "163826.251000", "163826.255000", "163906.151000", "163906.156000", "163906.159000", "163906.162000", "163906.164000", "163906.167000", "163906.170000", "163906.173000", "163906.176000", "163906.178000", "163906.181000", "163906.184000", "163906.187000", "163906.190000", "163906.193000", "163906.218000", "163906.230000", "163906.232000", "163906.235000", "163906.238000", "163906.241000", "163906.244000", "163906.247000", "163906.249000", "163906.252000", "163906.255000", "163906.269000", "163946.151000", "163946.154000", "163946.157000", "163946.160000", "163946.162000", "163946.165000", "163946.168000", "163946.171000", "163946.174000", "163946.177000", "163946.179000", "163946.182000", "163946.185000", "163946.188000", "163946.191000", "163946.194000", "163946.197000", "163946.200000", "163946.203000", "163946.206000", "163946.208000", "163946.211000", "163946.214000", "163946.217000", "163946.220000", "163946.223000", "163946.225000", "164026.151000", "164026.154000", "164026.157000", "164026.160000", "164026.163000", "164026.165000", "164026.168000", "164026.171000", "164026.174000", "164026.177000", "164026.180000", "164026.183000", "164026.186000", "164026.188000", "164026.191000", "164026.194000", "164026.197000", "164026.200000", "164026.203000", "164026.206000", "164026.208000", "164026.211000", "164026.214000", "164026.217000", "164026.220000", "164026.223000", "164026.226000", "164106.151000", "164106.154000", "164106.157000", "164106.160000", "164106.163000", "164106.165000", "164106.168000", "164106.171000", "164106.174000", "164106.177000", "164106.179000", "164106.182000", "164106.185000", "164106.188000", "164106.191000", "164106.194000", "164106.197000", "164106.200000", "164106.202000", "164106.205000", "164106.214000", "164106.217000", "164106.219000", "164106.222000", "164106.225000", "164106.228000", "164146.150000", "164146.153000", "164146.156000", "164146.159000", "164146.162000", "164146.165000", "164146.168000", "164146.170000", "164146.173000", "164146.176000", "164146.179000", "164146.182000", "164146.185000", "164146.188000", "164146.190000", "164146.193000", "164146.196000", "164146.199000", "164146.202000", "164146.205000", "164146.207000", "164146.210000", "164146.213000", "164146.216000", "164146.219000", "164146.222000", "164146.225000", "164226.151000", "164226.154000", "164226.157000", "164226.160000", "164226.163000", "164226.165000", "164226.168000", "164226.171000", "164226.174000", "164226.177000", "164226.180000", "164226.183000", "164226.186000", "164226.188000", "164226.191000", "164226.194000", "164226.197000", "164226.200000", "164226.203000", "164226.206000", "164226.209000", "164226.211000", "164226.214000", "164226.217000", "164226.220000", "164226.223000", "164226.226000", "164306.151000", "164306.154000", "164306.157000", "164306.160000", "164306.163000", "164306.166000", "164306.177000", "164306.179000", "164306.182000", "164306.185000", "164306.188000", "164306.191000", "164306.194000", "164306.197000", "164306.200000", "164306.202000", "164306.205000", "164306.208000", "164306.211000", "164306.214000", "164306.216000", "164306.219000", "164306.222000", "164306.225000", "164306.228000", "164306.231000", "164306.234000", "164346.151000", "164346.154000", "164346.157000", "164346.160000", "164346.163000", "164346.166000", "164346.168000", "164346.171000", "164346.174000", "164346.177000", "164346.180000", "164346.183000", "164346.186000", "164346.188000", "164346.191000", "164346.194000", "164346.197000", "164346.200000", "164346.203000", "164346.206000", "164346.208000", "164346.211000", "164346.214000", "164346.217000", "164346.220000", "164346.222000", "164346.225000", "164426.151000", "164426.154000", "164426.157000", "164426.160000", "164426.163000", "164426.165000", "164426.168000", "164426.171000", "164426.174000", "164426.177000", "164426.180000", "164426.183000", "164426.185000", "164426.188000", "164426.191000", "164426.194000", "164426.197000", "164426.200000", "164426.202000", "164426.205000", "164426.208000", "164426.211000", "164426.214000", "164426.216000", "164426.219000", "164426.222000", "164426.225000", "164506.151000", "164506.154000", "164506.157000", "164506.160000", "164506.163000", "164506.166000", "164506.169000", "164506.171000", "164506.174000", "164506.177000", "164506.180000", "164506.183000", "164506.186000", "164506.189000", "164506.192000", "164506.194000", "164506.197000", "164506.200000", "164506.203000", "164506.206000", "164506.209000", "164506.212000", "164506.215000", "164506.218000", "164506.220000", "164506.223000", "164506.226000", "164546.151000", "164546.154000", "164546.157000", "164546.160000", "164546.163000", "164546.165000", "164546.168000", "164546.171000", "164546.174000", "164546.177000", "164546.180000", "164546.183000", "164546.186000", "164546.189000", "164546.192000", "164546.195000", "164546.197000", "164546.200000", "164546.203000", "164546.206000", "164546.209000", "164546.212000", "164546.214000", "164546.217000", "164546.220000", "164546.227000", "164602.719000", "164602.727000", "164602.730000", "164602.733000", "164602.736000", "164602.739000", "164602.742000", "164602.745000", "164602.749000", "164602.752000", "164602.755000", "164602.758000"],
