{
  "AcquisitionMatrixPE": 104,
  "AcquisitionNumber": 1,
  "AcquisitionTime": "15:58:8.727500",
  "BandwidthPerPixelPhaseEncode": 17.17,
  "BaseResolution": 104,
  "BodyPartExamined": "BRAIN",
  "CoilString": "HC1-7;NC1_2",
  "ConsistencyInfo": "N4_VE11C_LATEST_20160120",
  "ConversionSoftware": "dcm2niix",
  "ConversionSoftwareVersion": "v1.0.20190720  (JP2:OpenJPEG) GCC7.3.0",
  "DerivedVendorReportedEchoSpacing": 0.000560011,
  "DeviceSerialNumber": "167006",
  "DwellTime": 2.1e-06,
  "EchoTime": 0.037,
  "EchoTrainLength": 104,
  "EffectiveEchoSpacing": 0.000560011,
  "FlipAngle": 52,
  "ImageComments": "Unaliased_MB4_PE3_LB",
  "ImageOrientationPatientDICOM": [0.998515, -0.053771, -0.00874053, 0.0469141, 0.930312, -0.363757],
  "ImageType": [
    "ORIGINAL",
    "PRIMARY",
    "M",
    "MB",
    "ND",
    "MOSAIC"
],
  "ImagingFrequency": 123.259,
  "InPlanePhaseEncodingDirectionDICOM": "COL",
  "InstitutionAddress": "Chemin_Queen-Mary_4565_Montreal_District_CA_H3W_1W5",
  "InstitutionName": "IUGM",
  "InstitutionalDepartmentName": "Department",
  "MRAcquisitionType": "2D",
  "MagneticFieldStrength": 3,
  "Manufacturer": "Siemens",
  "ManufacturersModelName": "Prisma_fit",
  "Modality": "MR",
  "MultibandAccelerationFactor": 4,
  "PartialFourier": 1,
  "PatientPosition": "HFS",
  "PercentPhaseFOV": 100,
  "PhaseEncodingDirection": "j",
  "PhaseEncodingSteps": 104,
  "PhaseResolution": 1,
  "PixelBandwidth": 2290,
  "ProcedureStepDescription": "video_friends",
  "ProtocolName": "func_task-friends-s02e03a",
  "PulseSequenceDetails": "%CustomerSeq%_cmrr_mbep2d_bold",
  "ReceiveCoilActiveElements": "HC1-7;NC1,2",
  "ReceiveCoilName": "HeadNeck_64",
  "ReconMatrixPE": 104,
  "RepetitionTime": 1.49,
  "SAR": 0.0264769,
  "ScanOptions": "FS",
  "ScanningSequence": "EP",
  "SequenceName": "epfid2d1_104",
  "SequenceVariant": "SK_SS",
  "SeriesDescription": "func_task-friends-s02e03a",
  "SeriesNumber": 19,
  "ShimSetting": [629, -7262, -8815, 626, 10, -237, -85, -6],
  "SliceThickness": 2,
  "SliceTiming": [0, 0.7825, 0.0975, 0.88, 0.195, 0.98, 0.2925, 1.0775, 0.39, 1.175, 0.49, 1.2725, 0.5875, 1.37, 0.685, 0, 0.7825, 0.0975, 0.88, 0.195, 0.98, 0.2925, 1.0775, 0.39, 1.175, 0.49, 1.2725, 0.5875, 1.37, 0.685, 0, 0.7825, 0.0975, 0.88, 0.195, 0.98, 0.2925, 1.0775, 0.39, 1.175, 0.49, 1.2725, 0.5875, 1.37, 0.685, 0, 0.7825, 0.0975, 0.88, 0.195, 0.98, 0.2925, 1.0775, 0.39, 1.175, 0.49, 1.2725, 0.5875, 1.37, 0.685],
  "SoftwareVersions": "syngo_MR_E11",
  "SpacingBetweenSlices": 2,
  "StationName": "MRC35049",
  "TaskName": "friends",
  "TotalReadoutTime": 0.0576811,
  "TxRefAmp": 217.589,
  "WipMemBlock": "cb2b838f-df96-4383-b76c-77eb448125db||Sequence: R016 ve11c/master r/e634e98; Dec 19 2017 11:00:25 by eja",
  "dcmmeta_affine": [
    [-1.9970300197601318, 0.09382814168930054, -0.05538198724389076, 98.11275482177734],
    [0.10754206776618958, 1.8606237173080444, -0.725612998008728, -76.70418548583984],
    [-0.017481060698628426, 0.7275134325027466, 1.8629059791564941, -63.5787239074707],
    [0.0, 0.0, 0.0, 1.0]
],
  "dcmmeta_reorient_transform": [
    [0.0, -1.0, 0.0, 103.0],
    [1.0, 0.0, 0.0, 0.0],
    [0.0, 0.0, 1.0, 0.0],
    [0.0, 0.0, 0.0, 1.0]
],
  "dcmmeta_shape": [104, 104, 60, 464],
  "dcmmeta_slice_dim": 2,
  "dcmmeta_version": 0.6,
  "global": {
    "const": {
      "AcquisitionMatrix": [104, 0, 0, 104],
      "AngioFlag": "N",
      "BitsAllocated": 16,
      "BitsStored": 16,
      "BodyPartExamined": "BRAIN",
      "Columns": 832,
      "EchoNumbers": 1,
      "EchoTime": 37.0,
      "EchoTrainLength": 104,
      "FlipAngle": 52.0,
      "HighBit": 15,
      "ImageOrientationPatient": [0.99851503693429, -0.0537710344615, -0.0087405302503, 0.04691406928808, 0.93031184293732, -0.3637567112692],
      "ImagePositionPatient": [-868.84944468216, -753.06176069632, 282.53315103492],
      "ImageType": [
        "ORIGINAL",
        "PRIMARY",
        "M",
        "MB",
        "ND",
        "MOSAIC"
],
      "ImagedNucleus": "1H",
      "ImagingFrequency": 123.259127,
      "InPlanePhaseEncodingDirection": "COL",
      "MRAcquisitionType": "2D",
      "MagneticFieldStrength": 3.0,
      "Manufacturer": "SIEMENS",
      "ManufacturerModelName": "Prisma_fit",
      "Modality": "MR",
      "NumberOfAverages": 1.0,
      "NumberOfPhaseEncodingSteps": 104,
      "PercentPhaseFieldOfView": 100.0,
      "PercentSampling": 100.0,
      "PerformedProcedureStepStartTime": "143955.817000",
      "PhotometricInterpretation": "MONOCHROME2",
      "PixelBandwidth": 2290.0,
      "PixelRepresentation": 0,
      "PixelSpacing": [2.0, 2.0],
      "ProtocolName": "func_task-friends-s02e03a",
      "RepetitionTime": 1490.0,
      "Rows": 832,
      "SAR": 0.02647694478007,
      "SamplesPerPixel": 1,
      "ScanOptions": "FS",
      "ScanningSequence": "EP",
      "SequenceName": "epfid2d1_104",
      "SequenceVariant": [
        "SK",
        "SS"
],
      "SeriesDescription": "func_task-friends-s02e03a",
      "SeriesNumber": 19,
      "SeriesTime": "155926.179000",
      "SliceLocation": -34.108653945239,
      "SliceThickness": 2.0,
      "SmallestImagePixelValue": 0,
      "SoftwareVersions": "syngo MR E11",
      "SpacingBetweenSlices": 2.0000000564107,
      "SpecificCharacterSet": "ISO_IR 100",
      "StudyID": "1",
      "StudyTime": "143955.673000",
      "TransmitCoilName": "Body",
      "VariableFlipAngleFlag": "N",
      "WindowCenterWidthExplanation": "Algo1",
      "dBdt": 0.0},
    "slices": {}
  },
  "time": {
    "samples": {
      "AcquisitionNumber": [1, 2, 3, 4, 5, 6, 7, 8, 9, 10, 11, 12, 13, 14, 15, 16, 17, 18, 19, 20, 21, 22, 23, 24, 25, 26, 27, 28, 29, 30, 31, 32, 33, 34, 35, 36, 37, 38, 39, 40, 41, 42, 43, 44, 45, 46, 47, 48, 49, 50, 51, 52, 53, 54, 55, 56, 57, 58, 59, 60, 61, 62, 63, 64, 65, 66, 67, 68, 69, 70, 71, 72, 73, 74, 75, 76, 77, 78, 79, 80, 81, 82, 83, 84, 85, 86, 87, 88, 89, 90, 91, 92, 93, 94, 95, 96, 97, 98, 99, 100, 101, 102, 103, 104, 105, 106, 107, 108, 109, 110, 111, 112, 113, 114, 115, 116, 117, 118, 119, 120, 121, 122, 123, 124, 125, 126, 127, 128, 129, 130, 131, 132, 133, 134, 135, 136, 137, 138, 139, 140, 141, 142, 143, 144, 145, 146, 147, 148, 149, 150, 151, 152, 153, 154, 155, 156, 157, 158, 159, 160, 161, 162, 163, 164, 165, 166, 167, 168, 169, 170, 171, 172, 173, 174, 175, 176, 177, 178, 179, 180, 181, 182, 183, 184, 185, 186, 187, 188, 189, 190, 191, 192, 193, 194, 195, 196, 197, 198, 199, 200, 201, 202, 203, 204, 205, 206, 207, 208, 209, 210, 211, 212, 213, 214, 215, 216, 217, 218, 219, 220, 221, 222, 223, 224, 225, 226, 227, 228, 229, 230, 231, 232, 233, 234, 235, 236, 237, 238, 239, 240, 241, 242, 243, 244, 245, 246, 247, 248, 249, 250, 251, 252, 253, 254, 255, 256, 257, 258, 259, 260, 261, 262, 263, 264, 265, 266, 267, 268, 269, 270, 271, 272, 273, 274, 275, 276, 277, 278, 279, 280, 281, 282, 283, 284, 285, 286, 287, 288, 289, 290, 291, 292, 293, 294, 295, 296, 297, 298, 299, 300, 301, 302, 303, 304, 305, 306, 307, 308, 309, 310, 311, 312, 313, 314, 315, 316, 317, 318, 319, 320, 321, 322, 323, 324, 325, 326, 327, 328, 329, 330, 331, 332, 333, 334, 335, 336, 337, 338, 339, 340, 341, 342, 343, 344, 345, 346, 347, 348, 349, 350, 351, 352, 353, 354, 355, 356, 357, 358, 359, 360, 361, 362, 363, 364, 365, 366, 367, 368, 369, 370, 371, 372, 373, 374, 375, 376, 377, 378, 379, 380, 381, 382, 383, 384, 385, 386, 387, 388, 389, 390, 391, 392, 393, 394, 395, 396, 397, 398, 399, 400, 401, 402, 403, 404, 405, 406, 407, 408, 409, 410, 411, 412, 413, 414, 415, 416, 417, 418, 419, 420, 421, 422, 423, 424, 425, 426, 427, 428, 429, 430, 431, 432, 433, 434, 435, 436, 437, 438, 439, 440, 441, 442, 443, 444, 445, 446, 447, 448, 449, 450, 451, 452, 453, 454, 455, 456, 457, 458, 459, 460, 461, 462, 463, 464],
      "AcquisitionTime": ["155808.727500", "155810.217500", "155811.707500", "155813.197500", "155814.687500", "155816.177500", "155817.667500", "155819.157500", "155820.647500", "155822.137500", "155823.627500", "155825.117500", "155826.607500", "155828.097500", "155829.587500", "155831.077500", "155832.567500", "155834.057500", "155835.547500", "155837.037500", "155838.527500", "155840.017500", "155841.507500", "155842.997500", "155844.487500", "155845.977500", "155847.467500", "155848.957500", "155850.447500", "155851.937500", "155853.427500", "155854.917500", "155856.407500", "155857.897500", "155859.387500", "155900.877500", "155902.367500", "155903.857500", "155905.347500", "155906.837500", "155908.327500", "155909.817500", "155911.307500", "155912.797500", "155914.287500", "155915.777500", "155917.267500", "155918.757500", "155920.247500", "155921.737500", "155923.227500", "155924.717500", "155926.207500", "155927.697500", "155929.187500", "155930.677500", "155932.167500", "155933.657500", "155935.147500", "155936.637500", "155938.127500", "155939.617500", "155941.107500", "155942.597500", "155944.087500", "155945.577500", "155947.067500", "155948.557500", "155950.047500", "155951.537500", "155953.027500", "155954.517500", "155956.007500", "155957.497500", "155958.987500", "160000.477500", "160001.967500", "160003.457500", "160004.947500", "160006.437500", "160007.927500", "160009.417500", "160010.907500", "160012.397500", "160013.887500", "160015.377500", "160016.867500", "160018.357500", "160019.847500", "160021.337500", "160022.827500", "160024.317500", "160025.807500", "160027.297500", "160028.787500", "160030.277500", "160031.767500", "160033.257500", "160034.747500", "160036.237500", "160037.727500", "160039.217500", "160040.707500", "160042.197500", "160043.687500", "160045.177500", "160046.667500", "160048.157500", "160049.647500", "160051.137500", "160052.627500", "160054.117500", "160055.607500", "160057.097500", "160058.587500", "160100.077500", "160101.567500", "160103.057500", "160104.547500", "160106.037500", "160107.527500", "160109.017500", "160110.507500", "160111.997500", "160113.487500", "160114.977500", "160116.467500", "160117.957500", "160119.447500", "160120.937500", "160122.427500", "160123.917500", "160125.407500", "160126.897500", "160128.387500", "160129.877500", "160131.367500", "160132.857500", "160134.347500", "160135.837500", "160137.327500", "160138.817500", "160140.307500", "160141.797500", "160143.287500", "160144.777500", "160146.267500", "160147.757500", "160149.247500", "160150.737500", "160152.227500", "160153.717500", "160155.207500", "160156.697500", "160158.187500", "160159.677500", "160201.167500", "160202.657500", "160204.147500", "160205.637500", "160207.127500", "160208.617500", "160210.107500", "160211.597500", "160213.087500", "160214.577500", "160216.067500", "160217.557500", "160219.047500", "160220.537500", "160222.027500", "160223.517500", "160225.007500", "160226.497500", "160227.987500", "160229.477500", "160230.967500", "160232.457500", "160233.947500", "160235.437500", "160236.927500", "160238.417500", "160239.907500", "160241.397500", "160242.887500", "160244.377500", "160245.867500", "160247.357500", "160248.847500", "160250.337500", "160251.827500", "160253.317500", "160254.807500", "160256.297500", "160257.787500", "160259.277500", "160300.767500", "160302.257500", "160303.747500", "160305.237500", "160306.727500", "160308.217500", "160309.707500", "160311.197500", "160312.687500", "160314.177500", "160315.667500", "160317.157500", "160318.647500", "160320.137500", "160321.627500", "160323.117500", "160324.607500", "160326.097500", "160327.587500", "160329.077500", "160330.567500", "160332.057500", "160333.547500", "160335.037500", "160336.527500", "160338.017500", "160339.507500", "160340.997500", "160342.487500", "160343.977500", "160345.467500", "160346.957500", "160348.447500", "160349.937500", "160351.427500", "160352.917500", "160354.407500", "160355.897500", "160357.387500", "160358.877500", "160400.367500", "160401.857500", "160403.347500", "160404.837500", "160406.327500", "160407.817500", "160409.307500", "160410.797500", "160412.287500", "160413.777500", "160415.267500", "160416.757500", "160418.247500", "160419.737500", "160421.227500", "160422.717500", "160424.207500", "160425.697500", "160427.187500", "160428.677500", "160430.167500", "160431.657500", "160433.147500", "160434.637500", "160436.127500", "160437.617500", "160439.107500", "160440.597500", "160442.087500", "160443.577500", "160445.067500", "160446.557500", "160448.047500", "160449.537500", "160451.027500", "160452.517500", "160454.007500", "160455.497500", "160456.987500", "160458.477500", "160459.967500", "160501.457500", "160502.947500", "160504.437500", "160505.927500", "160507.417500", "160508.907500", "160510.397500", "160511.887500", "160513.377500", "160514.867500", "160516.357500", "160517.847500", "160519.337500", "160520.827500", "160522.317500", "160523.807500", "160525.297500", "160526.787500", "160528.277500", "160529.767500", "160531.257500", "160532.747500", "160534.237500", "160535.727500", "160537.217500", "160538.707500", "160540.197500", "160541.687500", "160543.177500", "160544.667500", "160546.157500", "160547.647500", "160549.137500", "160550.627500", "160552.117500", "160553.607500", "160555.097500", "160556.587500", "160558.077500", "160559.567500", "160601.057500", "160602.547500", "160604.037500", "160605.527500", "160607.017500", "160608.507500", "160609.997500", "160611.487500", "160612.977500", "160614.467500", "160615.957500", "160617.447500", "160618.937500", "160620.427500", "160621.917500", "160623.407500", "160624.897500", "160626.387500", "160627.877500", "160629.367500", "160630.857500", "160632.347500", "160633.837500", "160635.327500", "160636.817500", "160638.307500", "160639.797500", "160641.287500", "160642.777500", "160644.267500", "160645.757500", "160647.247500", "160648.737500", "160650.227500", "160651.717500", "160653.207500", "160654.697500", "160656.187500", "160657.677500", "160659.167500", "160700.657500", "160702.147500", "160703.637500", "160705.127500", "160706.617500", "160708.107500", "160709.597500", "160711.087500", "160712.577500", "160714.067500", "160715.557500", "160717.047500", "160718.537500", "160720.027500", "160721.517500", "160723.007500", "160724.497500", "160725.987500", "160727.477500", "160728.967500", "160730.457500", "160731.947500", "160733.437500", "160734.927500", "160736.417500", "160737.907500", "160739.397500", "160740.887500", "160742.377500", "160743.867500", "160745.357500", "160746.847500", "160748.337500", "160749.827500", "160751.317500", "160752.807500", "160754.297500", "160755.787500", "160757.277500", "160758.767500", "160800.257500", "160801.747500", "160803.237500", "160804.727500", "160806.217500", "160807.707500", "160809.197500", "160810.687500", "160812.177500", "160813.667500", "160815.157500", "160816.647500", "160818.137500", "160819.627500", "160821.117500", "160822.607500", "160824.097500", "160825.587500", "160827.077500", "160828.567500", "160830.057500", "160831.547500", "160833.037500", "160834.527500", "160836.017500", "160837.507500", "160838.997500", "160840.487500", "160841.977500", "160843.467500", "160844.957500", "160846.447500", "160847.937500", "160849.427500", "160850.917500", "160852.407500", "160853.897500", "160855.387500", "160856.877500", "160858.367500", "160859.857500", "160901.347500", "160902.837500", "160904.327500", "160905.817500", "160907.307500", "160908.797500", "160910.287500", "160911.777500", "160913.267500", "160914.757500", "160916.247500", "160917.737500", "160919.227500", "160920.717500", "160922.207500", "160923.697500", "160925.187500", "160926.677500", "160928.167500", "160929.657500", "160931.147500", "160932.637500", "160934.127500", "160935.617500", "160937.107500", "160938.597500"],
      "ContentTime": ["155926.181000", "155926.185000", "155926.187000", "155926.190000", "155926.193000", "155926.196000", "155926.202000", "155926.205000", "155926.208000", "155926.211000", "155926.214000", "155926.216000", "155926.219000", "155926.222000", "155926.225000", "155926.228000", "155926.230000", "155926.233000", "155926.236000", "155926.248000", "155926.251000", "155926.253000", "155926.256000", "155926.259000", "155946.151000", "155946.154000", "155946.157000", "155946.160000", "155946.162000", "155946.165000", "155946.168000", "155946.171000", "155946.174000", "155946.177000", "155946.179000", "155946.182000", "155946.185000", "155946.188000", "155946.195000", "155946.198000", "155946.202000", "155946.205000", "155946.208000", "155946.211000", "160006.150000", "160006.153000", "160006.156000", "160006.158000", "160006.161000", "160006.164000", "160006.167000", "160006.170000", "160006.172000", "160006.175000", "160006.178000", "160006.181000", "160006.184000", "160006.186000", "160006.189000", "160006.192000", "160006.195000", "160006.198000", "160006.200000", "160006.203000", "160006.206000", "160026.151000", "160026.154000", "160026.157000", "160026.160000", "160026.163000", "160026.165000", "160026.168000", "160026.171000", "160026.174000", "160026.177000", "160026.179000", "160026.182000", "160026.185000", "160026.188000", "160026.191000", "160026.194000", "160026.196000", "160026.199000", "160026.202000", "160026.208000", "160046.151000", "160046.154000", "160046.157000", "160046.160000", "160046.162000", "160046.165000", "160046.168000", "160046.171000", "160046.174000", "160046.177000", "160046.180000", "160046.182000", "160046.185000", "160046.188000", "160046.191000", "160046.194000", "160046.197000", "160046.199000", "160046.202000", "160046.205000", "160126.151000", "160126.154000", "160126.157000", "160126.160000", "160126.162000", "160126.165000", "160126.168000", "160126.171000", "160126.174000", "160126.176000", "160126.179000", "160126.182000", "160126.185000", "160126.187000", "160126.205000", "160126.208000", "160126.210000", "160126.213000", "160126.216000", "160126.219000", "160126.222000", "160126.224000", "160126.227000", "160126.230000", "160126.233000", "160126.236000", "160126.238000", "160206.151000", "160206.154000", "160206.157000", "160206.160000", "160206.163000", "160206.165000", "160206.168000", "160206.171000", "160206.174000", "160206.177000", "160206.179000", "160206.182000", "160206.185000", "160206.188000", "160206.191000", "160206.194000", "160206.197000", "160206.200000", "160206.202000", "160206.205000", "160206.208000", "160206.211000", "160206.214000", "160206.216000", "160206.219000", "160206.222000", "160246.151000", "160246.154000", "160246.157000", "160246.160000", "160246.162000", "160246.165000", "160246.168000", "160246.171000", "160246.173000", "160246.176000", "160246.179000", "160246.182000", "160246.185000", "160246.188000", "160246.191000", "160246.194000", "160246.196000", "160246.199000", "160246.202000", "160246.205000", "160246.208000", "160246.211000", "160246.214000", "160246.216000", "160246.219000", "160246.222000", "160246.225000", "160326.151000", "160326.155000", "160326.158000", "160326.161000", "160326.163000", "160326.166000", "160326.169000", "160326.172000", "160326.175000", "160326.177000", "160326.180000", "160326.183000", "160326.186000", "160326.189000", "160326.191000", "160326.194000", "160326.197000", "160326.200000", "160326.203000", "160326.205000", "160326.208000", "160326.211000", "160326.214000", "160326.217000", "160326.220000", "160326.223000", "160326.226000", "160406.151000", "160406.154000", "160406.157000", "160406.160000", "160406.163000", "160406.166000", "160406.168000", "160406.171000", "160406.174000", "160406.177000", "160406.180000", "160406.182000", "160406.185000", "160406.188000", "160406.191000", "160406.194000", "160406.197000", "160406.199000", "160406.202000", "160406.205000", "160406.208000", "160406.211000", "160406.213000", "160406.216000", "160406.219000", "160406.222000", "160406.225000", "160446.150000", "160446.153000", "160446.156000", "160446.159000", "160446.161000", "160446.164000", "160446.167000", "160446.170000", "160446.173000", "160446.176000", "160446.178000", "160446.181000", "160446.184000", "160446.187000", "160446.189000", "160446.192000", "160446.195000", "160446.198000", "160446.201000", "160446.203000", "160446.206000", "160446.209000", "160446.212000", "160446.215000", "160446.218000", "160446.221000", "160446.224000", "160526.151000", "160526.154000", "160526.157000", "160526.160000", "160526.168000", "160526.171000", "160526.174000", "160526.176000", "160526.179000", "160526.182000", "160526.185000", "160526.188000", "160526.191000", "160526.194000", "160526.196000", "160526.199000", "160526.202000", "160526.205000", "160526.208000", "160526.211000", "160526.214000", "160526.216000", "160526.219000", "160526.222000", "160526.225000", "160526.228000", "160526.231000", "160606.151000", "160606.155000", "160606.158000", "160606.160000", "160606.163000", "160606.166000", "160606.169000", "160606.172000", "160606.175000", "160606.177000", "160606.180000", "160606.183000", "160606.186000", "160606.188000", "160606.191000", "160606.194000", "160606.197000", "160606.200000", "160606.203000", "160606.205000", "160606.208000", "160606.211000", "160606.214000", "160606.217000", "160606.219000", "160606.222000", "160646.151000", "160646.154000", "160646.157000", "160646.160000", "160646.162000", "160646.166000", "160646.168000", "160646.171000", "160646.174000", "160646.177000", "160646.180000", "160646.183000", "160646.185000", "160646.188000", "160646.191000", "160646.194000", "160646.197000", "160646.200000", "160646.203000", "160646.206000", "160646.208000", "160646.211000", "160646.214000", "160646.217000", "160646.220000", "160646.222000", "160646.225000", "160726.151000", "160726.154000", "160726.157000", "160726.160000", "160726.162000", "160726.165000", "160726.168000", "160726.171000", "160726.174000", "160726.176000", "160726.179000", "160726.182000", "160726.185000", "160726.188000", "160726.190000", "160726.193000", "160726.196000", "160726.199000", "160726.202000", "160726.205000", "160726.208000", "160726.210000", "160726.213000", "160726.216000", "160726.219000", "160726.222000", "160726.225000", "160806.151000", "160806.154000", "160806.157000", "160806.160000", "160806.163000", "160806.166000", "160806.168000", "160806.171000", "160806.174000", "160806.177000", "160806.180000", "160806.183000", "160806.186000", "160806.198000", "160806.200000", "160806.204000", "160806.206000", "160806.209000", "160806.212000", "160806.215000", "160806.218000", "160806.221000", "160806.223000", "160806.226000", "160806.229000", "160806.232000", "160806.235000", "160846.151000", "160846.154000", "160846.157000", "160846.160000", "160846.163000", "160846.166000", "160846.168000", "160846.171000", "160846.174000", "160846.177000", "160846.180000", "160846.182000", "160846.185000", "160846.188000", "160846.191000", "160846.194000", "160846.196000", "160846.199000", "160846.202000", "160846.205000", "160846.208000", "160846.211000", "160846.213000", "160846.216000", "160846.219000", "160846.222000", "160846.225000", "160926.150000", "160926.160000", "160926.163000", "160926.166000", "160926.169000", "160926.172000", "160926.175000", "160926.178000", "160926.180000", "160926.183000", "160926.186000", "160926.189000", "160926.192000", "160926.195000", "160926.198000", "160926.201000", "160926.203000", "160926.206000", "160926.209000", "160926.212000", "160926.215000", "160926.218000", "160926.221000", "160926.224000", "160926.226000", "160926.229000", "160926.232000", "160940.782000", "160940.785000", "160940.789000", "160940.792000", "160940.795000", "160940.798000", "160940.806000", "160940.809000", "160940.812000", "160940.815000"],
