{
  "AcquisitionMatrixPE": 104,
  "AcquisitionNumber": 1,
  "AcquisitionTime": "16:23:0.472500",
  "BandwidthPerPixelPhaseEncode": 17.17,
  "BaseResolution": 104,
  "BodyPartExamined": "BRAIN",
  "CoilString": "HC1-7;NC1_2",
  "ConsistencyInfo": "N4_VE11C_LATEST_20160120",
  "ConversionSoftware": "dcm2niix",
  "ConversionSoftwareVersion": "v1.0.20190720  (JP2:OpenJPEG) GCC7.3.0",
  "DerivedVendorReportedEchoSpacing": 0.000560011,
  "DeviceSerialNumber": "167006",
  "DwellTime": 2.1e-06,
  "EchoTime": 0.037,
  "EchoTrainLength": 104,
  "EffectiveEchoSpacing": 0.000560011,
  "FlipAngle": 52,
  "ImageComments": "Unaliased_MB4_PE3_LB",
  "ImageOrientationPatientDICOM": [0.998515, -0.053771, -0.00874053, 0.0469141, 0.930312, -0.363757],
  "ImageType": [
    "ORIGINAL",
    "PRIMARY",
    "M",
    "MB",
    "ND",
    "MOSAIC"
],
  "ImagingFrequency": 123.259,
  "InPlanePhaseEncodingDirectionDICOM": "COL",
  "InstitutionAddress": "Chemin_Queen-Mary_4565_Montreal_District_CA_H3W_1W5",
  "InstitutionName": "IUGM",
  "InstitutionalDepartmentName": "Department",
  "MRAcquisitionType": "2D",
  "MagneticFieldStrength": 3,
  "Manufacturer": "Siemens",
  "ManufacturersModelName": "Prisma_fit",
  "Modality": "MR",
  "MultibandAccelerationFactor": 4,
  "PartialFourier": 1,
  "PatientPosition": "HFS",
  "PercentPhaseFOV": 100,
  "PhaseEncodingDirection": "j",
  "PhaseEncodingSteps": 104,
  "PhaseResolution": 1,
  "PixelBandwidth": 2290,
  "ProcedureStepDescription": "video_friends",
  "ProtocolName": "func_task-friends-s02e04a",
  "PulseSequenceDetails": "%CustomerSeq%_cmrr_mbep2d_bold",
  "ReceiveCoilActiveElements": "HC1-7;NC1,2",
  "ReceiveCoilName": "HeadNeck_64",
  "ReconMatrixPE": 104,
  "RepetitionTime": 1.49,
  "SAR": 0.0264745,
  "ScanOptions": "FS",
  "ScanningSequence": "EP",
  "SequenceName": "epfid2d1_104",
  "SequenceVariant": "SK_SS",
  "SeriesDescription": "func_task-friends-s02e04a",
  "SeriesNumber": 23,
  "ShimSetting": [629, -7262, -8815, 626, 10, -237, -85, -6],
  "SliceThickness": 2,
  "SliceTiming": [0, 0.7825, 0.0975, 0.8825, 0.195, 0.98, 0.2925, 1.0775, 0.3925, 1.175, 0.49, 1.2725, 0.5875, 1.3725, 0.685, 0, 0.7825, 0.0975, 0.8825, 0.195, 0.98, 0.2925, 1.0775, 0.3925, 1.175, 0.49, 1.2725, 0.5875, 1.3725, 0.685, 0, 0.7825, 0.0975, 0.8825, 0.195, 0.98, 0.2925, 1.0775, 0.3925, 1.175, 0.49, 1.2725, 0.5875, 1.3725, 0.685, 0, 0.7825, 0.0975, 0.8825, 0.195, 0.98, 0.2925, 1.0775, 0.3925, 1.175, 0.49, 1.2725, 0.5875, 1.3725, 0.685],
  "SoftwareVersions": "syngo_MR_E11",
  "SpacingBetweenSlices": 2,
  "StationName": "MRC35049",
  "TaskName": "friends",
  "TotalReadoutTime": 0.0576811,
  "TxRefAmp": 217.589,
  "WipMemBlock": "c1afe0e3-f853-46b4-a96d-330ee8bb86b3||Sequence: R016 ve11c/master r/e634e98; Dec 19 2017 11:00:25 by eja",
  "dcmmeta_affine": [
    [-1.9970300197601318, 0.09382814168930054, -0.05538198724389076, 98.11275482177734],
    [0.10754206776618958, 1.8606237173080444, -0.725612998008728, -76.70418548583984],
    [-0.017481060698628426, 0.7275134325027466, 1.8629059791564941, -63.5787239074707],
    [0.0, 0.0, 0.0, 1.0]
],
  "dcmmeta_reorient_transform": [
    [0.0, -1.0, 0.0, 103.0],
    [1.0, 0.0, 0.0, 0.0],
    [0.0, 0.0, 1.0, 0.0],
    [0.0, 0.0, 0.0, 1.0]
],
  "dcmmeta_shape": [104, 104, 60, 454],
  "dcmmeta_slice_dim": 2,
  "dcmmeta_version": 0.6,
  "global": {
    "const": {
      "AcquisitionMatrix": [104, 0, 0, 104],
      "AngioFlag": "N",
      "BitsAllocated": 16,
      "BitsStored": 16,
      "BodyPartExamined": "BRAIN",
      "Columns": 832,
      "EchoNumbers": 1,
      "EchoTime": 37.0,
      "EchoTrainLength": 104,
      "FlipAngle": 52.0,
      "HighBit": 15,
      "ImageOrientationPatient": [0.99851503693429, -0.0537710344615, -0.0087405302503, 0.04691406928808, 0.93031184293732, -0.3637567112692],
      "ImagePositionPatient": [-868.84944468216, -753.06176069632, 282.53315103492],
      "ImageType": [
        "ORIGINAL",
        "PRIMARY",
        "M",
        "MB",
        "ND",
        "MOSAIC"
],
      "ImagedNucleus": "1H",
      "ImagingFrequency": 123.259127,
      "InPlanePhaseEncodingDirection": "COL",
      "MRAcquisitionType": "2D",
      "MagneticFieldStrength": 3.0,
      "Manufacturer": "SIEMENS",
      "ManufacturerModelName": "Prisma_fit",
      "Modality": "MR",
      "NumberOfAverages": 1.0,
      "NumberOfPhaseEncodingSteps": 104,
      "PercentPhaseFieldOfView": 100.0,
      "PercentSampling": 100.0,
      "PerformedProcedureStepStartTime": "143955.817000",
      "PhotometricInterpretation": "MONOCHROME2",
      "PixelBandwidth": 2290.0,
      "PixelRepresentation": 0,
      "PixelSpacing": [2.0, 2.0],
      "ProtocolName": "func_task-friends-s02e04a",
      "RepetitionTime": 1490.0,
      "Rows": 832,
      "SAR": 0.02647446388652,
      "SamplesPerPixel": 1,
      "ScanOptions": "FS",
      "ScanningSequence": "EP",
      "SequenceName": "epfid2d1_104",
      "SequenceVariant": [
        "SK",
        "SS"
],
      "SeriesDescription": "func_task-friends-s02e04a",
      "SeriesNumber": 23,
      "SeriesTime": "162436.084000",
      "SliceLocation": -34.108653945239,
      "SliceThickness": 2.0,
      "SmallestImagePixelValue": 0,
      "SoftwareVersions": "syngo MR E11",
      "SpacingBetweenSlices": 2.0000000564107,
      "SpecificCharacterSet": "ISO_IR 100",
      "StudyID": "1",
      "StudyTime": "143955.673000",
      "TransmitCoilName": "Body",
      "VariableFlipAngleFlag": "N",
      "WindowCenterWidthExplanation": "Algo1",
      "dBdt": 0.0},
    "slices": {}
  },
  "time": {
    "samples": {
      "AcquisitionNumber": [1, 2, 3, 4, 5, 6, 7, 8, 9, 10, 11, 12, 13, 14, 15, 16, 17, 18, 19, 20, 21, 22, 23, 24, 25, 26, 27, 28, 29, 30, 31, 32, 33, 34, 35, 36, 37, 38, 39, 40, 41, 42, 43, 44, 45, 46, 47, 48, 49, 50, 51, 52, 53, 54, 55, 56, 57, 58, 59, 60, 61, 62, 63, 64, 65, 66, 67, 68, 69, 70, 71, 72, 73, 74, 75, 76, 77, 78, 79, 80, 81, 82, 83, 84, 85, 86, 87, 88, 89, 90, 91, 92, 93, 94, 95, 96, 97, 98, 99, 100, 101, 102, 103, 104, 105, 106, 107, 108, 109, 110, 111, 112, 113, 114, 115, 116, 117, 118, 119, 120, 121, 122, 123, 124, 125, 126, 127, 128, 129, 130, 131, 132, 133, 134, 135, 136, 137, 138, 139, 140, 141, 142, 143, 144, 145, 146, 147, 148, 149, 150, 151, 152, 153, 154, 155, 156, 157, 158, 159, 160, 161, 162, 163, 164, 165, 166, 167, 168, 169, 170, 171, 172, 173, 174, 175, 176, 177, 178, 179, 180, 181, 182, 183, 184, 185, 186, 187, 188, 189, 190, 191, 192, 193, 194, 195, 196, 197, 198, 199, 200, 201, 202, 203, 204, 205, 206, 207, 208, 209, 210, 211, 212, 213, 214, 215, 216, 217, 218, 219, 220, 221, 222, 223, 224, 225, 226, 227, 228, 229, 230, 231, 232, 233, 234, 235, 236, 237, 238, 239, 240, 241, 242, 243, 244, 245, 246, 247, 248, 249, 250, 251, 252, 253, 254, 255, 256, 257, 258, 259, 260, 261, 262, 263, 264, 265, 266, 267, 268, 269, 270, 271, 272, 273, 274, 275, 276, 277, 278, 279, 280, 281, 282, 283, 284, 285, 286, 287, 288, 289, 290, 291, 292, 293, 294, 295, 296, 297, 298, 299, 300, 301, 302, 303, 304, 305, 306, 307, 308, 309, 310, 311, 312, 313, 314, 315, 316, 317, 318, 319, 320, 321, 322, 323, 324, 325, 326, 327, 328, 329, 330, 331, 332, 333, 334, 335, 336, 337, 338, 339, 340, 341, 342, 343, 344, 345, 346, 347, 348, 349, 350, 351, 352, 353, 354, 355, 356, 357, 358, 359, 360, 361, 362, 363, 364, 365, 366, 367, 368, 369, 370, 371, 372, 373, 374, 375, 376, 377, 378, 379, 380, 381, 382, 383, 384, 385, 386, 387, 388, 389, 390, 391, 392, 393, 394, 395, 396, 397, 398, 399, 400, 401, 402, 403, 404, 405, 406, 407, 408, 409, 410, 411, 412, 413, 414, 415, 416, 417, 418, 419, 420, 421, 422, 423, 424, 425, 426, 427, 428, 429, 430, 431, 432, 433, 434, 435, 436, 437, 438, 439, 440, 441, 442, 443, 444, 445, 446, 447, 448, 449, 450, 451, 452, 453, 454],
      "AcquisitionTime": ["162300.472500", "162301.962500", "162303.452500", "162304.942500", "162306.432500", "162307.922500", "162309.412500", "162310.902500", "162312.392500", "162313.882500", "162315.372500", "162316.862500", "162318.352500", "162319.842500", "162321.332500", "162322.822500", "162324.312500", "162325.802500", "162327.292500", "162328.782500", "162330.272500", "162331.762500", "162333.252500", "162334.742500", "162336.232500", "162337.722500", "162339.212500", "162340.702500", "162342.192500", "162343.682500", "162345.172500", "162346.662500", "162348.152500", "162349.642500", "162351.132500", "162352.622500", "162354.112500", "162355.602500", "162357.092500", "162358.582500", "162400.072500", "162401.562500", "162403.052500", "162404.542500", "162406.032500", "162407.522500", "162409.012500", "162410.502500", "162411.992500", "162413.482500", "162414.972500", "162416.462500", "162417.952500", "162419.442500", "162420.932500", "162422.422500", "162423.912500", "162425.402500", "162426.892500", "162428.382500", "162429.872500", "162431.362500", "162432.852500", "162434.342500", "162435.832500", "162437.322500", "162438.812500", "162440.302500", "162441.792500", "162443.282500", "162444.772500", "162446.262500", "162447.752500", "162449.242500", "162450.732500", "162452.222500", "162453.712500", "162455.202500", "162456.692500", "162458.182500", "162459.672500", "162501.162500", "162502.652500", "162504.142500", "162505.632500", "162507.122500", "162508.612500", "162510.102500", "162511.592500", "162513.082500", "162514.572500", "162516.062500", "162517.552500", "162519.042500", "162520.532500", "162522.022500", "162523.512500", "162525.002500", "162526.492500", "162527.982500", "162529.472500", "162530.962500", "162532.452500", "162533.942500", "162535.432500", "162536.922500", "162538.412500", "162539.902500", "162541.392500", "162542.882500", "162544.372500", "162545.862500", "162547.352500", "162548.842500", "162550.332500", "162551.822500", "162553.312500", "162554.802500", "162556.292500", "162557.782500", "162559.272500", "162600.762500", "162602.252500", "162603.742500", "162605.232500", "162606.722500", "162608.212500", "162609.702500", "162611.192500", "162612.682500", "162614.172500", "162615.662500", "162617.152500", "162618.642500", "162620.132500", "162621.622500", "162623.112500", "162624.602500", "162626.092500", "162627.582500", "162629.072500", "162630.562500", "162632.052500", "162633.542500", "162635.032500", "162636.522500", "162638.012500", "162639.502500", "162640.992500", "162642.482500", "162643.972500", "162645.462500", "162646.952500", "162648.442500", "162649.932500", "162651.422500", "162652.912500", "162654.402500", "162655.892500", "162657.382500", "162658.872500", "162700.362500", "162701.852500", "162703.342500", "162704.832500", "162706.322500", "162707.812500", "162709.302500", "162710.792500", "162712.282500", "162713.772500", "162715.262500", "162716.752500", "162718.242500", "162719.732500", "162721.222500", "162722.712500", "162724.202500", "162725.692500", "162727.182500", "162728.672500", "162730.162500", "162731.652500", "162733.142500", "162734.632500", "162736.122500", "162737.612500", "162739.102500", "162740.592500", "162742.082500", "162743.572500", "162745.062500", "162746.552500", "162748.042500", "162749.532500", "162751.022500", "162752.512500", "162754.002500", "162755.492500", "162756.982500", "162758.472500", "162759.962500", "162801.452500", "162802.942500", "162804.432500", "162805.922500", "162807.412500", "162808.902500", "162810.392500", "162811.882500", "162813.372500", "162814.862500", "162816.352500", "162817.842500", "162819.332500", "162820.822500", "162822.312500", "162823.802500", "162825.292500", "162826.782500", "162828.272500", "162829.762500", "162831.252500", "162832.742500", "162834.232500", "162835.722500", "162837.212500", "162838.702500", "162840.192500", "162841.682500", "162843.172500", "162844.662500", "162846.152500", "162847.642500", "162849.132500", "162850.622500", "162852.112500", "162853.602500", "162855.092500", "162856.582500", "162858.072500", "162859.562500", "162901.052500", "162902.542500", "162904.032500", "162905.522500", "162907.012500", "162908.502500", "162909.992500", "162911.482500", "162912.972500", "162914.462500", "162915.952500", "162917.442500", "162918.932500", "162920.422500", "162921.912500", "162923.402500", "162924.892500", "162926.382500", "162927.872500", "162929.362500", "162930.852500", "162932.342500", "162933.832500", "162935.322500", "162936.812500", "162938.302500", "162939.792500", "162941.282500", "162942.772500", "162944.262500", "162945.752500", "162947.242500", "162948.732500", "162950.222500", "162951.712500", "162953.202500", "162954.692500", "162956.182500", "162957.672500", "162959.162500", "163000.652500", "163002.142500", "163003.632500", "163005.122500", "163006.612500", "163008.102500", "163009.592500", "163011.082500", "163012.572500", "163014.062500", "163015.552500", "163017.042500", "163018.532500", "163020.022500", "163021.512500", "163023.002500", "163024.492500", "163025.982500", "163027.472500", "163028.962500", "163030.452500", "163031.942500", "163033.432500", "163034.922500", "163036.412500", "163037.902500", "163039.392500", "163040.882500", "163042.372500", "163043.862500", "163045.352500", "163046.842500", "163048.332500", "163049.822500", "163051.312500", "163052.802500", "163054.292500", "163055.782500", "163057.272500", "163058.762500", "163100.252500", "163101.742500", "163103.232500", "163104.722500", "163106.212500", "163107.702500", "163109.192500", "163110.682500", "163112.172500", "163113.662500", "163115.152500", "163116.642500", "163118.132500", "163119.622500", "163121.112500", "163122.602500", "163124.092500", "163125.582500", "163127.072500", "163128.562500", "163130.052500", "163131.542500", "163133.032500", "163134.522500", "163136.012500", "163137.502500", "163138.992500", "163140.482500", "163141.972500", "163143.462500", "163144.952500", "163146.442500", "163147.932500", "163149.422500", "163150.912500", "163152.402500", "163153.892500", "163155.382500", "163156.872500", "163158.362500", "163159.852500", "163201.342500", "163202.832500", "163204.322500", "163205.812500", "163207.302500", "163208.792500", "163210.282500", "163211.772500", "163213.262500", "163214.752500", "163216.242500", "163217.732500", "163219.222500", "163220.712500", "163222.202500", "163223.692500", "163225.182500", "163226.672500", "163228.162500", "163229.652500", "163231.142500", "163232.632500", "163234.122500", "163235.612500", "163237.102500", "163238.592500", "163240.082500", "163241.572500", "163243.062500", "163244.552500", "163246.042500", "163247.532500", "163249.022500", "163250.512500", "163252.002500", "163253.492500", "163254.982500", "163256.472500", "163257.962500", "163259.452500", "163300.942500", "163302.432500", "163303.922500", "163305.412500", "163306.902500", "163308.392500", "163309.882500", "163311.372500", "163312.862500", "163314.352500", "163315.842500", "163317.332500", "163318.822500", "163320.312500", "163321.802500", "163323.292500", "163324.782500", "163326.272500", "163327.762500", "163329.252500", "163330.742500", "163332.232500", "163333.722500", "163335.212500", "163336.702500", "163338.192500", "163339.682500", "163341.172500", "163342.662500", "163344.152500", "163345.642500", "163347.132500", "163348.622500", "163350.112500", "163351.602500", "163353.092500", "163354.582500", "163356.072500", "163357.562500", "163359.052500", "163400.542500", "163402.032500", "163403.522500", "163405.012500", "163406.502500", "163407.992500", "163409.482500", "163410.972500", "163412.462500", "163413.952500", "163415.442500"],
      "ContentTime": ["162436.087000", "162436.090000", "162436.093000", "162436.096000", "162436.099000", "162436.101000", "162436.104000", "162436.107000", "162436.110000", "162436.113000", "162436.124000", "162436.127000", "162436.130000", "162436.133000", "162436.136000", "162436.139000", "162436.141000", "162436.144000", "162436.147000", "162436.150000", "162436.153000", "162436.155000", "162436.158000", "162436.161000", "162436.164000", "162436.167000", "162436.170000", "162436.173000", "162436.175000", "162436.178000", "162436.181000", "162436.184000", "162436.187000", "162436.190000", "162436.192000", "162436.195000", "162436.198000", "162436.201000", "162436.204000", "162456.051000", "162456.054000", "162456.057000", "162456.060000", "162456.062000", "162456.065000", "162456.068000", "162456.071000", "162456.074000", "162456.077000", "162456.079000", "162456.082000", "162456.085000", "162456.088000", "162456.091000", "162456.094000", "162456.096000", "162456.099000", "162456.113000", "162456.116000", "162516.050000", "162516.053000", "162516.056000", "162516.059000", "162516.061000", "162516.064000", "162516.067000", "162516.070000", "162516.073000", "162516.076000", "162516.079000", "162516.082000", "162516.084000", "162516.087000", "162516.090000", "162516.093000", "162516.096000", "162516.099000", "162516.101000", "162516.104000", "162536.050000", "162536.053000", "162536.063000", "162536.066000", "162536.069000", "162536.072000", "162536.075000", "162536.077000", "162536.080000", "162536.083000", "162536.086000", "162536.089000", "162536.092000", "162536.095000", "162536.098000", "162536.100000", "162536.103000", "162536.106000", "162536.109000", "162536.112000", "162536.115000", "162616.050000", "162616.053000", "162616.056000", "162616.058000", "162616.061000", "162616.064000", "162616.067000", "162616.070000", "162616.072000", "162616.075000", "162616.078000", "162616.081000", "162616.084000", "162616.086000", "162616.089000", "162616.092000", "162616.095000", "162616.098000", "162616.100000", "162616.113000", "162616.116000", "162616.119000", "162616.122000", "162616.125000", "162616.128000", "162616.130000", "162616.133000", "162616.136000", "162616.139000", "162616.142000", "162656.051000", "162656.054000", "162656.057000", "162656.060000", "162656.063000", "162656.066000", "162656.069000", "162656.071000", "162656.074000", "162656.077000", "162656.080000", "162656.083000", "162656.085000", "162656.088000", "162656.091000", "162656.094000", "162656.103000", "162656.105000", "162656.108000", "162656.111000", "162656.114000", "162656.117000", "162656.120000", "162656.123000", "162656.126000", "162656.129000", "162656.132000", "162736.050000", "162736.053000", "162736.056000", "162736.059000", "162736.062000", "162736.064000", "162736.067000", "162736.070000", "162736.073000", "162736.076000", "162736.079000", "162736.082000", "162736.084000", "162736.087000", "162736.090000", "162736.093000", "162736.096000", "162736.099000", "162736.101000", "162736.104000", "162736.107000", "162736.110000", "162736.113000", "162736.116000", "162736.119000", "162736.122000", "162736.124000", "162816.050000", "162816.053000", "162816.059000", "162816.062000", "162816.065000", "162816.068000", "162816.071000", "162816.080000", "162816.083000", "162816.086000", "162816.089000", "162816.091000", "162816.094000", "162816.097000", "162816.100000", "162816.103000", "162816.106000", "162816.108000", "162816.111000", "162816.114000", "162816.117000", "162816.120000", "162816.123000", "162816.125000", "162816.128000", "162816.131000", "162816.134000", "162856.050000", "162856.058000", "162856.061000", "162856.064000", "162856.067000", "162856.070000", "162856.073000", "162856.075000", "162856.078000", "162856.081000", "162856.084000", "162856.087000", "162856.090000", "162856.092000", "162856.095000", "162856.098000", "162856.101000", "162856.104000", "162856.107000", "162856.110000", "162856.113000", "162856.116000", "162856.118000", "162856.121000", "162856.124000", "162856.127000", "162856.130000", "162936.052000", "162936.055000", "162936.059000", "162936.075000", "162936.078000", "162936.081000", "162936.083000", "162936.086000", "162936.089000", "162936.092000", "162936.095000", "162936.097000", "162936.103000", "162936.106000", "162936.109000", "162936.112000", "162936.115000", "162936.118000", "162936.121000", "162936.123000", "162936.132000", "162936.135000", "162936.138000", "162936.141000", "162936.144000", "162936.146000", "163016.050000", "163016.053000", "163016.062000", "163016.065000", "163016.068000", "163016.070000", "163016.073000", "163016.076000", "163016.079000", "163016.082000", "163016.085000", "163016.088000", "163016.091000", "163016.093000", "163016.096000", "163016.099000", "163016.102000", "163016.105000", "163016.108000", "163016.111000", "163016.113000", "163016.116000", "163016.119000", "163016.122000", "163016.125000", "163016.128000", "163016.131000", "163056.050000", "163056.053000", "163056.056000", "163056.060000", "163056.063000", "163056.066000", "163056.069000", "163056.072000", "163056.075000", "163056.078000", "163056.081000", "163056.084000", "163056.087000", "163056.095000", "163056.099000", "163056.102000", "163056.105000", "163056.120000", "163056.124000", "163056.127000", "163056.129000", "163056.132000", "163056.135000", "163056.138000", "163056.141000", "163056.144000", "163056.146000", "163136.051000", "163136.054000", "163136.063000", "163136.066000", "163136.077000", "163136.080000", "163136.083000", "163136.086000", "163136.090000", "163136.093000", "163136.096000", "163136.099000", "163136.102000", "163136.105000", "163136.107000", "163136.110000", "163136.113000", "163136.116000", "163136.119000", "163136.122000", "163136.125000", "163136.127000", "163136.130000", "163136.133000", "163136.136000", "163136.139000", "163136.142000", "163216.050000", "163216.054000", "163216.056000", "163216.060000", "163216.063000", "163216.065000", "163216.068000", "163216.071000", "163216.074000", "163216.077000", "163216.080000", "163216.083000", "163216.085000", "163216.088000", "163216.091000", "163216.094000", "163216.097000", "163216.100000", "163216.103000", "163216.106000", "163216.114000", "163216.117000", "163216.119000", "163216.122000", "163216.125000", "163216.128000", "163216.131000", "163256.050000", "163256.053000", "163256.063000", "163256.066000", "163256.069000", "163256.072000", "163256.075000", "163256.078000", "163256.081000", "163256.083000", "163256.087000", "163256.089000", "163256.092000", "163256.095000", "163256.098000", "163256.101000", "163256.104000", "163256.107000", "163256.110000", "163256.113000", "163256.116000", "163256.118000", "163256.121000", "163256.124000", "163256.127000", "163256.130000", "163256.133000", "163336.050000", "163336.053000", "163336.056000", "163336.059000", "163336.062000", "163336.065000", "163336.068000", "163336.070000", "163336.073000", "163336.076000", "163336.079000", "163336.082000", "163336.085000", "163336.088000", "163336.091000", "163336.094000", "163336.096000", "163336.099000", "163336.102000", "163336.105000", "163336.108000", "163336.111000", "163336.114000", "163336.116000", "163336.119000", "163336.122000", "163336.125000", "163416.051000", "163416.054000", "163416.057000", "163416.060000", "163416.062000", "163416.065000", "163416.068000", "163416.071000", "163416.074000", "163416.076000", "163416.084000", "163416.087000", "163416.090000", "163416.093000", "163416.096000", "163416.099000", "163416.102000", "163416.105000", "163416.108000", "163416.111000", "163416.114000", "163416.116000", "163416.119000", "163416.122000", "163416.125000", "163416.128000", "163417.713000", "163417.717000"],
