{
  "AcquisitionMatrixPE": 104,
  "AcquisitionNumber": 1,
  "AcquisitionTime": "16:44:56.075000",
  "BandwidthPerPixelPhaseEncode": 17.17,
  "BaseResolution": 104,
  "BodyPartExamined": "BRAIN",
  "CoilCombinationMethod": "Sum of Squares",
  "ConsistencyInfo": "N4_VE11C_LATEST_20160120",
  "ConversionSoftware": "dcm2niix",
  "ConversionSoftwareVersion": "v1.0.20230411",
  "DerivedVendorReportedEchoSpacing": 0.000560011,
  "DeviceSerialNumber": "167006",
  "DwellTime": 2.1e-06,
  "EchoTime": 0.037,
  "EchoTrainLength": 104,
  "EffectiveEchoSpacing": 0.000560011,
  "FlipAngle": 52,
  "HeudiconvVersion": "0.5.3.post861+ge7d3c7f",
  "ImageComments": "Unaliased MB4/PE3/LB",
  "ImageOrientationPatientDICOM": [0.999165, 0.00188508, 0.0408065, 0.0190105, 0.862714, -0.505334],
  "ImageOrientationText": "Tra>Cor(-30.4)>Sag(2.1)",
  "ImageType": [
    "ORIGINAL",
    "PRIMARY",
    "M",
    "MB",
    "ND",
    "MOSAIC"
],
  "ImagingFrequency": 123.250064,
  "InPlanePhaseEncodingDirectionDICOM": "COL",
  "InstitutionAddress": "Chemin Queen-Mary 4565,Montreal,District,CA,H3W 1W5",
  "InstitutionName": "IUGM",
  "InstitutionalDepartmentName": "Department",
  "MRAcquisitionType": "2D",
  "MagneticFieldStrength": 3,
  "Manufacturer": "Siemens",
  "ManufacturersModelName": "Prisma_fit",
  "MatrixCoilMode": "SENSE",
  "Modality": "MR",
  "MultibandAccelerationFactor": 4,
  "NonlinearGradientCorrection": false,
  "PartialFourier": 1,
  "PatientPosition": "HFS",
  "PercentPhaseFOV": 100,
  "PercentSampling": 100,
  "PhaseEncodingDirection": "j",
  "PhaseEncodingSteps": 104,
  "PhaseResolution": 1,
  "PixelBandwidth": 2290,
  "ProcedureStepDescription": "video^friends",
  "ProtocolName": "func_task-friends-s07e05b",
  "PulseSequenceDetails": "%CustomerSeq%\\cmrr_mbep2d_bold",
  "ReceiveCoilActiveElements": "HC1-7;NC1,2",
  "ReceiveCoilName": "HeadNeck_64",
  "ReconMatrixPE": 104,
  "RepetitionTime": 1.49,
  "SAR": 0.0705784,
  "ScanOptions": "FS",
  "ScanningSequence": "EP",
  "SequenceName": "epfid2d1_104",
  "SequenceVariant": "SK\\SS",
  "SeriesDescription": "func_task-friends-s07e05b",
  "SeriesNumber": 18,
  "ShimSetting": [605, -7195, -8862, 303, 47, -151, -173, 88],
  "SliceThickness": 2,
  "SliceTiming": [0, 0.7825, 0.0975, 0.8825, 0.195, 0.98, 0.2925, 1.0775, 0.3925, 1.175, 0.49, 1.2725, 0.5875, 1.3725, 0.685, 0, 0.7825, 0.0975, 0.8825, 0.195, 0.98, 0.2925, 1.0775, 0.3925, 1.175, 0.49, 1.2725, 0.5875, 1.3725, 0.685, 0, 0.7825, 0.0975, 0.8825, 0.195, 0.98, 0.2925, 1.0775, 0.3925, 1.175, 0.49, 1.2725, 0.5875, 1.3725, 0.685, 0, 0.7825, 0.0975, 0.8825, 0.195, 0.98, 0.2925, 1.0775, 0.3925, 1.175, 0.49, 1.2725, 0.5875, 1.3725, 0.685],
  "SoftwareVersions": "syngo MR E11",
  "SpacingBetweenSlices": 2,
  "StationName": "MRC35049",
  "TaskName": "s07e05b",
  "TotalReadoutTime": 0.0576811,
  "TxRefAmp": 302.178,
  "WipMemBlock": "f6e15f2c-d8ef-4321-946e-76fe8fa22c8c||Sequence: R017 ve11c/master r/75a17815+; Jun 28 2022 16:32:11 by eja",
  "dcmmeta_affine": [
    [-1.9983305931091309, 0.038020942360162735, 0.0723138302564621, 101.09858703613281],
    [-0.0037701574619859457, 1.7254289388656616, -1.0113757848739624, -58.42766571044922],
    [0.08161291480064392, 1.0106678009033203, 1.723917007446289, -99.59961700439453],
    [0.0, 0.0, 0.0, 1.0]
],
  "dcmmeta_reorient_transform": [
    [0.0, -1.0, 0.0, 103.0],
    [1.0, 0.0, 0.0, 0.0],
    [0.0, 0.0, 1.0, 0.0],
    [0.0, 0.0, 0.0, 1.0]
],
  "dcmmeta_shape": [104, 104, 60, 488],
  "dcmmeta_slice_dim": 2,
  "dcmmeta_version": 0.6,
  "global": {
    "const": {
      "AcquisitionMatrix": [104, 0, 0, 104],
      "AngioFlag": "N",
      "BitsAllocated": 16,
      "BitsStored": 16,
      "BodyPartExamined": "BRAIN",
      "Columns": 832,
      "EchoNumbers": 1,
      "EchoTime": 37.0,
      "EchoTrainLength": 104,
      "FlipAngle": 52.0,
      "HighBit": 15,
      "ImageOrientationPatient": [0.99916529143633, 0.00188507870874, 0.0408064561953, 0.0190104702716, 0.86271445176602, -0.5053339259679],
      "ImagePositionPatient": [-846.24670218678, -748.71997067092, 342.675171196],
      "ImageType": [
        "ORIGINAL",
        "PRIMARY",
        "M",
        "MB",
        "ND",
        "MOSAIC"
],
      "ImagedNucleus": "1H",
      "ImagingFrequency": 123.250064,
      "InPlanePhaseEncodingDirection": "COL",
      "MRAcquisitionType": "2D",
      "MagneticFieldStrength": 3.0,
      "Manufacturer": "SIEMENS",
      "ManufacturerModelName": "Prisma_fit",
      "Modality": "MR",
      "NumberOfAverages": 1.0,
      "NumberOfPhaseEncodingSteps": 104,
      "PercentPhaseFieldOfView": 100.0,
      "PercentSampling": 100.0,
      "PerformedProcedureStepStartTime": "153319.472000",
      "PhotometricInterpretation": "MONOCHROME2",
      "PixelBandwidth": 2290.0,
      "PixelRepresentation": 0,
      "PixelSpacing": [2.0, 2.0],
      "ProtocolName": "func_task-friends-s07e05b",
      "RepetitionTime": 1490.0,
      "Rows": 832,
      "SAR": 0.07057837391927,
      "SamplesPerPixel": 1,
      "ScanOptions": "FS",
      "ScanningSequence": "EP",
      "SequenceName": "epfid2d1_104",
      "SequenceVariant": [
        "SK",
        "SS"
],
      "SeriesDescription": "func_task-friends-s07e05b",
      "SeriesNumber": 18,
      "SeriesTime": "164605.185000",
      "SliceLocation": -52.649161023072,
      "SliceThickness": 2.0,
      "SmallestImagePixelValue": 0,
      "SoftwareVersions": "syngo MR E11",
      "SpacingBetweenSlices": 2.0000000232753,
      "SpecificCharacterSet": "ISO_IR 100",
      "StudyID": "1",
      "StudyTime": "153319.399000",
      "TransmitCoilName": "Body",
      "VariableFlipAngleFlag": "N",
      "WindowCenterWidthExplanation": "Algo1",
      "dBdt": 0.0},
    "slices": {}
  },
  "time": {
    "samples": {
      "AcquisitionNumber": [1, 2, 3, 4, 5, 6, 7, 8, 9, 10, 11, 12, 13, 14, 15, 16, 17, 18, 19, 20, 21, 22, 23, 24, 25, 26, 27, 28, 29, 30, 31, 32, 33, 34, 35, 36, 37, 38, 39, 40, 41, 42, 43, 44, 45, 46, 47, 48, 49, 50, 51, 52, 53, 54, 55, 56, 57, 58, 59, 60, 61, 62, 63, 64, 65, 66, 67, 68, 69, 70, 71, 72, 73, 74, 75, 76, 77, 78, 79, 80, 81, 82, 83, 84, 85, 86, 87, 88, 89, 90, 91, 92, 93, 94, 95, 96, 97, 98, 99, 100, 101, 102, 103, 104, 105, 106, 107, 108, 109, 110, 111, 112, 113, 114, 115, 116, 117, 118, 119, 120, 121, 122, 123, 124, 125, 126, 127, 128, 129, 130, 131, 132, 133, 134, 135, 136, 137, 138, 139, 140, 141, 142, 143, 144, 145, 146, 147, 148, 149, 150, 151, 152, 153, 154, 155, 156, 157, 158, 159, 160, 161, 162, 163, 164, 165, 166, 167, 168, 169, 170, 171, 172, 173, 174, 175, 176, 177, 178, 179, 180, 181, 182, 183, 184, 185, 186, 187, 188, 189, 190, 191, 192, 193, 194, 195, 196, 197, 198, 199, 200, 201, 202, 203, 204, 205, 206, 207, 208, 209, 210, 211, 212, 213, 214, 215, 216, 217, 218, 219, 220, 221, 222, 223, 224, 225, 226, 227, 228, 229, 230, 231, 232, 233, 234, 235, 236, 237, 238, 239, 240, 241, 242, 243, 244, 245, 246, 247, 248, 249, 250, 251, 252, 253, 254, 255, 256, 257, 258, 259, 260, 261, 262, 263, 264, 265, 266, 267, 268, 269, 270, 271, 272, 273, 274, 275, 276, 277, 278, 279, 280, 281, 282, 283, 284, 285, 286, 287, 288, 289, 290, 291, 292, 293, 294, 295, 296, 297, 298, 299, 300, 301, 302, 303, 304, 305, 306, 307, 308, 309, 310, 311, 312, 313, 314, 315, 316, 317, 318, 319, 320, 321, 322, 323, 324, 325, 326, 327, 328, 329, 330, 331, 332, 333, 334, 335, 336, 337, 338, 339, 340, 341, 342, 343, 344, 345, 346, 347, 348, 349, 350, 351, 352, 353, 354, 355, 356, 357, 358, 359, 360, 361, 362, 363, 364, 365, 366, 367, 368, 369, 370, 371, 372, 373, 374, 375, 376, 377, 378, 379, 380, 381, 382, 383, 384, 385, 386, 387, 388, 389, 390, 391, 392, 393, 394, 395, 396, 397, 398, 399, 400, 401, 402, 403, 404, 405, 406, 407, 408, 409, 410, 411, 412, 413, 414, 415, 416, 417, 418, 419, 420, 421, 422, 423, 424, 425, 426, 427, 428, 429, 430, 431, 432, 433, 434, 435, 436, 437, 438, 439, 440, 441, 442, 443, 444, 445, 446, 447, 448, 449, 450, 451, 452, 453, 454, 455, 456, 457, 458, 459, 460, 461, 462, 463, 464, 465, 466, 467, 468, 469, 470, 471, 472, 473, 474, 475, 476, 477, 478, 479, 480, 481, 482, 483, 484, 485, 486, 487, 488],
      "AcquisitionTime": ["164456.075000", "164457.565000", "164459.055000", "164500.545000", "164502.035000", "164503.525000", "164505.015000", "164506.505000", "164507.995000", "164509.485000", "164510.975000", "164512.465000", "164513.955000", "164515.445000", "164516.935000", "164518.425000", "164519.915000", "164521.405000", "164522.895000", "164524.385000", "164525.875000", "164527.365000", "164528.855000", "164530.345000", "164531.835000", "164533.325000", "164534.815000", "164536.305000", "164537.795000", "164539.285000", "164540.775000", "164542.265000", "164543.755000", "164545.245000", "164546.735000", "164548.225000", "164549.715000", "164551.205000", "164552.695000", "164554.185000", "164555.675000", "164557.165000", "164558.655000", "164600.145000", "164601.635000", "164603.125000", "164604.615000", "164606.105000", "164607.595000", "164609.085000", "164610.575000", "164612.065000", "164613.555000", "164615.045000", "164616.535000", "164618.025000", "164619.515000", "164621.005000", "164622.495000", "164623.985000", "164625.475000", "164626.965000", "164628.455000", "164629.945000", "164631.435000", "164632.925000", "164634.415000", "164635.905000", "164637.395000", "164638.885000", "164640.375000", "164641.865000", "164643.355000", "164644.845000", "164646.335000", "164647.825000", "164649.315000", "164650.805000", "164652.295000", "164653.785000", "164655.275000", "164656.765000", "164658.255000", "164659.745000", "164701.235000", "164702.725000", "164704.215000", "164705.705000", "164707.195000", "164708.685000", "164710.175000", "164711.665000", "164713.155000", "164714.645000", "164716.135000", "164717.625000", "164719.115000", "164720.605000", "164722.095000", "164723.585000", "164725.075000", "164726.565000", "164728.055000", "164729.545000", "164731.035000", "164732.525000", "164734.015000", "164735.505000", "164736.995000", "164738.485000", "164739.975000", "164741.465000", "164742.955000", "164744.445000", "164745.935000", "164747.425000", "164748.915000", "164750.405000", "164751.895000", "164753.385000", "164754.875000", "164756.365000", "164757.855000", "164759.345000", "164800.835000", "164802.325000", "164803.815000", "164805.305000", "164806.795000", "164808.285000", "164809.775000", "164811.265000", "164812.755000", "164814.245000", "164815.735000", "164817.225000", "164818.715000", "164820.205000", "164821.695000", "164823.185000", "164824.675000", "164826.165000", "164827.655000", "164829.145000", "164830.635000", "164832.125000", "164833.615000", "164835.105000", "164836.595000", "164838.085000", "164839.575000", "164841.065000", "164842.555000", "164844.045000", "164845.535000", "164847.025000", "164848.515000", "164850.005000", "164851.495000", "164852.985000", "164854.475000", "164855.965000", "164857.455000", "164858.945000", "164900.435000", "164901.925000", "164903.415000", "164904.905000", "164906.395000", "164907.885000", "164909.375000", "164910.865000", "164912.355000", "164913.845000", "164915.335000", "164916.825000", "164918.315000", "164919.805000", "164921.295000", "164922.785000", "164924.275000", "164925.765000", "164927.255000", "164928.745000", "164930.235000", "164931.725000", "164933.215000", "164934.705000", "164936.195000", "164937.685000", "164939.175000", "164940.665000", "164942.155000", "164943.645000", "164945.135000", "164946.625000", "164948.115000", "164949.605000", "164951.095000", "164952.585000", "164954.075000", "164955.565000", "164957.055000", "164958.545000", "165000.035000", "165001.525000", "165003.015000", "165004.505000", "165005.995000", "165007.485000", "165008.975000", "165010.465000", "165011.955000", "165013.445000", "165014.935000", "165016.425000", "165017.915000", "165019.405000", "165020.895000", "165022.385000", "165023.875000", "165025.365000", "165026.855000", "165028.345000", "165029.835000", "165031.325000", "165032.815000", "165034.305000", "165035.795000", "165037.285000", "165038.775000", "165040.265000", "165041.755000", "165043.245000", "165044.735000", "165046.225000", "165047.715000", "165049.205000", "165050.695000", "165052.185000", "165053.675000", "165055.165000", "165056.655000", "165058.145000", "165059.635000", "165101.125000", "165102.615000", "165104.105000", "165105.595000", "165107.085000", "165108.575000", "165110.065000", "165111.555000", "165113.045000", "165114.535000", "165116.025000", "165117.515000", "165119.005000", "165120.495000", "165121.985000", "165123.475000", "165124.965000", "165126.455000", "165127.945000", "165129.435000", "165130.925000", "165132.415000", "165133.905000", "165135.395000", "165136.885000", "165138.375000", "165139.865000", "165141.355000", "165142.845000", "165144.335000", "165145.825000", "165147.315000", "165148.805000", "165150.295000", "165151.785000", "165153.275000", "165154.765000", "165156.255000", "165157.745000", "165159.235000", "165200.725000", "165202.215000", "165203.705000", "165205.195000", "165206.685000", "165208.175000", "165209.665000", "165211.155000", "165212.645000", "165214.135000", "165215.625000", "165217.115000", "165218.605000", "165220.095000", "165221.585000", "165223.075000", "165224.565000", "165226.055000", "165227.545000", "165229.035000", "165230.525000", "165232.015000", "165233.505000", "165234.995000", "165236.485000", "165237.975000", "165239.465000", "165240.955000", "165242.445000", "165243.935000", "165245.425000", "165246.915000", "165248.405000", "165249.895000", "165251.385000", "165252.875000", "165254.365000", "165255.855000", "165257.345000", "165258.835000", "165300.325000", "165301.815000", "165303.305000", "165304.795000", "165306.285000", "165307.775000", "165309.265000", "165310.755000", "165312.245000", "165313.735000", "165315.225000", "165316.715000", "165318.205000", "165319.695000", "165321.185000", "165322.675000", "165324.165000", "165325.655000", "165327.145000", "165328.635000", "165330.125000", "165331.615000", "165333.105000", "165334.595000", "165336.085000", "165337.575000", "165339.065000", "165340.555000", "165342.045000", "165343.535000", "165345.025000", "165346.515000", "165348.005000", "165349.495000", "165350.985000", "165352.475000", "165353.965000", "165355.455000", "165356.945000", "165358.435000", "165359.925000", "165401.415000", "165402.905000", "165404.395000", "165405.885000", "165407.375000", "165408.865000", "165410.355000", "165411.845000", "165413.335000", "165414.825000", "165416.315000", "165417.805000", "165419.295000", "165420.785000", "165422.275000", "165423.765000", "165425.255000", "165426.745000", "165428.235000", "165429.725000", "165431.215000", "165432.705000", "165434.195000", "165435.685000", "165437.175000", "165438.665000", "165440.155000", "165441.645000", "165443.135000", "165444.625000", "165446.115000", "165447.605000", "165449.095000", "165450.585000", "165452.075000", "165453.565000", "165455.055000", "165456.545000", "165458.035000", "165459.525000", "165501.015000", "165502.505000", "165503.995000", "165505.485000", "165506.975000", "165508.465000", "165509.955000", "165511.445000", "165512.935000", "165514.425000", "165515.915000", "165517.405000", "165518.895000", "165520.385000", "165521.875000", "165523.365000", "165524.855000", "165526.345000", "165527.835000", "165529.325000", "165530.815000", "165532.305000", "165533.795000", "165535.285000", "165536.775000", "165538.265000", "165539.755000", "165541.245000", "165542.735000", "165544.225000", "165545.715000", "165547.205000", "165548.695000", "165550.185000", "165551.675000", "165553.165000", "165554.655000", "165556.145000", "165557.635000", "165559.125000", "165600.615000", "165602.105000", "165603.595000", "165605.085000", "165606.575000", "165608.065000", "165609.555000", "165611.045000", "165612.535000", "165614.025000", "165615.515000", "165617.005000", "165618.495000", "165619.985000", "165621.475000", "165622.965000", "165624.455000", "165625.945000", "165627.435000", "165628.925000", "165630.415000", "165631.905000", "165633.395000", "165634.885000", "165636.375000", "165637.865000", "165639.355000", "165640.845000", "165642.335000", "165643.825000", "165645.315000", "165646.805000", "165648.295000", "165649.785000", "165651.275000", "165652.765000", "165654.255000", "165655.745000", "165657.235000", "165658.725000", "165700.215000", "165701.705000"],
      "ContentTime": ["164605.187000", "164605.191000", "164605.194000", "164605.197000", "164605.206000", "164605.209000", "164605.212000", "164605.215000", "164605.219000", "164605.222000", "164605.225000", "164605.227000", "164605.230000", "164605.233000", "164605.236000", "164605.239000", "164605.242000", "164605.245000", "164625.157000", "164625.160000", "164625.163000", "164625.166000", "164625.169000", "164625.188000", "164625.191000", "164625.193000", "164625.196000", "164625.199000", "164625.202000", "164625.205000", "164625.208000", "164625.211000", "164625.213000", "164625.216000", "164625.219000", "164625.222000", "164625.225000", "164625.228000", "164645.157000", "164645.160000", "164645.163000", "164645.165000", "164645.168000", "164645.171000", "164645.174000", "164645.177000", "164645.180000", "164645.183000", "164645.185000", "164645.194000", "164645.197000", "164645.199000", "164645.202000", "164645.205000", "164645.208000", "164645.211000", "164645.214000", "164645.217000", "164705.156000", "164705.159000", "164705.161000", "164705.164000", "164705.167000", "164705.170000", "164705.173000", "164705.176000", "164705.178000", "164705.181000", "164705.184000", "164705.187000", "164705.190000", "164705.192000", "164705.195000", "164705.198000", "164705.201000", "164705.204000", "164705.206000", "164705.209000", "164725.156000", "164725.165000", "164725.168000", "164725.171000", "164725.174000", "164725.177000", "164725.179000", "164725.182000", "164725.185000", "164725.188000", "164725.191000", "164725.194000", "164725.197000", "164725.199000", "164725.202000", "164725.205000", "164725.208000", "164725.211000", "164725.214000", "164725.216000", "164805.156000", "164805.159000", "164805.162000", "164805.164000", "164805.168000", "164805.170000", "164805.173000", "164805.176000", "164805.179000", "164805.182000", "164805.185000", "164805.187000", "164805.190000", "164805.193000", "164805.196000", "164805.199000", "164805.202000", "164805.205000", "164805.208000", "164805.211000", "164805.214000", "164805.216000", "164805.219000", "164805.222000", "164805.225000", "164805.228000", "164805.231000", "164805.233000", "164845.157000", "164845.160000", "164845.163000", "164845.166000", "164845.169000", "164845.172000", "164845.175000", "164845.177000", "164845.180000", "164845.183000", "164845.186000", "164845.189000", "164845.192000", "164845.195000", "164845.198000", "164845.200000", "164845.203000", "164845.206000", "164845.209000", "164845.212000", "164845.215000", "164845.218000", "164845.221000", "164845.225000", "164845.228000", "164845.232000", "164845.236000", "164925.156000", "164925.159000", "164925.162000", "164925.165000", "164925.168000", "164925.171000", "164925.174000", "164925.176000", "164925.179000", "164925.189000", "164925.192000", "164925.195000", "164925.197000", "164925.200000", "164925.203000", "164925.206000", "164925.209000", "164925.212000", "164925.215000", "164925.217000", "164925.220000", "164925.223000", "164925.226000", "164925.229000", "164925.232000", "164925.235000", "164925.238000", "165005.156000", "165005.159000", "165005.162000", "165005.165000", "165005.168000", "165005.171000", "165005.174000", "165005.177000", "165005.179000", "165005.182000", "165005.185000", "165005.188000", "165005.191000", "165005.194000", "165005.197000", "165005.200000", "165005.202000", "165005.205000", "165005.208000", "165005.211000", "165005.214000", "165005.217000", "165005.220000", "165005.222000", "165005.226000", "165005.229000", "165045.157000", "165045.160000", "165045.163000", "165045.166000", "165045.169000", "165045.171000", "165045.180000", "165045.183000", "165045.185000", "165045.188000", "165045.191000", "165045.194000", "165045.197000", "165045.200000", "165045.203000", "165045.206000", "165045.209000", "165045.212000", "165045.214000", "165045.217000", "165045.220000", "165045.223000", "165045.226000", "165045.229000", "165045.232000", "165045.235000", "165045.237000", "165125.157000", "165125.160000", "165125.163000", "165125.166000", "165125.169000", "165125.172000", "165125.175000", "165125.177000", "165125.180000", "165125.183000", "165125.190000", "165125.193000", "165125.195000", "165125.198000", "165125.201000", "165125.204000", "165125.207000", "165125.210000", "165125.213000", "165125.215000", "165125.218000", "165125.221000", "165125.224000", "165125.227000", "165125.230000", "165125.233000", "165125.235000", "165205.156000", "165205.159000", "165205.162000", "165205.165000", "165205.168000", "165205.171000", "165205.173000", "165205.176000", "165205.179000", "165205.182000", "165205.185000", "165205.188000", "165205.191000", "165205.193000", "165205.196000", "165205.199000", "165205.202000", "165205.205000", "165205.208000", "165205.210000", "165205.213000", "165205.216000", "165205.219000", "165205.222000", "165205.225000", "165205.227000", "165205.230000", "165245.156000", "165245.159000", "165245.162000", "165245.165000", "165245.168000", "165245.171000", "165245.174000", "165245.176000", "165245.179000", "165245.182000", "165245.185000", "165245.188000", "165245.191000", "165245.194000", "165245.197000", "165245.199000", "165245.202000", "165245.205000", "165245.208000", "165245.211000", "165245.214000", "165245.217000", "165245.220000", "165245.222000", "165245.225000", "165245.228000", "165245.231000", "165325.157000", "165325.160000", "165325.163000", "165325.175000", "165325.178000", "165325.182000", "165325.185000", "165325.188000", "165325.191000", "165325.194000", "165325.197000", "165325.199000", "165325.202000", "165325.205000", "165325.208000", "165325.211000", "165325.214000", "165325.217000", "165325.220000", "165325.222000", "165325.225000", "165325.228000", "165325.231000", "165325.234000", "165325.237000", "165325.251000", "165325.254000", "165345.157000", "165345.160000", "165345.163000", "165345.166000", "165345.169000", "165345.171000", "165345.174000", "165345.177000", "165345.180000", "165345.183000", "165345.186000", "165345.189000", "165345.192000", "165425.156000", "165425.159000", "165425.162000", "165425.165000", "165425.168000", "165425.171000", "165425.174000", "165425.177000", "165425.179000", "165425.182000", "165425.185000", "165425.188000", "165425.191000", "165425.194000", "165425.197000", "165425.201000", "165425.204000", "165425.206000", "165425.209000", "165425.212000", "165425.215000", "165425.218000", "165425.221000", "165425.224000", "165425.227000", "165425.230000", "165425.232000", "165505.156000", "165505.159000", "165505.162000", "165505.165000", "165505.168000", "165505.171000", "165505.174000", "165505.177000", "165505.179000", "165505.182000", "165505.185000", "165505.188000", "165505.191000", "165505.194000", "165505.197000", "165505.200000", "165505.203000", "165505.205000", "165505.208000", "165505.211000", "165505.214000", "165505.217000", "165505.220000", "165505.223000", "165505.226000", "165505.229000", "165505.231000", "165545.157000", "165545.160000", "165545.163000", "165545.166000", "165545.169000", "165545.172000", "165545.175000", "165545.178000", "165545.180000", "165545.183000", "165545.186000", "165545.189000", "165545.192000", "165545.195000", "165545.198000", "165545.201000", "165545.203000", "165545.206000", "165545.209000", "165545.212000", "165545.215000", "165545.218000", "165545.221000", "165545.224000", "165545.227000", "165545.230000", "165545.232000", "165625.156000", "165625.159000", "165625.162000", "165625.165000", "165625.168000", "165625.171000", "165625.174000", "165625.177000", "165625.180000", "165625.183000", "165625.186000", "165625.208000", "165625.211000", "165625.213000", "165625.216000", "165625.219000", "165625.222000", "165625.225000", "165625.228000", "165625.232000", "165625.235000", "165625.237000", "165625.240000", "165625.243000", "165625.246000", "165625.249000", "165703.969000", "165703.972000", "165703.975000", "165703.978000", "165703.981000", "165703.983000", "165703.987000", "165703.989000", "165703.992000", "165703.995000", "165703.998000", "165704.002000", "165704.005000", "165704.008000", "165704.011000", "165704.014000", "165704.016000", "165704.019000", "165704.022000", "165704.025000", "165704.028000", "165704.031000", "165704.034000", "165704.037000", "165704.040000", "165704.043000", "165704.046000"],
