{
  "AcquisitionMatrixPE": 104,
  "AcquisitionNumber": 1,
  "AcquisitionTime": "16:05:16.242500",
  "BandwidthPerPixelPhaseEncode": 17.17,
  "BaseResolution": 104,
  "BodyPartExamined": "BRAIN",
  "CoilCombinationMethod": "Sum of Squares",
  "ConsistencyInfo": "N4_VE11C_LATEST_20160120",
  "ConversionSoftware": "dcm2niix",
  "ConversionSoftwareVersion": "v1.0.20230411",
  "DerivedVendorReportedEchoSpacing": 0.000560011,
  "DeviceSerialNumber": "167006",
  "DwellTime": 2.1e-06,
  "EchoTime": 0.037,
  "EchoTrainLength": 104,
  "EffectiveEchoSpacing": 0.000560011,
  "FlipAngle": 52,
  "HeudiconvVersion": "0.5.3.post861+ge7d3c7f",
  "ImageComments": "Unaliased MB4/PE3/LB",
  "ImageOrientationPatientDICOM": [0.999165, 0.00188508, 0.0408065, 0.0190105, 0.862714, -0.505334],
  "ImageOrientationText": "Tra>Cor(-30.4)>Sag(2.1)",
  "ImageType": [
    "ORIGINAL",
    "PRIMARY",
    "M",
    "MB",
    "ND",
    "MOSAIC"
],
  "ImagingFrequency": 123.250051,
  "InPlanePhaseEncodingDirectionDICOM": "COL",
  "InstitutionAddress": "Chemin Queen-Mary 4565,Montreal,District,CA,H3W 1W5",
  "InstitutionName": "IUGM",
  "InstitutionalDepartmentName": "Department",
  "MRAcquisitionType": "2D",
  "MagneticFieldStrength": 3,
  "Manufacturer": "Siemens",
  "ManufacturersModelName": "Prisma_fit",
  "MatrixCoilMode": "SENSE",
  "Modality": "MR",
  "MultibandAccelerationFactor": 4,
  "NonlinearGradientCorrection": false,
  "PartialFourier": 1,
  "PatientPosition": "HFS",
  "PercentPhaseFOV": 100,
  "PercentSampling": 100,
  "PhaseEncodingDirection": "j",
  "PhaseEncodingSteps": 104,
  "PhaseResolution": 1,
  "PixelBandwidth": 2290,
  "ProcedureStepDescription": "video^friends",
  "ProtocolName": "func_task-friends-s07e04a",
  "PulseSequenceDetails": "%CustomerSeq%\\cmrr_mbep2d_bold",
  "ReceiveCoilActiveElements": "HC1-7;NC1,2",
  "ReceiveCoilName": "HeadNeck_64",
  "ReconMatrixPE": 104,
  "RepetitionTime": 1.49,
  "SAR": 0.0705784,
  "ScanOptions": "FS",
  "ScanningSequence": "EP",
  "SequenceName": "epfid2d1_104",
  "SequenceVariant": "SK\\SS",
  "SeriesDescription": "func_task-friends-s07e04a",
  "SeriesNumber": 12,
  "ShimSetting": [605, -7195, -8862, 303, 47, -151, -173, 88],
  "SliceThickness": 2,
  "SliceTiming": [0, 0.785, 0.0975, 0.8825, 0.1975, 0.98, 0.295, 1.0775, 0.3925, 1.1775, 0.49, 1.275, 0.5875, 1.3725, 0.6875, 0, 0.785, 0.0975, 0.8825, 0.1975, 0.98, 0.295, 1.0775, 0.3925, 1.1775, 0.49, 1.275, 0.5875, 1.3725, 0.6875, 0, 0.785, 0.0975, 0.8825, 0.1975, 0.98, 0.295, 1.0775, 0.3925, 1.1775, 0.49, 1.275, 0.5875, 1.3725, 0.6875, 0, 0.785, 0.0975, 0.8825, 0.1975, 0.98, 0.295, 1.0775, 0.3925, 1.1775, 0.49, 1.275, 0.5875, 1.3725, 0.6875],
  "SoftwareVersions": "syngo MR E11",
  "SpacingBetweenSlices": 2,
  "StationName": "MRC35049",
  "TaskName": "s07e04a",
  "TotalReadoutTime": 0.0576811,
  "TxRefAmp": 302.178,
  "WipMemBlock": "f160053d-65a2-48b6-a4e7-b8be7ebfb3dc||Sequence: R017 ve11c/master r/75a17815+; Jun 28 2022 16:32:11 by eja",
  "dcmmeta_affine": [
    [-1.9983305931091309, 0.038020942360162735, 0.0723138302564621, 101.09858703613281],
    [-0.0037701574619859457, 1.7254289388656616, -1.0113757848739624, -58.42766571044922],
    [0.08161291480064392, 1.0106678009033203, 1.723917007446289, -99.59961700439453],
    [0.0, 0.0, 0.0, 1.0]
],
  "dcmmeta_reorient_transform": [
    [0.0, -1.0, 0.0, 103.0],
    [1.0, 0.0, 0.0, 0.0],
    [0.0, 0.0, 1.0, 0.0],
    [0.0, 0.0, 0.0, 1.0]
],
  "dcmmeta_shape": [104, 104, 60, 447],
  "dcmmeta_slice_dim": 2,
  "dcmmeta_version": 0.6,
  "global": {
    "const": {
      "AcquisitionMatrix": [104, 0, 0, 104],
      "AngioFlag": "N",
      "BitsAllocated": 16,
      "BitsStored": 16,
      "BodyPartExamined": "BRAIN",
      "Columns": 832,
      "EchoNumbers": 1,
      "EchoTime": 37.0,
      "EchoTrainLength": 104,
      "FlipAngle": 52.0,
      "HighBit": 15,
      "ImageOrientationPatient": [0.99916529143633, 0.00188507870874, 0.0408064561953, 0.0190104702716, 0.86271445176602, -0.5053339259679],
      "ImagePositionPatient": [-846.24670218678, -748.71997067092, 342.675171196],
      "ImageType": [
        "ORIGINAL",
        "PRIMARY",
        "M",
        "MB",
        "ND",
        "MOSAIC"
],
      "ImagedNucleus": "1H",
      "ImagingFrequency": 123.250051,
      "InPlanePhaseEncodingDirection": "COL",
      "MRAcquisitionType": "2D",
      "MagneticFieldStrength": 3.0,
      "Manufacturer": "SIEMENS",
      "ManufacturerModelName": "Prisma_fit",
      "Modality": "MR",
      "NumberOfAverages": 1.0,
      "NumberOfPhaseEncodingSteps": 104,
      "PercentPhaseFieldOfView": 100.0,
      "PercentSampling": 100.0,
      "PerformedProcedureStepStartTime": "153319.472000",
      "PhotometricInterpretation": "MONOCHROME2",
      "PixelBandwidth": 2290.0,
      "PixelRepresentation": 0,
      "PixelSpacing": [2.0, 2.0],
      "ProtocolName": "func_task-friends-s07e04a",
      "RepetitionTime": 1490.0,
      "Rows": 832,
      "SAR": 0.07057837788008,
      "SamplesPerPixel": 1,
      "ScanOptions": "FS",
      "ScanningSequence": "EP",
      "SequenceName": "epfid2d1_104",
      "SequenceVariant": [
        "SK",
        "SS"
],
      "SeriesDescription": "func_task-friends-s07e04a",
      "SeriesNumber": 12,
      "SeriesTime": "160638.208000",
      "SliceLocation": -52.649161023072,
      "SliceThickness": 2.0,
      "SmallestImagePixelValue": 0,
      "SoftwareVersions": "syngo MR E11",
      "SpacingBetweenSlices": 2.0000000232753,
      "SpecificCharacterSet": "ISO_IR 100",
      "StudyID": "1",
      "StudyTime": "153319.399000",
      "TransmitCoilName": "Body",
      "VariableFlipAngleFlag": "N",
      "WindowCenterWidthExplanation": "Algo1",
      "dBdt": 0.0},
    "slices": {}
  },
  "time": {
    "samples": {
      "AcquisitionNumber": [1, 2, 3, 4, 5, 6, 7, 8, 9, 10, 11, 12, 13, 14, 15, 16, 17, 18, 19, 20, 21, 22, 23, 24, 25, 26, 27, 28, 29, 30, 31, 32, 33, 34, 35, 36, 37, 38, 39, 40, 41, 42, 43, 44, 45, 46, 47, 48, 49, 50, 51, 52, 53, 54, 55, 56, 57, 58, 59, 60, 61, 62, 63, 64, 65, 66, 67, 68, 69, 70, 71, 72, 73, 74, 75, 76, 77, 78, 79, 80, 81, 82, 83, 84, 85, 86, 87, 88, 89, 90, 91, 92, 93, 94, 95, 96, 97, 98, 99, 100, 101, 102, 103, 104, 105, 106, 107, 108, 109, 110, 111, 112, 113, 114, 115, 116, 117, 118, 119, 120, 121, 122, 123, 124, 125, 126, 127, 128, 129, 130, 131, 132, 133, 134, 135, 136, 137, 138, 139, 140, 141, 142, 143, 144, 145, 146, 147, 148, 149, 150, 151, 152, 153, 154, 155, 156, 157, 158, 159, 160, 161, 162, 163, 164, 165, 166, 167, 168, 169, 170, 171, 172, 173, 174, 175, 176, 177, 178, 179, 180, 181, 182, 183, 184, 185, 186, 187, 188, 189, 190, 191, 192, 193, 194, 195, 196, 197, 198, 199, 200, 201, 202, 203, 204, 205, 206, 207, 208, 209, 210, 211, 212, 213, 214, 215, 216, 217, 218, 219, 220, 221, 222, 223, 224, 225, 226, 227, 228, 229, 230, 231, 232, 233, 234, 235, 236, 237, 238, 239, 240, 241, 242, 243, 244, 245, 246, 247, 248, 249, 250, 251, 252, 253, 254, 255, 256, 257, 258, 259, 260, 261, 262, 263, 264, 265, 266, 267, 268, 269, 270, 271, 272, 273, 274, 275, 276, 277, 278, 279, 280, 281, 282, 283, 284, 285, 286, 287, 288, 289, 290, 291, 292, 293, 294, 295, 296, 297, 298, 299, 300, 301, 302, 303, 304, 305, 306, 307, 308, 309, 310, 311, 312, 313, 314, 315, 316, 317, 318, 319, 320, 321, 322, 323, 324, 325, 326, 327, 328, 329, 330, 331, 332, 333, 334, 335, 336, 337, 338, 339, 340, 341, 342, 343, 344, 345, 346, 347, 348, 349, 350, 351, 352, 353, 354, 355, 356, 357, 358, 359, 360, 361, 362, 363, 364, 365, 366, 367, 368, 369, 370, 371, 372, 373, 374, 375, 376, 377, 378, 379, 380, 381, 382, 383, 384, 385, 386, 387, 388, 389, 390, 391, 392, 393, 394, 395, 396, 397, 398, 399, 400, 401, 402, 403, 404, 405, 406, 407, 408, 409, 410, 411, 412, 413, 414, 415, 416, 417, 418, 419, 420, 421, 422, 423, 424, 425, 426, 427, 428, 429, 430, 431, 432, 433, 434, 435, 436, 437, 438, 439, 440, 441, 442, 443, 444, 445, 446, 447],
      "AcquisitionTime": ["160516.242500", "160517.732500", "160519.222500", "160520.712500", "160522.202500", "160523.692500", "160525.182500", "160526.672500", "160528.162500", "160529.652500", "160531.142500", "160532.632500", "160534.122500", "160535.612500", "160537.102500", "160538.592500", "160540.082500", "160541.572500", "160543.062500", "160544.552500", "160546.042500", "160547.532500", "160549.022500", "160550.512500", "160552.002500", "160553.492500", "160554.982500", "160556.472500", "160557.962500", "160559.452500", "160600.942500", "160602.432500", "160603.922500", "160605.412500", "160606.902500", "160608.392500", "160609.882500", "160611.372500", "160612.862500", "160614.352500", "160615.842500", "160617.332500", "160618.822500", "160620.312500", "160621.802500", "160623.292500", "160624.782500", "160626.272500", "160627.762500", "160629.252500", "160630.742500", "160632.232500", "160633.722500", "160635.212500", "160636.702500", "160638.192500", "160639.682500", "160641.172500", "160642.662500", "160644.152500", "160645.642500", "160647.132500", "160648.622500", "160650.112500", "160651.602500", "160653.092500", "160654.582500", "160656.072500", "160657.562500", "160659.052500", "160700.542500", "160702.032500", "160703.522500", "160705.012500", "160706.502500", "160707.992500", "160709.482500", "160710.972500", "160712.462500", "160713.952500", "160715.442500", "160716.932500", "160718.422500", "160719.912500", "160721.402500", "160722.892500", "160724.382500", "160725.872500", "160727.362500", "160728.852500", "160730.342500", "160731.832500", "160733.322500", "160734.812500", "160736.302500", "160737.792500", "160739.282500", "160740.772500", "160742.262500", "160743.752500", "160745.242500", "160746.732500", "160748.222500", "160749.712500", "160751.202500", "160752.692500", "160754.182500", "160755.672500", "160757.162500", "160758.652500", "160800.142500", "160801.632500", "160803.122500", "160804.612500", "160806.102500", "160807.592500", "160809.082500", "160810.572500", "160812.062500", "160813.552500", "160815.042500", "160816.532500", "160818.022500", "160819.512500", "160821.002500", "160822.492500", "160823.982500", "160825.472500", "160826.962500", "160828.452500", "160829.942500", "160831.432500", "160832.922500", "160834.412500", "160835.902500", "160837.392500", "160838.882500", "160840.372500", "160841.862500", "160843.352500", "160844.842500", "160846.332500", "160847.822500", "160849.312500", "160850.802500", "160852.292500", "160853.782500", "160855.272500", "160856.762500", "160858.252500", "160859.742500", "160901.232500", "160902.722500", "160904.212500", "160905.702500", "160907.192500", "160908.682500", "160910.172500", "160911.662500", "160913.152500", "160914.642500", "160916.132500", "160917.622500", "160919.112500", "160920.602500", "160922.092500", "160923.582500", "160925.072500", "160926.562500", "160928.052500", "160929.542500", "160931.032500", "160932.522500", "160934.012500", "160935.502500", "160936.992500", "160938.482500", "160939.972500", "160941.462500", "160942.952500", "160944.442500", "160945.932500", "160947.422500", "160948.912500", "160950.402500", "160951.892500", "160953.382500", "160954.872500", "160956.362500", "160957.852500", "160959.342500", "161000.832500", "161002.322500", "161003.812500", "161005.302500", "161006.792500", "161008.282500", "161009.772500", "161011.262500", "161012.752500", "161014.242500", "161015.732500", "161017.222500", "161018.712500", "161020.202500", "161021.692500", "161023.182500", "161024.672500", "161026.162500", "161027.652500", "161029.142500", "161030.632500", "161032.122500", "161033.612500", "161035.102500", "161036.592500", "161038.082500", "161039.572500", "161041.062500", "161042.552500", "161044.042500", "161045.532500", "161047.022500", "161048.512500", "161050.002500", "161051.492500", "161052.982500", "161054.472500", "161055.962500", "161057.452500", "161058.942500", "161100.432500", "161101.922500", "161103.412500", "161104.902500", "161106.392500", "161107.882500", "161109.372500", "161110.862500", "161112.352500", "161113.842500", "161115.332500", "161116.822500", "161118.312500", "161119.802500", "161121.292500", "161122.782500", "161124.272500", "161125.762500", "161127.252500", "161128.742500", "161130.232500", "161131.722500", "161133.212500", "161134.702500", "161136.192500", "161137.682500", "161139.172500", "161140.662500", "161142.152500", "161143.642500", "161145.132500", "161146.622500", "161148.112500", "161149.602500", "161151.092500", "161152.582500", "161154.072500", "161155.562500", "161157.052500", "161158.542500", "161200.032500", "161201.522500", "161203.012500", "161204.502500", "161205.992500", "161207.482500", "161208.972500", "161210.462500", "161211.952500", "161213.442500", "161214.932500", "161216.422500", "161217.912500", "161219.402500", "161220.892500", "161222.382500", "161223.872500", "161225.362500", "161226.852500", "161228.342500", "161229.832500", "161231.322500", "161232.812500", "161234.302500", "161235.792500", "161237.282500", "161238.772500", "161240.262500", "161241.752500", "161243.242500", "161244.732500", "161246.222500", "161247.712500", "161249.202500", "161250.692500", "161252.182500", "161253.672500", "161255.162500", "161256.652500", "161258.142500", "161259.632500", "161301.122500", "161302.612500", "161304.102500", "161305.592500", "161307.082500", "161308.572500", "161310.062500", "161311.552500", "161313.042500", "161314.532500", "161316.022500", "161317.512500", "161319.002500", "161320.492500", "161321.982500", "161323.472500", "161324.962500", "161326.452500", "161327.942500", "161329.432500", "161330.922500", "161332.412500", "161333.902500", "161335.392500", "161336.882500", "161338.372500", "161339.862500", "161341.352500", "161342.842500", "161344.332500", "161345.822500", "161347.312500", "161348.802500", "161350.292500", "161351.782500", "161353.272500", "161354.762500", "161356.252500", "161357.742500", "161359.232500", "161400.722500", "161402.212500", "161403.702500", "161405.192500", "161406.682500", "161408.172500", "161409.662500", "161411.152500", "161412.642500", "161414.132500", "161415.622500", "161417.112500", "161418.602500", "161420.092500", "161421.582500", "161423.072500", "161424.562500", "161426.052500", "161427.542500", "161429.032500", "161430.522500", "161432.012500", "161433.502500", "161434.992500", "161436.482500", "161437.972500", "161439.462500", "161440.952500", "161442.442500", "161443.932500", "161445.422500", "161446.912500", "161448.402500", "161449.892500", "161451.382500", "161452.872500", "161454.362500", "161455.852500", "161457.342500", "161458.832500", "161500.322500", "161501.812500", "161503.302500", "161504.792500", "161506.282500", "161507.772500", "161509.262500", "161510.752500", "161512.242500", "161513.732500", "161515.222500", "161516.712500", "161518.202500", "161519.692500", "161521.182500", "161522.672500", "161524.162500", "161525.652500", "161527.142500", "161528.632500", "161530.122500", "161531.612500", "161533.102500", "161534.592500", "161536.082500", "161537.572500", "161539.062500", "161540.552500", "161542.042500", "161543.532500", "161545.022500", "161546.512500", "161548.002500", "161549.492500", "161550.982500", "161552.472500", "161553.962500", "161555.452500", "161556.942500", "161558.432500", "161559.922500", "161601.412500", "161602.902500", "161604.392500", "161605.882500", "161607.372500", "161608.862500", "161610.352500", "161611.842500", "161613.332500", "161614.822500", "161616.312500", "161617.802500", "161619.292500", "161620.782500"],
      "ContentTime": ["160638.210000", "160638.214000", "160638.217000", "160638.220000", "160638.223000", "160638.226000", "160638.229000", "160638.232000", "160638.235000", "160638.237000", "160638.240000", "160638.243000", "160638.246000", "160638.249000", "160638.261000", "160638.264000", "160638.267000", "160638.270000", "160638.272000", "160638.275000", "160638.278000", "160638.281000", "160638.284000", "160638.287000", "160638.290000", "160638.293000", "160638.296000", "160638.298000", "160638.302000", "160638.305000", "160638.308000", "160638.311000", "160658.180000", "160658.184000", "160658.186000", "160658.189000", "160658.192000", "160658.195000", "160658.198000", "160658.201000", "160658.204000", "160658.207000", "160658.210000", "160658.212000", "160658.215000", "160658.218000", "160658.221000", "160658.224000", "160658.227000", "160658.229000", "160658.232000", "160658.235000", "160718.182000", "160718.186000", "160718.188000", "160718.191000", "160718.194000", "160718.197000", "160718.200000", "160718.203000", "160718.206000", "160718.209000", "160718.211000", "160718.214000", "160718.217000", "160718.220000", "160718.223000", "160718.226000", "160718.229000", "160718.232000", "160718.234000", "160718.237000", "160738.181000", "160738.184000", "160738.187000", "160738.189000", "160738.192000", "160738.195000", "160738.198000", "160738.201000", "160738.204000", "160738.207000", "160738.211000", "160738.213000", "160738.217000", "160738.219000", "160738.222000", "160738.233000", "160738.236000", "160738.239000", "160738.242000", "160738.244000", "160738.247000", "160818.181000", "160818.184000", "160818.187000", "160818.190000", "160818.193000", "160818.196000", "160818.198000", "160818.201000", "160818.204000", "160818.207000", "160818.220000", "160818.223000", "160818.226000", "160818.229000", "160818.232000", "160818.235000", "160818.238000", "160818.241000", "160818.244000", "160818.247000", "160818.249000", "160818.252000", "160818.255000", "160818.258000", "160818.261000", "160818.264000", "160818.267000", "160818.270000", "160858.181000", "160858.184000", "160858.187000", "160858.190000", "160858.193000", "160858.196000", "160858.199000", "160858.201000", "160858.204000", "160858.207000", "160858.210000", "160858.213000", "160858.216000", "160858.219000", "160858.222000", "160858.224000", "160858.227000", "160858.230000", "160858.234000", "160858.236000", "160858.239000", "160858.242000", "160858.245000", "160858.248000", "160858.252000", "160858.256000", "160858.259000", "160938.181000", "160938.184000", "160938.187000", "160938.189000", "160938.192000", "160938.195000", "160938.198000", "160938.201000", "160938.204000", "160938.207000", "160938.210000", "160938.213000", "160938.216000", "160938.218000", "160938.221000", "160938.224000", "160938.227000", "160938.230000", "160938.233000", "160938.235000", "160938.238000", "160938.241000", "160938.244000", "160938.247000", "160938.250000", "160938.253000", "160938.256000", "161018.181000", "161018.184000", "161018.187000", "161018.190000", "161018.193000", "161018.196000", "161018.198000", "161018.201000", "161018.204000", "161018.207000", "161018.210000", "161018.213000", "161018.216000", "161018.219000", "161018.221000", "161018.225000", "161018.227000", "161018.230000", "161018.233000", "161018.236000", "161018.239000", "161018.242000", "161018.245000", "161018.248000", "161018.250000", "161018.253000", "161018.256000", "161058.181000", "161058.184000", "161058.187000", "161058.190000", "161058.193000", "161058.195000", "161058.229000", "161058.232000", "161058.235000", "161058.238000", "161058.241000", "161058.244000", "161058.246000", "161058.249000", "161058.252000", "161058.255000", "161058.258000", "161058.261000", "161058.264000", "161058.267000", "161058.270000", "161058.272000", "161058.275000", "161058.278000", "161058.281000", "161058.284000", "161058.287000", "161138.180000", "161138.183000", "161138.186000", "161138.189000", "161138.191000", "161138.194000", "161138.197000", "161138.200000", "161138.203000", "161138.206000", "161138.209000", "161138.212000", "161138.215000", "161138.218000", "161138.221000", "161138.224000", "161138.227000", "161138.230000", "161138.233000", "161138.235000", "161138.238000", "161138.241000", "161138.244000", "161138.247000", "161138.250000", "161138.253000", "161218.181000", "161218.184000", "161218.187000", "161218.190000", "161218.193000", "161218.196000", "161218.198000", "161218.201000", "161218.204000", "161218.207000", "161218.210000", "161218.213000", "161218.216000", "161218.218000", "161218.221000", "161218.224000", "161218.227000", "161218.230000", "161218.233000", "161218.236000", "161218.239000", "161218.242000", "161218.244000", "161218.247000", "161218.250000", "161218.253000", "161218.256000", "161258.181000", "161258.184000", "161258.187000", "161258.190000", "161258.193000", "161258.205000", "161258.208000", "161258.210000", "161258.213000", "161258.216000", "161258.219000", "161258.222000", "161258.225000", "161258.228000", "161258.230000", "161258.233000", "161258.236000", "161258.239000", "161258.242000", "161258.245000", "161258.248000", "161258.250000", "161258.253000", "161258.256000", "161258.259000", "161258.262000", "161258.265000", "161338.181000", "161338.184000", "161338.187000", "161338.190000", "161338.193000", "161338.196000", "161338.199000", "161338.201000", "161338.204000", "161338.207000", "161338.210000", "161338.213000", "161338.216000", "161338.219000", "161338.222000", "161338.224000", "161338.227000", "161338.230000", "161338.240000", "161338.243000", "161338.245000", "161338.248000", "161338.251000", "161338.254000", "161338.257000", "161338.260000", "161338.263000", "161358.180000", "161358.183000", "161358.186000", "161358.189000", "161358.192000", "161358.195000", "161358.198000", "161358.201000", "161358.205000", "161358.208000", "161358.211000", "161358.214000", "161358.217000", "161438.181000", "161438.184000", "161438.187000", "161438.190000", "161438.193000", "161438.196000", "161438.199000", "161438.202000", "161438.204000", "161438.207000", "161438.210000", "161438.213000", "161438.216000", "161438.219000", "161438.221000", "161438.224000", "161438.227000", "161438.230000", "161438.233000", "161438.236000", "161438.239000", "161438.242000", "161438.244000", "161438.247000", "161438.250000", "161438.253000", "161438.256000", "161518.181000", "161518.184000", "161518.187000", "161518.190000", "161518.193000", "161518.195000", "161518.198000", "161518.201000", "161518.204000", "161518.207000", "161518.210000", "161518.212000", "161518.215000", "161518.218000", "161518.221000", "161518.224000", "161518.227000", "161518.230000", "161518.232000", "161518.235000", "161518.238000", "161518.241000", "161518.244000", "161518.247000", "161518.249000", "161518.252000", "161518.255000", "161558.181000", "161558.184000", "161558.187000", "161558.190000", "161558.193000", "161558.195000", "161558.198000", "161558.201000", "161558.204000", "161558.207000", "161558.210000", "161558.213000", "161558.215000", "161558.218000", "161558.221000", "161558.224000", "161558.227000", "161558.230000", "161558.233000", "161558.236000", "161558.238000", "161558.241000", "161558.244000", "161558.247000", "161558.250000", "161558.253000", "161558.256000", "161622.856000", "161622.860000", "161622.862000", "161622.865000", "161622.868000", "161622.871000", "161622.874000", "161622.877000", "161622.880000", "161622.882000", "161622.885000", "161622.888000", "161622.891000", "161622.894000", "161622.897000", "161622.900000", "161622.904000"],
