{
  "AcquisitionMatrixPE": 104,
  "AcquisitionNumber": 1,
  "AcquisitionTime": "18:31:50.397500",
  "BandwidthPerPixelPhaseEncode": 17.17,
  "BaseResolution": 104,
  "BodyPartExamined": "BRAIN",
  "CoilString": "HC1-7;NC1_2",
  "ConsistencyInfo": "N4_VE11C_LATEST_20160120",
  "ConversionSoftware": "dcm2niix",
  "ConversionSoftwareVersion": "v1.0.20190902",
  "DerivedVendorReportedEchoSpacing": 0.000560011,
  "DeviceSerialNumber": "167006",
  "DwellTime": 2.1e-06,
  "EchoTime": 0.037,
  "EchoTrainLength": 104,
  "EffectiveEchoSpacing": 0.000560011,
  "FlipAngle": 52,
  "ImageComments": "Unaliased_MB4_PE3_LB",
  "ImageOrientationPatientDICOM": [0.999717, -0.0227817, 0.0068638, 0.0237343, 0.934538, -0.355072],
  "ImageType": [
    "ORIGINAL",
    "PRIMARY",
    "M",
    "MB",
    "ND",
    "MOSAIC"
],
  "ImagingFrequency": 123.259,
  "InPlanePhaseEncodingDirectionDICOM": "COL",
  "InstitutionAddress": "Chemin_Queen-Mary_4565_Montreal_District_CA_H3W_1W5",
  "InstitutionName": "IUGM",
  "InstitutionalDepartmentName": "Department",
  "MRAcquisitionType": "2D",
  "MagneticFieldStrength": 3,
  "Manufacturer": "Siemens",
  "ManufacturersModelName": "Prisma_fit",
  "Modality": "MR",
  "MultibandAccelerationFactor": 4,
  "PartialFourier": 1,
  "PatientPosition": "HFS",
  "PercentPhaseFOV": 100,
  "PhaseEncodingDirection": "j",
  "PhaseEncodingSteps": 104,
  "PhaseResolution": 1,
  "PixelBandwidth": 2290,
  "ProcedureStepDescription": "video_friends",
  "ProtocolName": "func_task-friends-s03e21a",
  "PulseSequenceDetails": "%CustomerSeq%_cmrr_mbep2d_bold",
  "ReceiveCoilActiveElements": "HC1-7;NC1,2",
  "ReceiveCoilName": "HeadNeck_64",
  "ReconMatrixPE": 104,
  "RepetitionTime": 1.49,
  "SAR": 0.0346297,
  "ScanOptions": "FS",
  "ScanningSequence": "EP",
  "SequenceName": "epfid2d1_104",
  "SequenceVariant": "SK_SS",
  "SeriesDescription": "func_task-friends-s03e21a",
  "SeriesNumber": 29,
  "ShimSetting": [613, -7284, -8832, 394, 1, -469, 73, 16],
  "SliceThickness": 2,
  "SliceTiming": [0, 0.7825, 0.0975, 0.88, 0.195, 0.98, 0.2925, 1.0775, 0.3925, 1.175, 0.49, 1.2725, 0.5875, 1.37, 0.685, 0, 0.7825, 0.0975, 0.88, 0.195, 0.98, 0.2925, 1.0775, 0.3925, 1.175, 0.49, 1.2725, 0.5875, 1.37, 0.685, 0, 0.7825, 0.0975, 0.88, 0.195, 0.98, 0.2925, 1.0775, 0.3925, 1.175, 0.49, 1.2725, 0.5875, 1.37, 0.685, 0, 0.7825, 0.0975, 0.88, 0.195, 0.98, 0.2925, 1.0775, 0.3925, 1.175, 0.49, 1.2725, 0.5875, 1.37, 0.685],
  "SoftwareVersions": "syngo_MR_E11",
  "SpacingBetweenSlices": 2,
  "StationName": "MRC35049",
  "TaskName": "s03e21a",
  "TotalReadoutTime": 0.0576811,
  "TxRefAmp": 236.749,
  "WipMemBlock": "9b722042-2515-4468-8370-c7645cc96eaf||Sequence: R016 ve11c/master r/e634e98; Dec 19 2017 11:00:25 by eja",
  "dcmmeta_affine": [
    [-1.9994337558746338, 0.04746852070093155, -0.003349347272887826, 97.39270782470703],
    [0.04556348919868469, 1.8690755367279053, -0.7102681398391724, -71.65325927734375],
    [0.013727596029639244, 0.7101433277130127, 1.869627833366394, -70.07170104980469],
    [0.0, 0.0, 0.0, 1.0]
],
  "dcmmeta_reorient_transform": [
    [0.0, -1.0, 0.0, 103.0],
    [1.0, 0.0, 0.0, 0.0],
    [0.0, 0.0, 1.0, 0.0],
    [0.0, 0.0, 0.0, 1.0]
],
  "dcmmeta_shape": [104, 104, 60, 460],
  "dcmmeta_slice_dim": 2,
  "dcmmeta_version": 0.6,
  "global": {
    "const": {
      "AcquisitionMatrix": [104, 0, 0, 104],
      "AngioFlag": "N",
      "BitsAllocated": 16,
      "BitsStored": 16,
      "BodyPartExamined": "BRAIN",
      "Columns": 832,
      "EchoNumbers": 1,
      "EchoTime": 37.0,
      "EchoTrainLength": 104,
      "FlipAngle": 52.0,
      "HighBit": 15,
      "ImageOrientationPatient": [0.99971690012287, -0.022781744547, 0.00686379808179, 0.02373425956538, 0.93453774549558, -0.3550716648325],
      "ImagePositionPatient": [-847.3544062806, -784.61988362782, 256.56839261584],
      "ImageType": [
        "ORIGINAL",
        "PRIMARY",
        "M",
        "MB",
        "ND",
        "MOSAIC"
],
      "ImagedNucleus": "1H",
      "ImagingFrequency": 123.258976,
      "InPlanePhaseEncodingDirection": "COL",
      "MRAcquisitionType": "2D",
      "MagneticFieldStrength": 3.0,
      "Manufacturer": "SIEMENS",
      "ManufacturerModelName": "Prisma_fit",
      "Modality": "MR",
      "NumberOfAverages": 1.0,
      "NumberOfPhaseEncodingSteps": 104,
      "PercentPhaseFieldOfView": 100.0,
      "PercentSampling": 100.0,
      "PerformedProcedureStepStartTime": "161405.872000",
      "PhotometricInterpretation": "MONOCHROME2",
      "PixelBandwidth": 2290.0,
      "PixelRepresentation": 0,
      "PixelSpacing": [2.0, 2.0],
      "ProtocolName": "func_task-friends-s03e21a",
      "RepetitionTime": 1490.0,
      "Rows": 832,
      "SAR": 0.03462971688294,
      "SamplesPerPixel": 1,
      "ScanOptions": "FS",
      "ScanningSequence": "EP",
      "SequenceName": "epfid2d1_104",
      "SequenceVariant": [
        "SK",
        "SS"
],
      "SeriesDescription": "func_task-friends-s03e21a",
      "SeriesNumber": 29,
      "SeriesTime": "183307.791000",
      "SliceLocation": -40.22058392487,
      "SliceThickness": 2.0,
      "SmallestImagePixelValue": 0,
      "SoftwareVersions": "syngo MR E11",
      "SpacingBetweenSlices": 2.0000000327142,
      "SpecificCharacterSet": "ISO_IR 100",
      "StudyID": "1",
      "StudyTime": "161405.805000",
      "TransmitCoilName": "Body",
      "VariableFlipAngleFlag": "N",
      "WindowCenterWidthExplanation": "Algo1",
      "dBdt": 0.0},
    "slices": {}
  },
  "time": {
    "samples": {
      "AcquisitionNumber": [1, 2, 3, 4, 5, 6, 7, 8, 9, 10, 11, 12, 13, 14, 15, 16, 17, 18, 19, 20, 21, 22, 23, 24, 25, 26, 27, 28, 29, 30, 31, 32, 33, 34, 35, 36, 37, 38, 39, 40, 41, 42, 43, 44, 45, 46, 47, 48, 49, 50, 51, 52, 53, 54, 55, 56, 57, 58, 59, 60, 61, 62, 63, 64, 65, 66, 67, 68, 69, 70, 71, 72, 73, 74, 75, 76, 77, 78, 79, 80, 81, 82, 83, 84, 85, 86, 87, 88, 89, 90, 91, 92, 93, 94, 95, 96, 97, 98, 99, 100, 101, 102, 103, 104, 105, 106, 107, 108, 109, 110, 111, 112, 113, 114, 115, 116, 117, 118, 119, 120, 121, 122, 123, 124, 125, 126, 127, 128, 129, 130, 131, 132, 133, 134, 135, 136, 137, 138, 139, 140, 141, 142, 143, 144, 145, 146, 147, 148, 149, 150, 151, 152, 153, 154, 155, 156, 157, 158, 159, 160, 161, 162, 163, 164, 165, 166, 167, 168, 169, 170, 171, 172, 173, 174, 175, 176, 177, 178, 179, 180, 181, 182, 183, 184, 185, 186, 187, 188, 189, 190, 191, 192, 193, 194, 195, 196, 197, 198, 199, 200, 201, 202, 203, 204, 205, 206, 207, 208, 209, 210, 211, 212, 213, 214, 215, 216, 217, 218, 219, 220, 221, 222, 223, 224, 225, 226, 227, 228, 229, 230, 231, 232, 233, 234, 235, 236, 237, 238, 239, 240, 241, 242, 243, 244, 245, 246, 247, 248, 249, 250, 251, 252, 253, 254, 255, 256, 257, 258, 259, 260, 261, 262, 263, 264, 265, 266, 267, 268, 269, 270, 271, 272, 273, 274, 275, 276, 277, 278, 279, 280, 281, 282, 283, 284, 285, 286, 287, 288, 289, 290, 291, 292, 293, 294, 295, 296, 297, 298, 299, 300, 301, 302, 303, 304, 305, 306, 307, 308, 309, 310, 311, 312, 313, 314, 315, 316, 317, 318, 319, 320, 321, 322, 323, 324, 325, 326, 327, 328, 329, 330, 331, 332, 333, 334, 335, 336, 337, 338, 339, 340, 341, 342, 343, 344, 345, 346, 347, 348, 349, 350, 351, 352, 353, 354, 355, 356, 357, 358, 359, 360, 361, 362, 363, 364, 365, 366, 367, 368, 369, 370, 371, 372, 373, 374, 375, 376, 377, 378, 379, 380, 381, 382, 383, 384, 385, 386, 387, 388, 389, 390, 391, 392, 393, 394, 395, 396, 397, 398, 399, 400, 401, 402, 403, 404, 405, 406, 407, 408, 409, 410, 411, 412, 413, 414, 415, 416, 417, 418, 419, 420, 421, 422, 423, 424, 425, 426, 427, 428, 429, 430, 431, 432, 433, 434, 435, 436, 437, 438, 439, 440, 441, 442, 443, 444, 445, 446, 447, 448, 449, 450, 451, 452, 453, 454, 455, 456, 457, 458, 459, 460],
      "AcquisitionTime": ["183150.397500", "183151.887500", "183153.377500", "183154.867500", "183156.357500", "183157.847500", "183159.337500", "183200.827500", "183202.317500", "183203.807500", "183205.297500", "183206.787500", "183208.277500", "183209.767500", "183211.257500", "183212.747500", "183214.237500", "183215.727500", "183217.217500", "183218.707500", "183220.197500", "183221.687500", "183223.177500", "183224.667500", "183226.157500", "183227.647500", "183229.137500", "183230.627500", "183232.117500", "183233.607500", "183235.097500", "183236.587500", "183238.077500", "183239.567500", "183241.057500", "183242.547500", "183244.037500", "183245.527500", "183247.017500", "183248.507500", "183249.997500", "183251.487500", "183252.977500", "183254.467500", "183255.957500", "183257.447500", "183258.937500", "183300.427500", "183301.917500", "183303.407500", "183304.897500", "183306.387500", "183307.877500", "183309.367500", "183310.857500", "183312.347500", "183313.837500", "183315.327500", "183316.817500", "183318.307500", "183319.797500", "183321.287500", "183322.777500", "183324.267500", "183325.757500", "183327.247500", "183328.737500", "183330.227500", "183331.717500", "183333.207500", "183334.697500", "183336.187500", "183337.677500", "183339.167500", "183340.657500", "183342.147500", "183343.637500", "183345.127500", "183346.617500", "183348.107500", "183349.597500", "183351.087500", "183352.577500", "183354.067500", "183355.557500", "183357.047500", "183358.537500", "183400.027500", "183401.517500", "183403.007500", "183404.497500", "183405.987500", "183407.477500", "183408.967500", "183410.457500", "183411.947500", "183413.437500", "183414.927500", "183416.417500", "183417.907500", "183419.397500", "183420.887500", "183422.377500", "183423.867500", "183425.357500", "183426.847500", "183428.337500", "183429.827500", "183431.317500", "183432.807500", "183434.297500", "183435.787500", "183437.277500", "183438.767500", "183440.257500", "183441.747500", "183443.237500", "183444.727500", "183446.217500", "183447.707500", "183449.197500", "183450.687500", "183452.177500", "183453.667500", "183455.157500", "183456.647500", "183458.137500", "183459.627500", "183501.117500", "183502.607500", "183504.097500", "183505.587500", "183507.077500", "183508.567500", "183510.057500", "183511.547500", "183513.037500", "183514.527500", "183516.017500", "183517.507500", "183518.997500", "183520.487500", "183521.977500", "183523.467500", "183524.957500", "183526.447500", "183527.937500", "183529.427500", "183530.917500", "183532.407500", "183533.897500", "183535.387500", "183536.877500", "183538.367500", "183539.857500", "183541.347500", "183542.837500", "183544.327500", "183545.817500", "183547.307500", "183548.797500", "183550.287500", "183551.777500", "183553.267500", "183554.757500", "183556.247500", "183557.737500", "183559.227500", "183600.717500", "183602.207500", "183603.697500", "183605.187500", "183606.677500", "183608.167500", "183609.657500", "183611.147500", "183612.637500", "183614.127500", "183615.617500", "183617.107500", "183618.597500", "183620.087500", "183621.577500", "183623.067500", "183624.557500", "183626.047500", "183627.537500", "183629.027500", "183630.517500", "183632.007500", "183633.497500", "183634.987500", "183636.477500", "183637.967500", "183639.457500", "183640.947500", "183642.437500", "183643.927500", "183645.417500", "183646.907500", "183648.397500", "183649.887500", "183651.377500", "183652.867500", "183654.357500", "183655.847500", "183657.337500", "183658.827500", "183700.317500", "183701.807500", "183703.297500", "183704.787500", "183706.277500", "183707.767500", "183709.257500", "183710.747500", "183712.237500", "183713.727500", "183715.217500", "183716.707500", "183718.197500", "183719.687500", "183721.177500", "183722.667500", "183724.157500", "183725.647500", "183727.137500", "183728.627500", "183730.117500", "183731.607500", "183733.097500", "183734.587500", "183736.077500", "183737.567500", "183739.057500", "183740.547500", "183742.037500", "183743.527500", "183745.017500", "183746.507500", "183747.997500", "183749.487500", "183750.977500", "183752.467500", "183753.957500", "183755.447500", "183756.937500", "183758.427500", "183759.917500", "183801.407500", "183802.897500", "183804.387500", "183805.877500", "183807.367500", "183808.857500", "183810.347500", "183811.837500", "183813.327500", "183814.817500", "183816.307500", "183817.797500", "183819.287500", "183820.777500", "183822.267500", "183823.757500", "183825.247500", "183826.737500", "183828.227500", "183829.717500", "183831.207500", "183832.697500", "183834.187500", "183835.677500", "183837.167500", "183838.657500", "183840.147500", "183841.637500", "183843.127500", "183844.617500", "183846.107500", "183847.597500", "183849.087500", "183850.577500", "183852.067500", "183853.557500", "183855.047500", "183856.537500", "183858.027500", "183859.517500", "183901.007500", "183902.497500", "183903.987500", "183905.477500", "183906.967500", "183908.457500", "183909.947500", "183911.437500", "183912.927500", "183914.417500", "183915.907500", "183917.397500", "183918.887500", "183920.377500", "183921.867500", "183923.357500", "183924.847500", "183926.337500", "183927.827500", "183929.317500", "183930.807500", "183932.297500", "183933.787500", "183935.277500", "183936.767500", "183938.257500", "183939.747500", "183941.237500", "183942.727500", "183944.217500", "183945.707500", "183947.197500", "183948.687500", "183950.177500", "183951.667500", "183953.157500", "183954.647500", "183956.137500", "183957.627500", "183959.117500", "184000.607500", "184002.097500", "184003.587500", "184005.077500", "184006.567500", "184008.057500", "184009.547500", "184011.037500", "184012.527500", "184014.017500", "184015.507500", "184016.997500", "184018.487500", "184019.977500", "184021.467500", "184022.957500", "184024.447500", "184025.937500", "184027.427500", "184028.917500", "184030.407500", "184031.897500", "184033.387500", "184034.877500", "184036.367500", "184037.857500", "184039.347500", "184040.837500", "184042.327500", "184043.817500", "184045.307500", "184046.797500", "184048.287500", "184049.777500", "184051.267500", "184052.757500", "184054.247500", "184055.737500", "184057.227500", "184058.717500", "184100.207500", "184101.697500", "184103.187500", "184104.677500", "184106.167500", "184107.657500", "184109.147500", "184110.637500", "184112.127500", "184113.617500", "184115.107500", "184116.597500", "184118.087500", "184119.577500", "184121.067500", "184122.557500", "184124.047500", "184125.537500", "184127.027500", "184128.517500", "184130.007500", "184131.497500", "184132.987500", "184134.477500", "184135.967500", "184137.457500", "184138.947500", "184140.437500", "184141.927500", "184143.417500", "184144.907500", "184146.397500", "184147.887500", "184149.377500", "184150.867500", "184152.357500", "184153.847500", "184155.337500", "184156.827500", "184158.317500", "184159.807500", "184201.297500", "184202.787500", "184204.277500", "184205.767500", "184207.257500", "184208.747500", "184210.237500", "184211.727500", "184213.217500", "184214.707500", "184216.197500", "184217.687500", "184219.177500", "184220.667500", "184222.157500", "184223.647500", "184225.137500", "184226.627500", "184228.117500", "184229.607500", "184231.097500", "184232.587500", "184234.077500", "184235.567500", "184237.057500", "184238.547500", "184240.037500", "184241.527500", "184243.017500", "184244.507500", "184245.997500", "184247.487500", "184248.977500", "184250.467500", "184251.957500", "184253.447500", "184254.937500", "184256.427500", "184257.917500", "184259.407500", "184300.897500", "184302.387500", "184303.877500", "184305.367500", "184306.857500", "184308.347500", "184309.837500", "184311.327500", "184312.817500", "184314.307500"],
      "ContentTime": ["183307.794000", "183307.797000", "183307.800000", "183307.803000", "183307.806000", "183307.809000", "183307.812000", "183307.815000", "183307.818000", "183307.821000", "183307.824000", "183307.828000", "183307.831000", "183307.834000", "183307.837000", "183307.840000", "183307.843000", "183307.846000", "183307.849000", "183307.852000", "183307.855000", "183307.858000", "183307.861000", "183307.864000", "183307.867000", "183327.747000", "183327.750000", "183327.753000", "183327.756000", "183327.759000", "183327.762000", "183327.765000", "183327.768000", "183327.771000", "183327.775000", "183327.778000", "183327.780000", "183327.783000", "183327.787000", "183327.790000", "183327.793000", "183327.796000", "183327.799000", "183327.802000", "183327.805000", "183347.747000", "183347.750000", "183347.753000", "183347.756000", "183347.759000", "183347.762000", "183347.765000", "183347.768000", "183347.771000", "183347.774000", "183347.777000", "183347.780000", "183347.783000", "183347.786000", "183347.789000", "183347.792000", "183347.795000", "183347.798000", "183347.801000", "183347.804000", "183407.747000", "183407.750000", "183407.753000", "183407.756000", "183407.759000", "183407.762000", "183407.765000", "183407.768000", "183407.771000", "183407.774000", "183407.777000", "183407.780000", "183407.783000", "183407.786000", "183407.789000", "183407.792000", "183407.795000", "183407.798000", "183407.801000", "183407.804000", "183407.807000", "183447.747000", "183447.750000", "183447.756000", "183447.759000", "183447.763000", "183447.765000", "183447.769000", "183447.772000", "183447.775000", "183447.778000", "183447.781000", "183447.784000", "183447.787000", "183447.790000", "183447.794000", "183447.797000", "183447.800000", "183447.803000", "183447.806000", "183447.809000", "183447.812000", "183447.815000", "183447.818000", "183447.821000", "183447.824000", "183447.827000", "183447.830000", "183447.833000", "183447.836000", "183447.839000", "183447.842000", "183447.854000", "183527.747000", "183527.750000", "183527.753000", "183527.756000", "183527.767000", "183527.770000", "183527.773000", "183527.776000", "183527.780000", "183527.783000", "183527.786000", "183527.789000", "183527.792000", "183527.795000", "183527.798000", "183527.801000", "183527.804000", "183527.807000", "183527.810000", "183527.813000", "183527.816000", "183527.819000", "183527.822000", "183527.825000", "183527.828000", "183527.831000", "183527.834000", "183607.747000", "183607.750000", "183607.753000", "183607.756000", "183607.759000", "183607.762000", "183607.765000", "183607.768000", "183607.771000", "183607.774000", "183607.784000", "183607.787000", "183607.790000", "183607.793000", "183607.796000", "183607.799000", "183607.802000", "183607.805000", "183607.808000", "183607.811000", "183607.814000", "183607.817000", "183607.820000", "183607.824000", "183607.827000", "183607.829000", "183607.832000", "183647.747000", "183647.750000", "183647.759000", "183647.762000", "183647.765000", "183647.768000", "183647.771000", "183647.774000", "183647.777000", "183647.780000", "183647.783000", "183647.786000", "183647.789000", "183647.792000", "183647.795000", "183647.798000", "183647.801000", "183647.804000", "183647.807000", "183647.810000", "183647.813000", "183647.816000", "183647.819000", "183647.822000", "183647.825000", "183647.828000", "183647.832000", "183727.748000", "183727.761000", "183727.764000", "183727.767000", "183727.776000", "183727.779000", "183727.782000", "183727.785000", "183727.788000", "183727.791000", "183727.794000", "183727.797000", "183727.800000", "183727.804000", "183727.807000", "183727.810000", "183727.813000", "183727.816000", "183727.819000", "183727.822000", "183727.825000", "183727.828000", "183727.831000", "183727.834000", "183727.837000", "183727.840000", "183727.843000", "183807.747000", "183807.750000", "183807.753000", "183807.756000", "183807.759000", "183807.762000", "183807.765000", "183807.768000", "183807.772000", "183807.775000", "183807.778000", "183807.781000", "183807.784000", "183807.787000", "183807.790000", "183807.793000", "183807.796000", "183807.799000", "183807.802000", "183807.805000", "183807.808000", "183807.811000", "183807.814000", "183807.817000", "183807.820000", "183807.823000", "183807.826000", "183847.747000", "183847.750000", "183847.753000", "183847.757000", "183847.760000", "183847.763000", "183847.766000", "183847.769000", "183847.772000", "183847.775000", "183847.778000", "183847.781000", "183847.784000", "183847.787000", "183847.790000", "183847.793000", "183847.796000", "183847.799000", "183847.802000", "183847.805000", "183847.808000", "183847.812000", "183847.815000", "183847.818000", "183847.820000", "183847.824000", "183927.747000", "183927.750000", "183927.753000", "183927.756000", "183927.759000", "183927.763000", "183927.766000", "183927.769000", "183927.772000", "183927.775000", "183927.778000", "183927.781000", "183927.784000", "183927.787000", "183927.790000", "183927.793000", "183927.796000", "183927.799000", "183927.802000", "183927.805000", "183927.808000", "183927.811000", "183927.814000", "183927.817000", "183927.820000", "183927.824000", "183927.826000", "184007.747000", "184007.750000", "184007.753000", "184007.756000", "184007.760000", "184007.763000", "184007.766000", "184007.769000", "184007.772000", "184007.775000", "184007.778000", "184007.781000", "184007.784000", "184007.787000", "184007.790000", "184007.793000", "184007.797000", "184007.800000", "184007.803000", "184007.806000", "184007.809000", "184007.812000", "184007.815000", "184007.818000", "184007.821000", "184007.831000", "184007.834000", "184047.747000", "184047.750000", "184047.753000", "184047.756000", "184047.759000", "184047.762000", "184047.765000", "184047.769000", "184047.772000", "184047.775000", "184047.778000", "184047.781000", "184047.784000", "184047.787000", "184047.790000", "184047.793000", "184047.796000", "184047.799000", "184047.802000", "184047.805000", "184047.808000", "184047.811000", "184047.814000", "184047.817000", "184047.820000", "184047.823000", "184047.826000", "184127.747000", "184127.750000", "184127.753000", "184127.757000", "184127.760000", "184127.763000", "184127.766000", "184127.769000", "184127.772000", "184127.775000", "184127.778000", "184127.781000", "184127.784000", "184127.787000", "184127.790000", "184127.793000", "184127.796000", "184127.799000", "184127.802000", "184127.805000", "184127.808000", "184127.811000", "184127.814000", "184127.817000", "184127.820000", "184127.823000", "184127.826000", "184207.748000", "184207.761000", "184207.764000", "184207.767000", "184207.770000", "184207.773000", "184207.776000", "184207.779000", "184207.782000", "184207.785000", "184207.788000", "184207.791000", "184207.794000", "184207.797000", "184207.800000", "184207.803000", "184207.807000", "184207.810000", "184207.813000", "184207.816000", "184207.819000", "184207.822000", "184207.825000", "184207.828000", "184207.831000", "184207.834000", "184207.837000", "184247.748000", "184247.752000", "184247.755000", "184247.759000", "184247.762000", "184247.765000", "184247.768000", "184247.771000", "184247.774000", "184247.777000", "184247.780000", "184247.783000", "184247.786000", "184247.789000", "184247.792000", "184247.795000", "184247.798000", "184247.801000", "184247.804000", "184247.807000", "184247.810000", "184247.813000", "184247.816000", "184247.819000", "184247.822000", "184247.825000", "184316.130000", "184316.134000", "184316.137000", "184316.140000", "184316.143000", "184316.146000", "184316.149000", "184316.152000", "184316.155000", "184316.158000", "184316.161000", "184316.164000", "184316.167000", "184316.170000", "184316.173000", "184316.176000", "184316.179000", "184316.182000", "184316.185000", "184316.188000"],
