{
  "AcquisitionMatrixPE": 104,
  "AcquisitionNumber": 1,
  "AcquisitionTime": "16:43:13.955000",
  "BandwidthPerPixelPhaseEncode": 17.17,
  "BaseResolution": 104,
  "BodyPartExamined": "BRAIN",
  "CoilString": "HC1-7;NC1_2",
  "ConsistencyInfo": "N4_VE11C_LATEST_20160120",
  "ConversionSoftware": "dcm2niix",
  "ConversionSoftwareVersion": "v1.0.20190902",
  "DerivedVendorReportedEchoSpacing": 0.000560011,
  "DeviceSerialNumber": "167006",
  "DwellTime": 2.1e-06,
  "EchoTime": 0.037,
  "EchoTrainLength": 104,
  "EffectiveEchoSpacing": 0.000560011,
  "FlipAngle": 52,
  "ImageComments": "Unaliased_MB4_PE3_LB",
  "ImageOrientationPatientDICOM": [0.999717, -0.0227817, 0.0068638, 0.0237343, 0.934538, -0.355072],
  "ImageType": [
    "ORIGINAL",
    "PRIMARY",
    "M",
    "MB",
    "ND",
    "MOSAIC"
],
  "ImagingFrequency": 123.259,
  "InPlanePhaseEncodingDirectionDICOM": "COL",
  "InstitutionAddress": "Chemin_Queen-Mary_4565_Montreal_District_CA_H3W_1W5",
  "InstitutionName": "IUGM",
  "InstitutionalDepartmentName": "Department",
  "MRAcquisitionType": "2D",
  "MagneticFieldStrength": 3,
  "Manufacturer": "Siemens",
  "ManufacturersModelName": "Prisma_fit",
  "Modality": "MR",
  "MultibandAccelerationFactor": 4,
  "PartialFourier": 1,
  "PatientPosition": "HFS",
  "PercentPhaseFOV": 100,
  "PhaseEncodingDirection": "j",
  "PhaseEncodingSteps": 104,
  "PhaseResolution": 1,
  "PixelBandwidth": 2290,
  "ProcedureStepDescription": "video_friends",
  "ProtocolName": "func_task-friends-s03e16b",
  "PulseSequenceDetails": "%CustomerSeq%_cmrr_mbep2d_bold",
  "ReceiveCoilActiveElements": "HC1-7;NC1,2",
  "ReceiveCoilName": "HeadNeck_64",
  "ReconMatrixPE": 104,
  "RepetitionTime": 1.49,
  "SAR": 0.0346323,
  "ScanOptions": "FS",
  "ScanningSequence": "EP",
  "SequenceName": "epfid2d1_104",
  "SequenceVariant": "SK_SS",
  "SeriesDescription": "func_task-friends-s03e16b",
  "SeriesNumber": 11,
  "ShimSetting": [613, -7284, -8832, 394, 1, -469, 73, 16],
  "SliceThickness": 2,
  "SliceTiming": [0, 0.785, 0.0975, 0.8825, 0.195, 0.98, 0.295, 1.0775, 0.3925, 1.175, 0.49, 1.275, 0.5875, 1.3725, 0.685, 0, 0.785, 0.0975, 0.8825, 0.195, 0.98, 0.295, 1.0775, 0.3925, 1.175, 0.49, 1.275, 0.5875, 1.3725, 0.685, 0, 0.785, 0.0975, 0.8825, 0.195, 0.98, 0.295, 1.0775, 0.3925, 1.175, 0.49, 1.275, 0.5875, 1.3725, 0.685, 0, 0.785, 0.0975, 0.8825, 0.195, 0.98, 0.295, 1.0775, 0.3925, 1.175, 0.49, 1.275, 0.5875, 1.3725, 0.685],
  "SoftwareVersions": "syngo_MR_E11",
  "SpacingBetweenSlices": 2,
  "StationName": "MRC35049",
  "TaskName": "s03e16b",
  "TotalReadoutTime": 0.0576811,
  "TxRefAmp": 236.749,
  "WipMemBlock": "ecf02f5e-e6f1-4912-8926-3a32e348d3ff||Sequence: R016 ve11c/master r/e634e98; Dec 19 2017 11:00:25 by eja",
  "dcmmeta_affine": [
    [-1.9994337558746338, 0.04746852070093155, -0.003349347272887826, 97.39270782470703],
    [0.04556348919868469, 1.8690755367279053, -0.7102681398391724, -71.65325927734375],
    [0.013727596029639244, 0.7101433277130127, 1.869627833366394, -70.07170104980469],
    [0.0, 0.0, 0.0, 1.0]
],
  "dcmmeta_reorient_transform": [
    [0.0, -1.0, 0.0, 103.0],
    [1.0, 0.0, 0.0, 0.0],
    [0.0, 0.0, 1.0, 0.0],
    [0.0, 0.0, 0.0, 1.0]
],
  "dcmmeta_shape": [104, 104, 60, 468],
  "dcmmeta_slice_dim": 2,
  "dcmmeta_version": 0.6,
  "global": {
    "const": {
      "AcquisitionMatrix": [104, 0, 0, 104],
      "AngioFlag": "N",
      "BitsAllocated": 16,
      "BitsStored": 16,
      "BodyPartExamined": "BRAIN",
      "Columns": 832,
      "EchoNumbers": 1,
      "EchoTime": 37.0,
      "EchoTrainLength": 104,
      "FlipAngle": 52.0,
      "HighBit": 15,
      "ImageOrientationPatient": [0.99971690012287, -0.022781744547, 0.00686379808179, 0.02373425956538, 0.93453774549558, -0.3550716648325],
      "ImagePositionPatient": [-847.3544062806, -784.61988362782, 256.56839261584],
      "ImageType": [
        "ORIGINAL",
        "PRIMARY",
        "M",
        "MB",
        "ND",
        "MOSAIC"
],
      "ImagedNucleus": "1H",
      "ImagingFrequency": 123.258953,
      "InPlanePhaseEncodingDirection": "COL",
      "MRAcquisitionType": "2D",
      "MagneticFieldStrength": 3.0,
      "Manufacturer": "SIEMENS",
      "ManufacturerModelName": "Prisma_fit",
      "Modality": "MR",
      "NumberOfAverages": 1.0,
      "NumberOfPhaseEncodingSteps": 104,
      "PercentPhaseFieldOfView": 100.0,
      "PercentSampling": 100.0,
      "PerformedProcedureStepStartTime": "161405.872000",
      "PhotometricInterpretation": "MONOCHROME2",
      "PixelBandwidth": 2290.0,
      "PixelRepresentation": 0,
      "PixelSpacing": [2.0, 2.0],
      "ProtocolName": "func_task-friends-s03e16b",
      "RepetitionTime": 1490.0,
      "Rows": 832,
      "SAR": 0.0346322625075,
      "SamplesPerPixel": 1,
      "ScanOptions": "FS",
      "ScanningSequence": "EP",
      "SequenceName": "epfid2d1_104",
      "SequenceVariant": [
        "SK",
        "SS"
],
      "SeriesDescription": "func_task-friends-s03e16b",
      "SeriesNumber": 11,
      "SeriesTime": "164427.776000",
      "SliceLocation": -40.22058392487,
      "SliceThickness": 2.0,
      "SmallestImagePixelValue": 0,
      "SoftwareVersions": "syngo MR E11",
      "SpacingBetweenSlices": 2.0000000327142,
      "SpecificCharacterSet": "ISO_IR 100",
      "StudyID": "1",
      "StudyTime": "161405.805000",
      "TransmitCoilName": "Body",
      "VariableFlipAngleFlag": "N",
      "WindowCenterWidthExplanation": "Algo1",
      "dBdt": 0.0},
    "slices": {}
  },
  "time": {
    "samples": {
      "AcquisitionNumber": [1, 2, 3, 4, 5, 6, 7, 8, 9, 10, 11, 12, 13, 14, 15, 16, 17, 18, 19, 20, 21, 22, 23, 24, 25, 26, 27, 28, 29, 30, 31, 32, 33, 34, 35, 36, 37, 38, 39, 40, 41, 42, 43, 44, 45, 46, 47, 48, 49, 50, 51, 52, 53, 54, 55, 56, 57, 58, 59, 60, 61, 62, 63, 64, 65, 66, 67, 68, 69, 70, 71, 72, 73, 74, 75, 76, 77, 78, 79, 80, 81, 82, 83, 84, 85, 86, 87, 88, 89, 90, 91, 92, 93, 94, 95, 96, 97, 98, 99, 100, 101, 102, 103, 104, 105, 106, 107, 108, 109, 110, 111, 112, 113, 114, 115, 116, 117, 118, 119, 120, 121, 122, 123, 124, 125, 126, 127, 128, 129, 130, 131, 132, 133, 134, 135, 136, 137, 138, 139, 140, 141, 142, 143, 144, 145, 146, 147, 148, 149, 150, 151, 152, 153, 154, 155, 156, 157, 158, 159, 160, 161, 162, 163, 164, 165, 166, 167, 168, 169, 170, 171, 172, 173, 174, 175, 176, 177, 178, 179, 180, 181, 182, 183, 184, 185, 186, 187, 188, 189, 190, 191, 192, 193, 194, 195, 196, 197, 198, 199, 200, 201, 202, 203, 204, 205, 206, 207, 208, 209, 210, 211, 212, 213, 214, 215, 216, 217, 218, 219, 220, 221, 222, 223, 224, 225, 226, 227, 228, 229, 230, 231, 232, 233, 234, 235, 236, 237, 238, 239, 240, 241, 242, 243, 244, 245, 246, 247, 248, 249, 250, 251, 252, 253, 254, 255, 256, 257, 258, 259, 260, 261, 262, 263, 264, 265, 266, 267, 268, 269, 270, 271, 272, 273, 274, 275, 276, 277, 278, 279, 280, 281, 282, 283, 284, 285, 286, 287, 288, 289, 290, 291, 292, 293, 294, 295, 296, 297, 298, 299, 300, 301, 302, 303, 304, 305, 306, 307, 308, 309, 310, 311, 312, 313, 314, 315, 316, 317, 318, 319, 320, 321, 322, 323, 324, 325, 326, 327, 328, 329, 330, 331, 332, 333, 334, 335, 336, 337, 338, 339, 340, 341, 342, 343, 344, 345, 346, 347, 348, 349, 350, 351, 352, 353, 354, 355, 356, 357, 358, 359, 360, 361, 362, 363, 364, 365, 366, 367, 368, 369, 370, 371, 372, 373, 374, 375, 376, 377, 378, 379, 380, 381, 382, 383, 384, 385, 386, 387, 388, 389, 390, 391, 392, 393, 394, 395, 396, 397, 398, 399, 400, 401, 402, 403, 404, 405, 406, 407, 408, 409, 410, 411, 412, 413, 414, 415, 416, 417, 418, 419, 420, 421, 422, 423, 424, 425, 426, 427, 428, 429, 430, 431, 432, 433, 434, 435, 436, 437, 438, 439, 440, 441, 442, 443, 444, 445, 446, 447, 448, 449, 450, 451, 452, 453, 454, 455, 456, 457, 458, 459, 460, 461, 462, 463, 464, 465, 466, 467, 468],
      "AcquisitionTime": ["164313.955000", "164315.445000", "164316.935000", "164318.425000", "164319.915000", "164321.405000", "164322.895000", "164324.385000", "164325.875000", "164327.365000", "164328.855000", "164330.345000", "164331.835000", "164333.325000", "164334.815000", "164336.305000", "164337.795000", "164339.285000", "164340.775000", "164342.265000", "164343.755000", "164345.245000", "164346.735000", "164348.225000", "164349.715000", "164351.205000", "164352.695000", "164354.185000", "164355.675000", "164357.165000", "164358.655000", "164400.145000", "164401.635000", "164403.125000", "164404.615000", "164406.105000", "164407.595000", "164409.085000", "164410.575000", "164412.065000", "164413.555000", "164415.045000", "164416.535000", "164418.025000", "164419.515000", "164421.005000", "164422.495000", "164423.985000", "164425.475000", "164426.965000", "164428.455000", "164429.945000", "164431.435000", "164432.925000", "164434.415000", "164435.905000", "164437.395000", "164438.885000", "164440.375000", "164441.865000", "164443.355000", "164444.845000", "164446.335000", "164447.825000", "164449.315000", "164450.805000", "164452.295000", "164453.785000", "164455.275000", "164456.765000", "164458.255000", "164459.745000", "164501.235000", "164502.725000", "164504.215000", "164505.705000", "164507.195000", "164508.685000", "164510.175000", "164511.665000", "164513.155000", "164514.645000", "164516.135000", "164517.625000", "164519.115000", "164520.605000", "164522.095000", "164523.585000", "164525.075000", "164526.565000", "164528.055000", "164529.545000", "164531.035000", "164532.525000", "164534.015000", "164535.505000", "164536.995000", "164538.485000", "164539.975000", "164541.465000", "164542.955000", "164544.445000", "164545.935000", "164547.425000", "164548.915000", "164550.405000", "164551.895000", "164553.385000", "164554.875000", "164556.365000", "164557.855000", "164559.345000", "164600.835000", "164602.325000", "164603.815000", "164605.305000", "164606.795000", "164608.285000", "164609.775000", "164611.265000", "164612.755000", "164614.245000", "164615.735000", "164617.225000", "164618.715000", "164620.205000", "164621.695000", "164623.185000", "164624.675000", "164626.165000", "164627.655000", "164629.145000", "164630.635000", "164632.125000", "164633.615000", "164635.105000", "164636.595000", "164638.085000", "164639.575000", "164641.065000", "164642.555000", "164644.045000", "164645.535000", "164647.025000", "164648.515000", "164650.005000", "164651.495000", "164652.985000", "164654.475000", "164655.965000", "164657.455000", "164658.945000", "164700.435000", "164701.925000", "164703.415000", "164704.905000", "164706.395000", "164707.885000", "164709.375000", "164710.865000", "164712.355000", "164713.845000", "164715.335000", "164716.825000", "164718.315000", "164719.805000", "164721.295000", "164722.785000", "164724.275000", "164725.765000", "164727.255000", "164728.745000", "164730.235000", "164731.725000", "164733.215000", "164734.705000", "164736.195000", "164737.685000", "164739.175000", "164740.665000", "164742.155000", "164743.645000", "164745.135000", "164746.625000", "164748.115000", "164749.605000", "164751.095000", "164752.585000", "164754.075000", "164755.565000", "164757.055000", "164758.545000", "164800.035000", "164801.525000", "164803.015000", "164804.505000", "164805.995000", "164807.485000", "164808.975000", "164810.465000", "164811.955000", "164813.445000", "164814.935000", "164816.425000", "164817.915000", "164819.405000", "164820.895000", "164822.385000", "164823.875000", "164825.365000", "164826.855000", "164828.345000", "164829.835000", "164831.325000", "164832.815000", "164834.305000", "164835.795000", "164837.285000", "164838.775000", "164840.265000", "164841.755000", "164843.245000", "164844.735000", "164846.225000", "164847.715000", "164849.205000", "164850.695000", "164852.185000", "164853.675000", "164855.165000", "164856.655000", "164858.145000", "164859.635000", "164901.125000", "164902.615000", "164904.105000", "164905.595000", "164907.085000", "164908.575000", "164910.065000", "164911.555000", "164913.045000", "164914.535000", "164916.025000", "164917.515000", "164919.005000", "164920.495000", "164921.985000", "164923.475000", "164924.965000", "164926.455000", "164927.945000", "164929.435000", "164930.925000", "164932.415000", "164933.905000", "164935.395000", "164936.885000", "164938.375000", "164939.865000", "164941.355000", "164942.845000", "164944.335000", "164945.825000", "164947.315000", "164948.805000", "164950.295000", "164951.785000", "164953.275000", "164954.765000", "164956.255000", "164957.745000", "164959.235000", "165000.725000", "165002.215000", "165003.705000", "165005.195000", "165006.685000", "165008.175000", "165009.665000", "165011.155000", "165012.645000", "165014.135000", "165015.625000", "165017.115000", "165018.605000", "165020.095000", "165021.585000", "165023.075000", "165024.565000", "165026.055000", "165027.545000", "165029.035000", "165030.525000", "165032.015000", "165033.505000", "165034.995000", "165036.485000", "165037.975000", "165039.465000", "165040.955000", "165042.445000", "165043.935000", "165045.425000", "165046.915000", "165048.405000", "165049.895000", "165051.385000", "165052.875000", "165054.365000", "165055.855000", "165057.345000", "165058.835000", "165100.325000", "165101.815000", "165103.305000", "165104.795000", "165106.285000", "165107.775000", "165109.265000", "165110.755000", "165112.245000", "165113.735000", "165115.225000", "165116.715000", "165118.205000", "165119.695000", "165121.185000", "165122.675000", "165124.165000", "165125.655000", "165127.145000", "165128.635000", "165130.125000", "165131.615000", "165133.105000", "165134.595000", "165136.085000", "165137.575000", "165139.065000", "165140.555000", "165142.045000", "165143.535000", "165145.025000", "165146.515000", "165148.005000", "165149.495000", "165150.985000", "165152.475000", "165153.965000", "165155.455000", "165156.945000", "165158.435000", "165159.925000", "165201.415000", "165202.905000", "165204.395000", "165205.885000", "165207.375000", "165208.865000", "165210.355000", "165211.845000", "165213.335000", "165214.825000", "165216.315000", "165217.805000", "165219.295000", "165220.785000", "165222.275000", "165223.765000", "165225.255000", "165226.745000", "165228.235000", "165229.725000", "165231.215000", "165232.705000", "165234.195000", "165235.685000", "165237.175000", "165238.665000", "165240.155000", "165241.645000", "165243.135000", "165244.625000", "165246.115000", "165247.605000", "165249.095000", "165250.585000", "165252.075000", "165253.565000", "165255.055000", "165256.545000", "165258.035000", "165259.525000", "165301.015000", "165302.505000", "165303.995000", "165305.485000", "165306.975000", "165308.465000", "165309.955000", "165311.445000", "165312.935000", "165314.425000", "165315.915000", "165317.405000", "165318.895000", "165320.385000", "165321.875000", "165323.365000", "165324.855000", "165326.345000", "165327.835000", "165329.325000", "165330.815000", "165332.305000", "165333.795000", "165335.285000", "165336.775000", "165338.265000", "165339.755000", "165341.245000", "165342.735000", "165344.225000", "165345.715000", "165347.205000", "165348.695000", "165350.185000", "165351.675000", "165353.165000", "165354.655000", "165356.145000", "165357.635000", "165359.125000", "165400.615000", "165402.105000", "165403.595000", "165405.085000", "165406.575000", "165408.065000", "165409.555000", "165411.045000", "165412.535000", "165414.025000", "165415.515000", "165417.005000", "165418.495000", "165419.985000", "165421.475000", "165422.965000", "165424.455000", "165425.945000", "165427.435000", "165428.925000", "165430.415000", "165431.905000", "165433.395000", "165434.885000", "165436.375000", "165437.865000", "165439.355000", "165440.845000", "165442.335000", "165443.825000", "165445.315000", "165446.805000", "165448.295000", "165449.785000"],
      "ContentTime": ["164427.779000", "164427.782000", "164427.794000", "164427.797000", "164427.800000", "164427.803000", "164427.806000", "164427.809000", "164427.812000", "164427.815000", "164427.818000", "164427.821000", "164427.824000", "164427.827000", "164427.830000", "164427.838000", "164427.841000", "164427.844000", "164427.847000", "164427.850000", "164427.853000", "164447.747000", "164447.750000", "164447.753000", "164447.756000", "164447.759000", "164447.762000", "164447.765000", "164447.768000", "164447.771000", "164447.774000", "164447.777000", "164447.780000", "164447.783000", "164447.786000", "164447.789000", "164447.792000", "164447.795000", "164447.798000", "164447.801000", "164447.804000", "164507.747000", "164507.750000", "164507.753000", "164507.756000", "164507.763000", "164507.766000", "164507.769000", "164507.772000", "164507.775000", "164507.778000", "164507.780000", "164507.784000", "164507.787000", "164507.789000", "164507.793000", "164507.795000", "164507.798000", "164507.801000", "164507.804000", "164507.818000", "164527.747000", "164527.750000", "164527.753000", "164527.756000", "164527.759000", "164527.762000", "164527.765000", "164527.768000", "164527.771000", "164527.774000", "164527.777000", "164527.780000", "164527.782000", "164527.785000", "164527.788000", "164527.791000", "164527.794000", "164527.797000", "164527.800000", "164527.803000", "164547.747000", "164547.750000", "164547.753000", "164547.756000", "164547.759000", "164547.762000", "164547.765000", "164547.768000", "164547.771000", "164547.774000", "164547.777000", "164547.780000", "164547.783000", "164547.786000", "164547.789000", "164547.792000", "164547.795000", "164547.798000", "164547.801000", "164547.804000", "164627.748000", "164627.751000", "164627.754000", "164627.757000", "164627.760000", "164627.763000", "164627.766000", "164627.769000", "164627.772000", "164627.775000", "164627.778000", "164627.781000", "164627.790000", "164627.793000", "164627.796000", "164627.798000", "164627.801000", "164627.804000", "164627.819000", "164627.822000", "164627.825000", "164627.828000", "164627.831000", "164627.834000", "164627.837000", "164627.840000", "164627.843000", "164627.846000", "164707.747000", "164707.750000", "164707.753000", "164707.756000", "164707.759000", "164707.762000", "164707.765000", "164707.768000", "164707.771000", "164707.774000", "164707.777000", "164707.780000", "164707.783000", "164707.786000", "164707.789000", "164707.792000", "164707.795000", "164707.798000", "164707.801000", "164707.804000", "164707.807000", "164707.810000", "164707.813000", "164707.816000", "164707.819000", "164707.822000", "164707.825000", "164747.747000", "164747.750000", "164747.753000", "164747.756000", "164747.759000", "164747.762000", "164747.765000", "164747.768000", "164747.771000", "164747.774000", "164747.777000", "164747.781000", "164747.784000", "164747.787000", "164747.790000", "164747.793000", "164747.796000", "164747.799000", "164747.802000", "164747.804000", "164747.807000", "164747.810000", "164747.813000", "164747.834000", "164747.837000", "164747.840000", "164747.843000", "164827.748000", "164827.751000", "164827.754000", "164827.757000", "164827.760000", "164827.763000", "164827.766000", "164827.769000", "164827.772000", "164827.775000", "164827.778000", "164827.781000", "164827.784000", "164827.787000", "164827.790000", "164827.793000", "164827.796000", "164827.799000", "164827.802000", "164827.805000", "164827.808000", "164827.811000", "164827.814000", "164827.817000", "164827.820000", "164827.823000", "164827.826000", "164907.747000", "164907.750000", "164907.753000", "164907.756000", "164907.759000", "164907.762000", "164907.765000", "164907.768000", "164907.771000", "164907.774000", "164907.777000", "164907.780000", "164907.783000", "164907.786000", "164907.789000", "164907.792000", "164907.795000", "164907.798000", "164907.801000", "164907.804000", "164907.807000", "164907.810000", "164907.813000", "164907.816000", "164907.819000", "164907.822000", "164907.825000", "164927.747000", "164927.750000", "164927.753000", "164927.756000", "164927.759000", "164927.762000", "164927.765000", "164927.768000", "164927.771000", "164927.774000", "164927.777000", "164927.780000", "164927.783000", "165007.747000", "165007.750000", "165007.753000", "165007.756000", "165007.759000", "165007.762000", "165007.765000", "165007.768000", "165007.771000", "165007.774000", "165007.777000", "165007.780000", "165007.783000", "165007.786000", "165007.789000", "165007.792000", "165007.795000", "165007.798000", "165007.801000", "165007.804000", "165007.807000", "165007.810000", "165007.813000", "165007.816000", "165007.819000", "165007.822000", "165007.825000", "165047.748000", "165047.751000", "165047.754000", "165047.757000", "165047.760000", "165047.763000", "165047.766000", "165047.769000", "165047.772000", "165047.775000", "165047.778000", "165047.781000", "165047.784000", "165047.787000", "165047.790000", "165047.793000", "165047.796000", "165047.799000", "165047.802000", "165047.805000", "165047.808000", "165047.811000", "165047.814000", "165047.817000", "165047.820000", "165047.823000", "165047.826000", "165127.747000", "165127.750000", "165127.753000", "165127.756000", "165127.759000", "165127.762000", "165127.765000", "165127.768000", "165127.771000", "165127.774000", "165127.777000", "165127.780000", "165127.784000", "165127.787000", "165127.790000", "165127.792000", "165127.795000", "165127.810000", "165127.813000", "165127.816000", "165127.819000", "165127.822000", "165127.825000", "165127.828000", "165127.831000", "165127.834000", "165127.837000", "165207.747000", "165207.750000", "165207.753000", "165207.756000", "165207.759000", "165207.762000", "165207.765000", "165207.768000", "165207.772000", "165207.775000", "165207.778000", "165207.781000", "165207.785000", "165207.788000", "165207.791000", "165207.795000", "165207.798000", "165207.801000", "165207.804000", "165207.807000", "165207.810000", "165207.813000", "165207.816000", "165207.819000", "165207.822000", "165207.825000", "165247.747000", "165247.750000", "165247.753000", "165247.756000", "165247.759000", "165247.762000", "165247.765000", "165247.769000", "165247.772000", "165247.775000", "165247.778000", "165247.781000", "165247.784000", "165247.786000", "165247.789000", "165247.792000", "165247.796000", "165247.798000", "165247.802000", "165247.805000", "165247.808000", "165247.811000", "165247.814000", "165247.817000", "165247.820000", "165247.823000", "165247.826000", "165327.748000", "165327.751000", "165327.754000", "165327.757000", "165327.760000", "165327.763000", "165327.766000", "165327.769000", "165327.772000", "165327.775000", "165327.778000", "165327.781000", "165327.784000", "165327.787000", "165327.790000", "165327.793000", "165327.796000", "165327.799000", "165327.802000", "165327.805000", "165327.808000", "165327.811000", "165327.814000", "165327.817000", "165327.820000", "165327.823000", "165327.826000", "165407.747000", "165407.750000", "165407.753000", "165407.756000", "165407.759000", "165407.762000", "165407.765000", "165407.768000", "165407.771000", "165407.774000", "165407.777000", "165407.780000", "165407.783000", "165407.786000", "165407.789000", "165407.792000", "165407.795000", "165407.798000", "165407.801000", "165407.804000", "165407.807000", "165407.810000", "165407.813000", "165407.817000", "165407.819000", "165407.823000", "165407.826000", "165447.747000", "165447.750000", "165447.753000", "165447.757000", "165447.760000", "165447.763000", "165447.766000", "165447.769000", "165447.772000", "165447.775000", "165447.778000", "165447.781000", "165447.784000", "165447.787000", "165447.790000", "165447.793000", "165447.796000", "165447.799000", "165447.802000", "165447.805000", "165447.808000", "165447.811000", "165447.814000", "165447.817000", "165447.820000", "165447.823000", "165447.826000", "165451.750000", "165451.753000", "165451.756000"],
