{
  "AcquisitionMatrixPE": 104,
  "AcquisitionNumber": 1,
  "AcquisitionTime": "17:19:3.825000",
  "BandwidthPerPixelPhaseEncode": 17.17,
  "BaseResolution": 104,
  "BodyPartExamined": "BRAIN",
  "CoilString": "HC1-7;NC1_2",
  "ConsistencyInfo": "N4_VE11C_LATEST_20160120",
  "ConversionSoftware": "dcm2niix",
  "ConversionSoftwareVersion": "v1.0.20190902",
  "DerivedVendorReportedEchoSpacing": 0.000560011,
  "DeviceSerialNumber": "167006",
  "DwellTime": 2.1e-06,
  "EchoTime": 0.037,
  "EchoTrainLength": 104,
  "EffectiveEchoSpacing": 0.000560011,
  "FlipAngle": 52,
  "ImageComments": "Unaliased_MB4_PE3_LB",
  "ImageOrientationPatientDICOM": [0.999717, -0.0227817, 0.0068638, 0.0237343, 0.934538, -0.355072],
  "ImageType": [
    "ORIGINAL",
    "PRIMARY",
    "M",
    "MB",
    "ND",
    "MOSAIC"
],
  "ImagingFrequency": 123.259,
  "InPlanePhaseEncodingDirectionDICOM": "COL",
  "InstitutionAddress": "Chemin_Queen-Mary_4565_Montreal_District_CA_H3W_1W5",
  "InstitutionName": "IUGM",
  "InstitutionalDepartmentName": "Department",
  "MRAcquisitionType": "2D",
  "MagneticFieldStrength": 3,
  "Manufacturer": "Siemens",
  "ManufacturersModelName": "Prisma_fit",
  "Modality": "MR",
  "MultibandAccelerationFactor": 4,
  "PartialFourier": 1,
  "PatientPosition": "HFS",
  "PercentPhaseFOV": 100,
  "PhaseEncodingDirection": "j",
  "PhaseEncodingSteps": 104,
  "PhaseResolution": 1,
  "PixelBandwidth": 2290,
  "ProcedureStepDescription": "video_friends",
  "ProtocolName": "func_task-friends-s03e18a",
  "PulseSequenceDetails": "%CustomerSeq%_cmrr_mbep2d_bold",
  "ReceiveCoilActiveElements": "HC1-7;NC1,2",
  "ReceiveCoilName": "HeadNeck_64",
  "ReconMatrixPE": 104,
  "RepetitionTime": 1.49,
  "SAR": 0.0346326,
  "ScanOptions": "FS",
  "ScanningSequence": "EP",
  "SequenceName": "epfid2d1_104",
  "SequenceVariant": "SK_SS",
  "SeriesDescription": "func_task-friends-s03e18a",
  "SeriesNumber": 17,
  "ShimSetting": [613, -7284, -8832, 394, 1, -469, 73, 16],
  "SliceThickness": 2,
  "SliceTiming": [0, 0.7825, 0.0975, 0.8825, 0.195, 0.98, 0.2925, 1.0775, 0.3925, 1.175, 0.49, 1.2725, 0.5875, 1.3725, 0.685, 0, 0.7825, 0.0975, 0.8825, 0.195, 0.98, 0.2925, 1.0775, 0.3925, 1.175, 0.49, 1.2725, 0.5875, 1.3725, 0.685, 0, 0.7825, 0.0975, 0.8825, 0.195, 0.98, 0.2925, 1.0775, 0.3925, 1.175, 0.49, 1.2725, 0.5875, 1.3725, 0.685, 0, 0.7825, 0.0975, 0.8825, 0.195, 0.98, 0.2925, 1.0775, 0.3925, 1.175, 0.49, 1.2725, 0.5875, 1.3725, 0.685],
  "SoftwareVersions": "syngo_MR_E11",
  "SpacingBetweenSlices": 2,
  "StationName": "MRC35049",
  "TaskName": "s03e18a",
  "TotalReadoutTime": 0.0576811,
  "TxRefAmp": 236.749,
  "WipMemBlock": "421d5fc2-dd88-4658-916b-ce66f7899711||Sequence: R016 ve11c/master r/e634e98; Dec 19 2017 11:00:25 by eja",
  "dcmmeta_affine": [
    [-1.9994337558746338, 0.04746852070093155, -0.003349347272887826, 97.39270782470703],
    [0.04556348919868469, 1.8690755367279053, -0.7102681398391724, -71.65325927734375],
    [0.013727596029639244, 0.7101433277130127, 1.869627833366394, -70.07170104980469],
    [0.0, 0.0, 0.0, 1.0]
],
  "dcmmeta_reorient_transform": [
    [0.0, -1.0, 0.0, 103.0],
    [1.0, 0.0, 0.0, 0.0],
    [0.0, 0.0, 1.0, 0.0],
    [0.0, 0.0, 0.0, 1.0]
],
  "dcmmeta_shape": [104, 104, 60, 469],
  "dcmmeta_slice_dim": 2,
  "dcmmeta_version": 0.6,
  "global": {
    "const": {
      "AcquisitionMatrix": [104, 0, 0, 104],
      "AngioFlag": "N",
      "BitsAllocated": 16,
      "BitsStored": 16,
      "BodyPartExamined": "BRAIN",
      "Columns": 832,
      "EchoNumbers": 1,
      "EchoTime": 37.0,
      "EchoTrainLength": 104,
      "FlipAngle": 52.0,
      "HighBit": 15,
      "ImageOrientationPatient": [0.99971690012287, -0.022781744547, 0.00686379808179, 0.02373425956538, 0.93453774549558, -0.3550716648325],
      "ImagePositionPatient": [-847.3544062806, -784.61988362782, 256.56839261584],
      "ImageType": [
        "ORIGINAL",
        "PRIMARY",
        "M",
        "MB",
        "ND",
        "MOSAIC"
],
      "ImagedNucleus": "1H",
      "ImagingFrequency": 123.258967,
      "InPlanePhaseEncodingDirection": "COL",
      "MRAcquisitionType": "2D",
      "MagneticFieldStrength": 3.0,
      "Manufacturer": "SIEMENS",
      "ManufacturerModelName": "Prisma_fit",
      "Modality": "MR",
      "NumberOfAverages": 1.0,
      "NumberOfPhaseEncodingSteps": 104,
      "PercentPhaseFieldOfView": 100.0,
      "PercentSampling": 100.0,
      "PerformedProcedureStepStartTime": "161405.872000",
      "PhotometricInterpretation": "MONOCHROME2",
      "PixelBandwidth": 2290.0,
      "PixelRepresentation": 0,
      "PixelSpacing": [2.0, 2.0],
      "ProtocolName": "func_task-friends-s03e18a",
      "RepetitionTime": 1490.0,
      "Rows": 832,
      "SAR": 0.03463257358688,
      "SamplesPerPixel": 1,
      "ScanOptions": "FS",
      "ScanningSequence": "EP",
      "SequenceName": "epfid2d1_104",
      "SequenceVariant": [
        "SK",
        "SS"
],
      "SeriesDescription": "func_task-friends-s03e18a",
      "SeriesNumber": 17,
      "SeriesTime": "172007.775000",
      "SliceLocation": -40.22058392487,
      "SliceThickness": 2.0,
      "SmallestImagePixelValue": 0,
      "SoftwareVersions": "syngo MR E11",
      "SpacingBetweenSlices": 2.0000000327142,
      "SpecificCharacterSet": "ISO_IR 100",
      "StudyID": "1",
      "StudyTime": "161405.805000",
      "TransmitCoilName": "Body",
      "VariableFlipAngleFlag": "N",
      "WindowCenterWidthExplanation": "Algo1",
      "dBdt": 0.0},
    "slices": {}
  },
  "time": {
    "samples": {
      "AcquisitionNumber": [1, 2, 3, 4, 5, 6, 7, 8, 9, 10, 11, 12, 13, 14, 15, 16, 17, 18, 19, 20, 21, 22, 23, 24, 25, 26, 27, 28, 29, 30, 31, 32, 33, 34, 35, 36, 37, 38, 39, 40, 41, 42, 43, 44, 45, 46, 47, 48, 49, 50, 51, 52, 53, 54, 55, 56, 57, 58, 59, 60, 61, 62, 63, 64, 65, 66, 67, 68, 69, 70, 71, 72, 73, 74, 75, 76, 77, 78, 79, 80, 81, 82, 83, 84, 85, 86, 87, 88, 89, 90, 91, 92, 93, 94, 95, 96, 97, 98, 99, 100, 101, 102, 103, 104, 105, 106, 107, 108, 109, 110, 111, 112, 113, 114, 115, 116, 117, 118, 119, 120, 121, 122, 123, 124, 125, 126, 127, 128, 129, 130, 131, 132, 133, 134, 135, 136, 137, 138, 139, 140, 141, 142, 143, 144, 145, 146, 147, 148, 149, 150, 151, 152, 153, 154, 155, 156, 157, 158, 159, 160, 161, 162, 163, 164, 165, 166, 167, 168, 169, 170, 171, 172, 173, 174, 175, 176, 177, 178, 179, 180, 181, 182, 183, 184, 185, 186, 187, 188, 189, 190, 191, 192, 193, 194, 195, 196, 197, 198, 199, 200, 201, 202, 203, 204, 205, 206, 207, 208, 209, 210, 211, 212, 213, 214, 215, 216, 217, 218, 219, 220, 221, 222, 223, 224, 225, 226, 227, 228, 229, 230, 231, 232, 233, 234, 235, 236, 237, 238, 239, 240, 241, 242, 243, 244, 245, 246, 247, 248, 249, 250, 251, 252, 253, 254, 255, 256, 257, 258, 259, 260, 261, 262, 263, 264, 265, 266, 267, 268, 269, 270, 271, 272, 273, 274, 275, 276, 277, 278, 279, 280, 281, 282, 283, 284, 285, 286, 287, 288, 289, 290, 291, 292, 293, 294, 295, 296, 297, 298, 299, 300, 301, 302, 303, 304, 305, 306, 307, 308, 309, 310, 311, 312, 313, 314, 315, 316, 317, 318, 319, 320, 321, 322, 323, 324, 325, 326, 327, 328, 329, 330, 331, 332, 333, 334, 335, 336, 337, 338, 339, 340, 341, 342, 343, 344, 345, 346, 347, 348, 349, 350, 351, 352, 353, 354, 355, 356, 357, 358, 359, 360, 361, 362, 363, 364, 365, 366, 367, 368, 369, 370, 371, 372, 373, 374, 375, 376, 377, 378, 379, 380, 381, 382, 383, 384, 385, 386, 387, 388, 389, 390, 391, 392, 393, 394, 395, 396, 397, 398, 399, 400, 401, 402, 403, 404, 405, 406, 407, 408, 409, 410, 411, 412, 413, 414, 415, 416, 417, 418, 419, 420, 421, 422, 423, 424, 425, 426, 427, 428, 429, 430, 431, 432, 433, 434, 435, 436, 437, 438, 439, 440, 441, 442, 443, 444, 445, 446, 447, 448, 449, 450, 451, 452, 453, 454, 455, 456, 457, 458, 459, 460, 461, 462, 463, 464, 465, 466, 467, 468, 469],
      "AcquisitionTime": ["171903.825000", "171905.315000", "171906.805000", "171908.295000", "171909.785000", "171911.275000", "171912.765000", "171914.255000", "171915.745000", "171917.235000", "171918.725000", "171920.215000", "171921.705000", "171923.195000", "171924.685000", "171926.175000", "171927.665000", "171929.155000", "171930.645000", "171932.135000", "171933.625000", "171935.115000", "171936.605000", "171938.095000", "171939.585000", "171941.075000", "171942.565000", "171944.055000", "171945.545000", "171947.035000", "171948.525000", "171950.015000", "171951.505000", "171952.995000", "171954.485000", "171955.975000", "171957.465000", "171958.955000", "172000.445000", "172001.935000", "172003.425000", "172004.915000", "172006.405000", "172007.895000", "172009.385000", "172010.875000", "172012.365000", "172013.855000", "172015.345000", "172016.835000", "172018.325000", "172019.815000", "172021.305000", "172022.795000", "172024.285000", "172025.775000", "172027.265000", "172028.755000", "172030.245000", "172031.735000", "172033.225000", "172034.715000", "172036.205000", "172037.695000", "172039.185000", "172040.675000", "172042.165000", "172043.655000", "172045.145000", "172046.635000", "172048.125000", "172049.615000", "172051.105000", "172052.595000", "172054.085000", "172055.575000", "172057.065000", "172058.555000", "172100.045000", "172101.535000", "172103.025000", "172104.515000", "172106.005000", "172107.495000", "172108.985000", "172110.475000", "172111.965000", "172113.455000", "172114.945000", "172116.435000", "172117.925000", "172119.415000", "172120.905000", "172122.395000", "172123.885000", "172125.375000", "172126.865000", "172128.355000", "172129.845000", "172131.335000", "172132.825000", "172134.315000", "172135.805000", "172137.295000", "172138.785000", "172140.275000", "172141.765000", "172143.255000", "172144.745000", "172146.235000", "172147.725000", "172149.215000", "172150.705000", "172152.195000", "172153.685000", "172155.175000", "172156.665000", "172158.155000", "172159.645000", "172201.135000", "172202.625000", "172204.115000", "172205.605000", "172207.095000", "172208.585000", "172210.075000", "172211.565000", "172213.055000", "172214.545000", "172216.035000", "172217.525000", "172219.015000", "172220.505000", "172221.995000", "172223.485000", "172224.975000", "172226.465000", "172227.955000", "172229.445000", "172230.935000", "172232.425000", "172233.915000", "172235.405000", "172236.895000", "172238.385000", "172239.875000", "172241.365000", "172242.855000", "172244.345000", "172245.835000", "172247.325000", "172248.815000", "172250.305000", "172251.795000", "172253.285000", "172254.775000", "172256.265000", "172257.755000", "172259.245000", "172300.735000", "172302.225000", "172303.715000", "172305.205000", "172306.695000", "172308.185000", "172309.675000", "172311.165000", "172312.655000", "172314.145000", "172315.635000", "172317.125000", "172318.615000", "172320.105000", "172321.595000", "172323.085000", "172324.575000", "172326.065000", "172327.555000", "172329.045000", "172330.535000", "172332.025000", "172333.515000", "172335.005000", "172336.495000", "172337.985000", "172339.475000", "172340.965000", "172342.455000", "172343.945000", "172345.435000", "172346.925000", "172348.415000", "172349.905000", "172351.395000", "172352.885000", "172354.375000", "172355.865000", "172357.355000", "172358.845000", "172400.335000", "172401.825000", "172403.315000", "172404.805000", "172406.295000", "172407.785000", "172409.275000", "172410.765000", "172412.255000", "172413.745000", "172415.235000", "172416.725000", "172418.215000", "172419.705000", "172421.195000", "172422.685000", "172424.175000", "172425.665000", "172427.155000", "172428.645000", "172430.135000", "172431.625000", "172433.115000", "172434.605000", "172436.095000", "172437.585000", "172439.075000", "172440.565000", "172442.055000", "172443.545000", "172445.035000", "172446.525000", "172448.015000", "172449.505000", "172450.995000", "172452.485000", "172453.975000", "172455.465000", "172456.955000", "172458.445000", "172459.935000", "172501.425000", "172502.915000", "172504.405000", "172505.895000", "172507.385000", "172508.875000", "172510.365000", "172511.855000", "172513.345000", "172514.835000", "172516.325000", "172517.815000", "172519.305000", "172520.795000", "172522.285000", "172523.775000", "172525.265000", "172526.755000", "172528.245000", "172529.735000", "172531.225000", "172532.715000", "172534.205000", "172535.695000", "172537.185000", "172538.675000", "172540.165000", "172541.655000", "172543.145000", "172544.635000", "172546.125000", "172547.615000", "172549.105000", "172550.595000", "172552.085000", "172553.575000", "172555.065000", "172556.555000", "172558.045000", "172559.535000", "172601.025000", "172602.515000", "172604.005000", "172605.495000", "172606.985000", "172608.475000", "172609.965000", "172611.455000", "172612.945000", "172614.435000", "172615.925000", "172617.415000", "172618.905000", "172620.395000", "172621.885000", "172623.375000", "172624.865000", "172626.355000", "172627.845000", "172629.335000", "172630.825000", "172632.315000", "172633.805000", "172635.295000", "172636.785000", "172638.275000", "172639.765000", "172641.255000", "172642.745000", "172644.235000", "172645.725000", "172647.215000", "172648.705000", "172650.195000", "172651.685000", "172653.175000", "172654.665000", "172656.155000", "172657.645000", "172659.135000", "172700.625000", "172702.115000", "172703.605000", "172705.095000", "172706.585000", "172708.075000", "172709.565000", "172711.055000", "172712.545000", "172714.035000", "172715.525000", "172717.015000", "172718.505000", "172719.995000", "172721.485000", "172722.975000", "172724.465000", "172725.955000", "172727.445000", "172728.935000", "172730.425000", "172731.915000", "172733.405000", "172734.895000", "172736.385000", "172737.875000", "172739.365000", "172740.855000", "172742.345000", "172743.835000", "172745.325000", "172746.815000", "172748.305000", "172749.795000", "172751.285000", "172752.775000", "172754.265000", "172755.755000", "172757.245000", "172758.735000", "172800.225000", "172801.715000", "172803.205000", "172804.695000", "172806.185000", "172807.675000", "172809.165000", "172810.655000", "172812.145000", "172813.635000", "172815.125000", "172816.615000", "172818.105000", "172819.595000", "172821.085000", "172822.575000", "172824.065000", "172825.555000", "172827.045000", "172828.535000", "172830.025000", "172831.515000", "172833.005000", "172834.495000", "172835.985000", "172837.475000", "172838.965000", "172840.455000", "172841.945000", "172843.435000", "172844.925000", "172846.415000", "172847.905000", "172849.395000", "172850.885000", "172852.375000", "172853.865000", "172855.355000", "172856.845000", "172858.335000", "172859.825000", "172901.315000", "172902.805000", "172904.295000", "172905.785000", "172907.275000", "172908.765000", "172910.255000", "172911.745000", "172913.235000", "172914.725000", "172916.215000", "172917.705000", "172919.195000", "172920.685000", "172922.175000", "172923.665000", "172925.155000", "172926.645000", "172928.135000", "172929.625000", "172931.115000", "172932.605000", "172934.095000", "172935.585000", "172937.075000", "172938.565000", "172940.055000", "172941.545000", "172943.035000", "172944.525000", "172946.015000", "172947.505000", "172948.995000", "172950.485000", "172951.975000", "172953.465000", "172954.955000", "172956.445000", "172957.935000", "172959.425000", "173000.915000", "173002.405000", "173003.895000", "173005.385000", "173006.875000", "173008.365000", "173009.855000", "173011.345000", "173012.835000", "173014.325000", "173015.815000", "173017.305000", "173018.795000", "173020.285000", "173021.775000", "173023.265000", "173024.755000", "173026.245000", "173027.735000", "173029.225000", "173030.715000", "173032.205000", "173033.695000", "173035.185000", "173036.675000", "173038.165000", "173039.655000", "173041.145000"],
      "ContentTime": ["172007.778000", "172007.782000", "172007.785000", "172007.788000", "172007.791000", "172007.794000", "172007.797000", "172007.800000", "172007.803000", "172027.747000", "172027.750000", "172027.753000", "172027.764000", "172027.767000", "172027.770000", "172027.773000", "172027.782000", "172027.785000", "172027.788000", "172027.791000", "172027.794000", "172027.797000", "172027.801000", "172027.804000", "172027.807000", "172027.811000", "172027.814000", "172027.817000", "172027.820000", "172047.748000", "172047.751000", "172047.754000", "172047.757000", "172047.760000", "172047.763000", "172047.766000", "172047.769000", "172047.772000", "172047.775000", "172047.778000", "172047.781000", "172047.784000", "172047.787000", "172047.790000", "172047.793000", "172047.796000", "172047.799000", "172047.802000", "172047.805000", "172047.808000", "172107.748000", "172107.751000", "172107.754000", "172107.757000", "172107.760000", "172107.763000", "172107.766000", "172107.769000", "172107.772000", "172107.775000", "172107.778000", "172107.781000", "172107.784000", "172107.787000", "172107.790000", "172107.793000", "172107.796000", "172107.799000", "172107.802000", "172107.805000", "172127.747000", "172127.750000", "172127.753000", "172127.756000", "172127.759000", "172127.762000", "172127.765000", "172127.768000", "172127.771000", "172127.774000", "172127.783000", "172127.786000", "172127.789000", "172127.792000", "172127.795000", "172127.798000", "172127.801000", "172127.804000", "172127.806000", "172127.809000", "172207.747000", "172207.750000", "172207.753000", "172207.756000", "172207.759000", "172207.762000", "172207.765000", "172207.768000", "172207.771000", "172207.774000", "172207.777000", "172207.780000", "172207.783000", "172207.788000", "172207.791000", "172207.794000", "172207.797000", "172207.800000", "172207.803000", "172207.806000", "172207.809000", "172207.812000", "172207.815000", "172207.818000", "172207.821000", "172207.824000", "172207.827000", "172207.830000", "172207.833000", "172207.836000", "172207.839000", "172207.842000", "172207.845000", "172247.747000", "172247.750000", "172247.753000", "172247.756000", "172247.759000", "172247.762000", "172247.765000", "172247.768000", "172247.771000", "172247.774000", "172247.778000", "172247.782000", "172247.786000", "172247.789000", "172247.792000", "172247.796000", "172247.799000", "172247.801000", "172247.804000", "172247.807000", "172247.810000", "172247.814000", "172247.816000", "172247.820000", "172247.823000", "172247.826000", "172327.748000", "172327.751000", "172327.754000", "172327.757000", "172327.760000", "172327.763000", "172327.766000", "172327.769000", "172327.772000", "172327.775000", "172327.778000", "172327.781000", "172327.784000", "172327.787000", "172327.790000", "172327.793000", "172327.796000", "172327.799000", "172327.802000", "172327.805000", "172327.808000", "172327.811000", "172327.814000", "172327.817000", "172327.820000", "172327.823000", "172327.826000", "172407.747000", "172407.750000", "172407.753000", "172407.756000", "172407.759000", "172407.762000", "172407.765000", "172407.768000", "172407.771000", "172407.774000", "172407.777000", "172407.780000", "172407.783000", "172407.786000", "172407.789000", "172407.792000", "172407.795000", "172407.798000", "172407.801000", "172407.804000", "172407.807000", "172407.810000", "172407.813000", "172407.816000", "172407.819000", "172407.822000", "172407.825000", "172447.747000", "172447.750000", "172447.753000", "172447.756000", "172447.759000", "172447.762000", "172447.777000", "172447.780000", "172447.783000", "172447.786000", "172447.800000", "172447.803000", "172447.806000", "172447.809000", "172447.812000", "172447.815000", "172447.818000", "172447.821000", "172447.824000", "172447.827000", "172447.830000", "172447.833000", "172447.836000", "172447.839000", "172447.842000", "172447.845000", "172447.848000", "172527.748000", "172527.751000", "172527.754000", "172527.757000", "172527.760000", "172527.763000", "172527.766000", "172527.769000", "172527.772000", "172527.775000", "172527.778000", "172527.781000", "172527.784000", "172527.788000", "172527.791000", "172527.804000", "172527.807000", "172527.809000", "172527.812000", "172527.815000", "172527.818000", "172527.821000", "172527.824000", "172527.827000", "172527.830000", "172527.833000", "172527.836000", "172607.747000", "172607.750000", "172607.753000", "172607.756000", "172607.759000", "172607.762000", "172607.765000", "172607.768000", "172607.771000", "172607.774000", "172607.777000", "172607.780000", "172607.783000", "172607.786000", "172607.789000", "172607.792000", "172607.795000", "172607.798000", "172607.801000", "172607.804000", "172607.807000", "172607.810000", "172607.813000", "172607.816000", "172607.819000", "172607.822000", "172607.825000", "172647.747000", "172647.750000", "172647.753000", "172647.756000", "172647.759000", "172647.762000", "172647.765000", "172647.768000", "172647.771000", "172647.774000", "172647.777000", "172647.780000", "172647.783000", "172647.786000", "172647.789000", "172647.792000", "172647.795000", "172647.798000", "172647.801000", "172647.804000", "172647.807000", "172647.810000", "172647.813000", "172647.816000", "172647.819000", "172647.822000", "172647.825000", "172727.747000", "172727.750000", "172727.753000", "172727.756000", "172727.759000", "172727.762000", "172727.766000", "172727.769000", "172727.772000", "172727.775000", "172727.779000", "172727.782000", "172727.785000", "172727.788000", "172727.791000", "172727.794000", "172727.797000", "172727.800000", "172727.803000", "172727.806000", "172727.809000", "172727.812000", "172727.815000", "172727.818000", "172727.822000", "172727.825000", "172807.748000", "172807.751000", "172807.754000", "172807.757000", "172807.760000", "172807.763000", "172807.766000", "172807.769000", "172807.772000", "172807.775000", "172807.778000", "172807.781000", "172807.784000", "172807.787000", "172807.790000", "172807.793000", "172807.796000", "172807.799000", "172807.802000", "172807.805000", "172807.814000", "172807.817000", "172807.820000", "172807.823000", "172807.826000", "172807.829000", "172807.832000", "172847.747000", "172847.750000", "172847.753000", "172847.756000", "172847.759000", "172847.762000", "172847.765000", "172847.768000", "172847.771000", "172847.774000", "172847.777000", "172847.780000", "172847.783000", "172847.786000", "172847.789000", "172847.792000", "172847.796000", "172847.799000", "172847.801000", "172847.804000", "172847.807000", "172847.810000", "172847.814000", "172847.816000", "172847.820000", "172847.823000", "172847.826000", "172927.747000", "172927.750000", "172927.765000", "172927.777000", "172927.780000", "172927.783000", "172927.786000", "172927.789000", "172927.792000", "172927.795000", "172927.799000", "172927.812000", "172927.815000", "172927.818000", "172927.821000", "172927.824000", "172927.827000", "172927.830000", "172927.833000", "172927.836000", "172927.839000", "172927.842000", "172927.845000", "172927.848000", "172927.851000", "172927.854000", "172927.857000", "173007.748000", "173007.751000", "173007.754000", "173007.757000", "173007.760000", "173007.763000", "173007.766000", "173007.769000", "173007.772000", "173007.775000", "173007.778000", "173007.781000", "173007.784000", "173007.787000", "173007.790000", "173007.793000", "173007.796000", "173007.799000", "173007.802000", "173007.805000", "173007.808000", "173007.811000", "173007.814000", "173007.817000", "173007.820000", "173007.823000", "173007.826000", "173043.145000", "173043.148000", "173043.151000", "173043.154000", "173043.157000", "173043.161000", "173043.169000", "173043.173000", "173043.176000", "173043.179000", "173043.182000", "173043.185000", "173043.188000", "173043.191000", "173043.194000", "173043.198000", "173043.201000", "173043.204000", "173043.207000", "173043.210000", "173043.213000", "173043.216000", "173043.219000", "173043.222000"],
