{
  "AcquisitionMatrixPE": 104,
  "AcquisitionNumber": 1,
  "AcquisitionTime": "16:55:39.240000",
  "BandwidthPerPixelPhaseEncode": 17.17,
  "BaseResolution": 104,
  "BodyPartExamined": "BRAIN",
  "CoilString": "HC1-7;NC1_2",
  "ConsistencyInfo": "N4_VE11C_LATEST_20160120",
  "ConversionSoftware": "dcm2niix",
  "ConversionSoftwareVersion": "v1.0.20190902",
  "DerivedVendorReportedEchoSpacing": 0.000560011,
  "DeviceSerialNumber": "167006",
  "DwellTime": 2.1e-06,
  "EchoTime": 0.037,
  "EchoTrainLength": 104,
  "EffectiveEchoSpacing": 0.000560011,
  "FlipAngle": 52,
  "ImageComments": "Unaliased_MB4_PE3_LB",
  "ImageOrientationPatientDICOM": [0.999717, -0.0227817, 0.0068638, 0.0237343, 0.934538, -0.355072],
  "ImageType": [
    "ORIGINAL",
    "PRIMARY",
    "M",
    "MB",
    "ND",
    "MOSAIC"
],
  "ImagingFrequency": 123.259,
  "InPlanePhaseEncodingDirectionDICOM": "COL",
  "InstitutionAddress": "Chemin_Queen-Mary_4565_Montreal_District_CA_H3W_1W5",
  "InstitutionName": "IUGM",
  "InstitutionalDepartmentName": "Department",
  "MRAcquisitionType": "2D",
  "MagneticFieldStrength": 3,
  "Manufacturer": "Siemens",
  "ManufacturersModelName": "Prisma_fit",
  "Modality": "MR",
  "MultibandAccelerationFactor": 4,
  "PartialFourier": 1,
  "PatientPosition": "HFS",
  "PercentPhaseFOV": 100,
  "PhaseEncodingDirection": "j",
  "PhaseEncodingSteps": 104,
  "PhaseResolution": 1,
  "PixelBandwidth": 2290,
  "ProcedureStepDescription": "video_friends",
  "ProtocolName": "func_task-friends-s03e17a",
  "PulseSequenceDetails": "%CustomerSeq%_cmrr_mbep2d_bold",
  "ReceiveCoilActiveElements": "HC1-7;NC1,2",
  "ReceiveCoilName": "HeadNeck_64",
  "ReconMatrixPE": 104,
  "RepetitionTime": 1.49,
  "SAR": 0.0346278,
  "ScanOptions": "FS",
  "ScanningSequence": "EP",
  "SequenceName": "epfid2d1_104",
  "SequenceVariant": "SK_SS",
  "SeriesDescription": "func_task-friends-s03e17a",
  "SeriesNumber": 13,
  "ShimSetting": [613, -7284, -8832, 394, 1, -469, 73, 16],
  "SliceThickness": 2,
  "SliceTiming": [0, 0.7825, 0.0975, 0.8825, 0.195, 0.98, 0.2925, 1.0775, 0.3925, 1.175, 0.49, 1.2725, 0.5875, 1.3725, 0.685, 0, 0.7825, 0.0975, 0.8825, 0.195, 0.98, 0.2925, 1.0775, 0.3925, 1.175, 0.49, 1.2725, 0.5875, 1.3725, 0.685, 0, 0.7825, 0.0975, 0.8825, 0.195, 0.98, 0.2925, 1.0775, 0.3925, 1.175, 0.49, 1.2725, 0.5875, 1.3725, 0.685, 0, 0.7825, 0.0975, 0.8825, 0.195, 0.98, 0.2925, 1.0775, 0.3925, 1.175, 0.49, 1.2725, 0.5875, 1.3725, 0.685],
  "SoftwareVersions": "syngo_MR_E11",
  "SpacingBetweenSlices": 2,
  "StationName": "MRC35049",
  "TaskName": "s03e17a",
  "TotalReadoutTime": 0.0576811,
  "TxRefAmp": 236.749,
  "WipMemBlock": "c15fb00b-191f-4a72-94fb-c57ee301ca3d||Sequence: R016 ve11c/master r/e634e98; Dec 19 2017 11:00:25 by eja",
  "dcmmeta_affine": [
    [-1.9994337558746338, 0.04746852070093155, -0.003349347272887826, 97.39270782470703],
    [0.04556348919868469, 1.8690755367279053, -0.7102681398391724, -71.65325927734375],
    [0.013727596029639244, 0.7101433277130127, 1.869627833366394, -70.07170104980469],
    [0.0, 0.0, 0.0, 1.0]
],
  "dcmmeta_reorient_transform": [
    [0.0, -1.0, 0.0, 103.0],
    [1.0, 0.0, 0.0, 0.0],
    [0.0, 0.0, 1.0, 0.0],
    [0.0, 0.0, 0.0, 1.0]
],
  "dcmmeta_shape": [104, 104, 60, 454],
  "dcmmeta_slice_dim": 2,
  "dcmmeta_version": 0.6,
  "global": {
    "const": {
      "AcquisitionMatrix": [104, 0, 0, 104],
      "AngioFlag": "N",
      "BitsAllocated": 16,
      "BitsStored": 16,
      "BodyPartExamined": "BRAIN",
      "Columns": 832,
      "EchoNumbers": 1,
      "EchoTime": 37.0,
      "EchoTrainLength": 104,
      "FlipAngle": 52.0,
      "HighBit": 15,
      "ImageOrientationPatient": [0.99971690012287, -0.022781744547, 0.00686379808179, 0.02373425956538, 0.93453774549558, -0.3550716648325],
      "ImagePositionPatient": [-847.3544062806, -784.61988362782, 256.56839261584],
      "ImageType": [
        "ORIGINAL",
        "PRIMARY",
        "M",
        "MB",
        "ND",
        "MOSAIC"
],
      "ImagedNucleus": "1H",
      "ImagingFrequency": 123.258962,
      "InPlanePhaseEncodingDirection": "COL",
      "MRAcquisitionType": "2D",
      "MagneticFieldStrength": 3.0,
      "Manufacturer": "SIEMENS",
      "ManufacturerModelName": "Prisma_fit",
      "Modality": "MR",
      "NumberOfAverages": 1.0,
      "NumberOfPhaseEncodingSteps": 104,
      "PercentPhaseFieldOfView": 100.0,
      "PercentSampling": 100.0,
      "PerformedProcedureStepStartTime": "161405.872000",
      "PhotometricInterpretation": "MONOCHROME2",
      "PixelBandwidth": 2290.0,
      "PixelRepresentation": 0,
      "PixelSpacing": [2.0, 2.0],
      "ProtocolName": "func_task-friends-s03e17a",
      "RepetitionTime": 1490.0,
      "Rows": 832,
      "SAR": 0.03462775862439,
      "SamplesPerPixel": 1,
      "ScanOptions": "FS",
      "ScanningSequence": "EP",
      "SequenceName": "epfid2d1_104",
      "SequenceVariant": [
        "SK",
        "SS"
],
      "SeriesDescription": "func_task-friends-s03e17a",
      "SeriesNumber": 13,
      "SeriesTime": "165654.317000",
      "SliceLocation": -40.22058392487,
      "SliceThickness": 2.0,
      "SmallestImagePixelValue": 0,
      "SoftwareVersions": "syngo MR E11",
      "SpacingBetweenSlices": 2.0000000327142,
      "SpecificCharacterSet": "ISO_IR 100",
      "StudyID": "1",
      "StudyTime": "161405.805000",
      "TransmitCoilName": "Body",
      "VariableFlipAngleFlag": "N",
      "WindowCenterWidthExplanation": "Algo1",
      "dBdt": 0.0},
    "slices": {}
  },
  "time": {
    "samples": {
      "AcquisitionNumber": [1, 2, 3, 4, 5, 6, 7, 8, 9, 10, 11, 12, 13, 14, 15, 16, 17, 18, 19, 20, 21, 22, 23, 24, 25, 26, 27, 28, 29, 30, 31, 32, 33, 34, 35, 36, 37, 38, 39, 40, 41, 42, 43, 44, 45, 46, 47, 48, 49, 50, 51, 52, 53, 54, 55, 56, 57, 58, 59, 60, 61, 62, 63, 64, 65, 66, 67, 68, 69, 70, 71, 72, 73, 74, 75, 76, 77, 78, 79, 80, 81, 82, 83, 84, 85, 86, 87, 88, 89, 90, 91, 92, 93, 94, 95, 96, 97, 98, 99, 100, 101, 102, 103, 104, 105, 106, 107, 108, 109, 110, 111, 112, 113, 114, 115, 116, 117, 118, 119, 120, 121, 122, 123, 124, 125, 126, 127, 128, 129, 130, 131, 132, 133, 134, 135, 136, 137, 138, 139, 140, 141, 142, 143, 144, 145, 146, 147, 148, 149, 150, 151, 152, 153, 154, 155, 156, 157, 158, 159, 160, 161, 162, 163, 164, 165, 166, 167, 168, 169, 170, 171, 172, 173, 174, 175, 176, 177, 178, 179, 180, 181, 182, 183, 184, 185, 186, 187, 188, 189, 190, 191, 192, 193, 194, 195, 196, 197, 198, 199, 200, 201, 202, 203, 204, 205, 206, 207, 208, 209, 210, 211, 212, 213, 214, 215, 216, 217, 218, 219, 220, 221, 222, 223, 224, 225, 226, 227, 228, 229, 230, 231, 232, 233, 234, 235, 236, 237, 238, 239, 240, 241, 242, 243, 244, 245, 246, 247, 248, 249, 250, 251, 252, 253, 254, 255, 256, 257, 258, 259, 260, 261, 262, 263, 264, 265, 266, 267, 268, 269, 270, 271, 272, 273, 274, 275, 276, 277, 278, 279, 280, 281, 282, 283, 284, 285, 286, 287, 288, 289, 290, 291, 292, 293, 294, 295, 296, 297, 298, 299, 300, 301, 302, 303, 304, 305, 306, 307, 308, 309, 310, 311, 312, 313, 314, 315, 316, 317, 318, 319, 320, 321, 322, 323, 324, 325, 326, 327, 328, 329, 330, 331, 332, 333, 334, 335, 336, 337, 338, 339, 340, 341, 342, 343, 344, 345, 346, 347, 348, 349, 350, 351, 352, 353, 354, 355, 356, 357, 358, 359, 360, 361, 362, 363, 364, 365, 366, 367, 368, 369, 370, 371, 372, 373, 374, 375, 376, 377, 378, 379, 380, 381, 382, 383, 384, 385, 386, 387, 388, 389, 390, 391, 392, 393, 394, 395, 396, 397, 398, 399, 400, 401, 402, 403, 404, 405, 406, 407, 408, 409, 410, 411, 412, 413, 414, 415, 416, 417, 418, 419, 420, 421, 422, 423, 424, 425, 426, 427, 428, 429, 430, 431, 432, 433, 434, 435, 436, 437, 438, 439, 440, 441, 442, 443, 444, 445, 446, 447, 448, 449, 450, 451, 452, 453, 454],
      "AcquisitionTime": ["165539.240000", "165540.730000", "165542.220000", "165543.710000", "165545.200000", "165546.690000", "165548.180000", "165549.670000", "165551.160000", "165552.650000", "165554.140000", "165555.630000", "165557.120000", "165558.610000", "165600.100000", "165601.590000", "165603.080000", "165604.570000", "165606.060000", "165607.550000", "165609.040000", "165610.530000", "165612.020000", "165613.510000", "165615.000000", "165616.490000", "165617.980000", "165619.470000", "165620.960000", "165622.450000", "165623.940000", "165625.430000", "165626.920000", "165628.410000", "165629.900000", "165631.390000", "165632.880000", "165634.370000", "165635.860000", "165637.350000", "165638.840000", "165640.330000", "165641.820000", "165643.310000", "165644.800000", "165646.290000", "165647.780000", "165649.270000", "165650.760000", "165652.250000", "165653.740000", "165655.230000", "165656.720000", "165658.210000", "165659.700000", "165701.190000", "165702.680000", "165704.170000", "165705.660000", "165707.150000", "165708.640000", "165710.130000", "165711.620000", "165713.110000", "165714.600000", "165716.090000", "165717.580000", "165719.070000", "165720.560000", "165722.050000", "165723.540000", "165725.030000", "165726.520000", "165728.010000", "165729.500000", "165730.990000", "165732.480000", "165733.970000", "165735.460000", "165736.950000", "165738.440000", "165739.930000", "165741.420000", "165742.910000", "165744.400000", "165745.890000", "165747.380000", "165748.870000", "165750.360000", "165751.850000", "165753.340000", "165754.830000", "165756.320000", "165757.810000", "165759.300000", "165800.790000", "165802.280000", "165803.770000", "165805.260000", "165806.750000", "165808.240000", "165809.730000", "165811.220000", "165812.710000", "165814.200000", "165815.690000", "165817.180000", "165818.670000", "165820.160000", "165821.650000", "165823.140000", "165824.630000", "165826.120000", "165827.610000", "165829.100000", "165830.590000", "165832.080000", "165833.570000", "165835.060000", "165836.550000", "165838.040000", "165839.530000", "165841.020000", "165842.510000", "165844.000000", "165845.490000", "165846.980000", "165848.470000", "165849.960000", "165851.450000", "165852.940000", "165854.430000", "165855.920000", "165857.410000", "165858.900000", "165900.390000", "165901.880000", "165903.370000", "165904.860000", "165906.350000", "165907.840000", "165909.330000", "165910.820000", "165912.310000", "165913.800000", "165915.290000", "165916.780000", "165918.270000", "165919.760000", "165921.250000", "165922.740000", "165924.230000", "165925.720000", "165927.210000", "165928.700000", "165930.190000", "165931.680000", "165933.170000", "165934.660000", "165936.150000", "165937.640000", "165939.130000", "165940.620000", "165942.110000", "165943.600000", "165945.090000", "165946.580000", "165948.070000", "165949.560000", "165951.050000", "165952.540000", "165954.030000", "165955.520000", "165957.010000", "165958.500000", "165959.990000", "170001.480000", "170002.970000", "170004.460000", "170005.950000", "170007.440000", "170008.930000", "170010.420000", "170011.910000", "170013.400000", "170014.890000", "170016.380000", "170017.870000", "170019.360000", "170020.850000", "170022.340000", "170023.830000", "170025.320000", "170026.810000", "170028.300000", "170029.790000", "170031.280000", "170032.770000", "170034.260000", "170035.750000", "170037.240000", "170038.730000", "170040.220000", "170041.710000", "170043.200000", "170044.690000", "170046.180000", "170047.670000", "170049.160000", "170050.650000", "170052.140000", "170053.630000", "170055.120000", "170056.610000", "170058.100000", "170059.590000", "170101.080000", "170102.570000", "170104.060000", "170105.550000", "170107.040000", "170108.530000", "170110.020000", "170111.510000", "170113.000000", "170114.490000", "170115.980000", "170117.470000", "170118.960000", "170120.450000", "170121.940000", "170123.430000", "170124.920000", "170126.410000", "170127.900000", "170129.390000", "170130.880000", "170132.370000", "170133.860000", "170135.350000", "170136.840000", "170138.330000", "170139.820000", "170141.310000", "170142.800000", "170144.290000", "170145.780000", "170147.270000", "170148.760000", "170150.250000", "170151.740000", "170153.230000", "170154.720000", "170156.210000", "170157.700000", "170159.190000", "170200.680000", "170202.170000", "170203.660000", "170205.150000", "170206.640000", "170208.130000", "170209.620000", "170211.110000", "170212.600000", "170214.090000", "170215.580000", "170217.070000", "170218.560000", "170220.050000", "170221.540000", "170223.030000", "170224.520000", "170226.010000", "170227.500000", "170228.990000", "170230.480000", "170231.970000", "170233.460000", "170234.950000", "170236.440000", "170237.930000", "170239.420000", "170240.910000", "170242.400000", "170243.890000", "170245.380000", "170246.870000", "170248.360000", "170249.850000", "170251.340000", "170252.830000", "170254.320000", "170255.810000", "170257.300000", "170258.790000", "170300.280000", "170301.770000", "170303.260000", "170304.750000", "170306.240000", "170307.730000", "170309.220000", "170310.710000", "170312.200000", "170313.690000", "170315.180000", "170316.670000", "170318.160000", "170319.650000", "170321.140000", "170322.630000", "170324.120000", "170325.610000", "170327.100000", "170328.590000", "170330.080000", "170331.570000", "170333.060000", "170334.550000", "170336.040000", "170337.530000", "170339.020000", "170340.510000", "170342.000000", "170343.490000", "170344.980000", "170346.470000", "170347.960000", "170349.450000", "170350.940000", "170352.430000", "170353.920000", "170355.410000", "170356.900000", "170358.390000", "170359.880000", "170401.370000", "170402.860000", "170404.350000", "170405.840000", "170407.330000", "170408.820000", "170410.310000", "170411.800000", "170413.290000", "170414.780000", "170416.270000", "170417.760000", "170419.250000", "170420.740000", "170422.230000", "170423.720000", "170425.210000", "170426.700000", "170428.190000", "170429.680000", "170431.170000", "170432.660000", "170434.150000", "170435.640000", "170437.130000", "170438.620000", "170440.110000", "170441.600000", "170443.090000", "170444.580000", "170446.070000", "170447.560000", "170449.050000", "170450.540000", "170452.030000", "170453.520000", "170455.010000", "170456.500000", "170457.990000", "170459.480000", "170500.970000", "170502.460000", "170503.950000", "170505.440000", "170506.930000", "170508.420000", "170509.910000", "170511.400000", "170512.890000", "170514.380000", "170515.870000", "170517.360000", "170518.850000", "170520.340000", "170521.830000", "170523.320000", "170524.810000", "170526.300000", "170527.790000", "170529.280000", "170530.770000", "170532.260000", "170533.750000", "170535.240000", "170536.730000", "170538.220000", "170539.710000", "170541.200000", "170542.690000", "170544.180000", "170545.670000", "170547.160000", "170548.650000", "170550.140000", "170551.630000", "170553.120000", "170554.610000", "170556.100000", "170557.590000", "170559.080000", "170600.570000", "170602.060000", "170603.550000", "170605.040000", "170606.530000", "170608.020000", "170609.510000", "170611.000000", "170612.490000", "170613.980000", "170615.470000", "170616.960000", "170618.450000", "170619.940000", "170621.430000", "170622.920000", "170624.410000", "170625.900000", "170627.390000", "170628.880000", "170630.370000", "170631.860000", "170633.350000", "170634.840000", "170636.330000", "170637.820000", "170639.310000", "170640.800000", "170642.290000", "170643.780000", "170645.270000", "170646.760000", "170648.250000", "170649.740000", "170651.230000", "170652.720000", "170654.210000"],
      "ContentTime": ["165654.319000", "165654.323000", "165654.326000", "165654.329000", "165654.332000", "165654.335000", "165654.338000", "165654.348000", "165654.351000", "165654.354000", "165654.357000", "165654.360000", "165654.363000", "165654.368000", "165654.371000", "165654.373000", "165654.376000", "165654.379000", "165654.382000", "165654.388000", "165654.391000", "165714.289000", "165714.292000", "165714.295000", "165714.298000", "165714.316000", "165714.319000", "165714.322000", "165714.325000", "165714.328000", "165714.331000", "165714.334000", "165714.337000", "165714.340000", "165714.343000", "165714.346000", "165714.349000", "165714.352000", "165714.355000", "165714.358000", "165714.361000", "165734.289000", "165734.292000", "165734.295000", "165734.298000", "165734.301000", "165734.304000", "165734.307000", "165734.310000", "165734.313000", "165734.316000", "165734.319000", "165734.322000", "165734.325000", "165734.328000", "165734.331000", "165734.334000", "165734.337000", "165734.340000", "165734.342000", "165734.345000", "165734.348000", "165754.289000", "165754.292000", "165754.295000", "165754.298000", "165754.301000", "165754.304000", "165754.307000", "165754.310000", "165754.313000", "165754.316000", "165754.319000", "165754.322000", "165754.325000", "165754.328000", "165754.331000", "165754.334000", "165754.337000", "165754.340000", "165754.343000", "165754.346000", "165814.289000", "165814.292000", "165814.295000", "165814.298000", "165814.301000", "165814.304000", "165814.307000", "165814.310000", "165814.313000", "165814.316000", "165814.319000", "165814.322000", "165814.325000", "165814.328000", "165814.331000", "165814.334000", "165814.337000", "165814.340000", "165814.343000", "165814.346000", "165854.288000", "165854.291000", "165854.294000", "165854.297000", "165854.300000", "165854.303000", "165854.306000", "165854.309000", "165854.312000", "165854.315000", "165854.318000", "165854.321000", "165854.324000", "165854.327000", "165854.330000", "165854.333000", "165854.336000", "165854.339000", "165854.342000", "165854.345000", "165854.348000", "165854.351000", "165854.357000", "165854.360000", "165854.363000", "165854.366000", "165854.369000", "165854.372000", "165914.289000", "165914.292000", "165914.295000", "165914.298000", "165914.301000", "165914.304000", "165914.307000", "165914.310000", "165914.313000", "165914.316000", "165914.319000", "165914.322000", "165914.325000", "165954.289000", "165954.292000", "165954.295000", "165954.298000", "165954.301000", "165954.304000", "165954.307000", "165954.310000", "165954.313000", "165954.316000", "165954.319000", "165954.322000", "165954.325000", "165954.328000", "165954.331000", "165954.334000", "165954.337000", "165954.340000", "165954.343000", "165954.346000", "165954.349000", "165954.352000", "165954.355000", "165954.358000", "165954.361000", "165954.364000", "165954.367000", "170034.289000", "170034.292000", "170034.295000", "170034.298000", "170034.301000", "170034.304000", "170034.307000", "170034.310000", "170034.313000", "170034.316000", "170034.319000", "170034.322000", "170034.325000", "170034.328000", "170034.331000", "170034.334000", "170034.337000", "170034.340000", "170034.343000", "170034.346000", "170034.349000", "170034.352000", "170034.355000", "170034.358000", "170034.361000", "170034.364000", "170034.367000", "170114.288000", "170114.291000", "170114.294000", "170114.297000", "170114.300000", "170114.303000", "170114.306000", "170114.309000", "170114.312000", "170114.316000", "170114.319000", "170114.322000", "170114.325000", "170114.328000", "170114.331000", "170114.334000", "170114.337000", "170114.340000", "170114.343000", "170114.350000", "170114.353000", "170114.356000", "170114.359000", "170114.362000", "170114.365000", "170114.368000", "170114.371000", "170154.289000", "170154.292000", "170154.295000", "170154.311000", "170154.314000", "170154.317000", "170154.320000", "170154.323000", "170154.326000", "170154.329000", "170154.332000", "170154.335000", "170154.338000", "170154.341000", "170154.344000", "170154.347000", "170154.350000", "170154.353000", "170154.356000", "170154.359000", "170154.362000", "170154.365000", "170154.368000", "170154.370000", "170154.373000", "170154.376000", "170154.379000", "170234.289000", "170234.292000", "170234.295000", "170234.298000", "170234.301000", "170234.304000", "170234.307000", "170234.310000", "170234.313000", "170234.316000", "170234.319000", "170234.322000", "170234.325000", "170234.328000", "170234.331000", "170234.334000", "170234.337000", "170234.340000", "170234.344000", "170234.347000", "170234.350000", "170234.353000", "170234.356000", "170234.359000", "170234.362000", "170234.365000", "170314.288000", "170314.291000", "170314.294000", "170314.297000", "170314.300000", "170314.303000", "170314.306000", "170314.309000", "170314.312000", "170314.315000", "170314.318000", "170314.321000", "170314.324000", "170314.327000", "170314.330000", "170314.333000", "170314.336000", "170314.339000", "170314.342000", "170314.345000", "170314.348000", "170314.351000", "170314.354000", "170314.357000", "170314.360000", "170314.363000", "170314.366000", "170354.289000", "170354.292000", "170354.295000", "170354.298000", "170354.301000", "170354.304000", "170354.307000", "170354.310000", "170354.313000", "170354.316000", "170354.319000", "170354.322000", "170354.325000", "170354.328000", "170354.331000", "170354.334000", "170354.337000", "170354.340000", "170354.343000", "170354.346000", "170354.349000", "170354.352000", "170354.355000", "170354.358000", "170354.361000", "170354.364000", "170354.367000", "170434.289000", "170434.292000", "170434.295000", "170434.298000", "170434.301000", "170434.304000", "170434.307000", "170434.310000", "170434.313000", "170434.316000", "170434.319000", "170434.322000", "170434.325000", "170434.328000", "170434.331000", "170434.334000", "170434.337000", "170434.340000", "170434.343000", "170434.346000", "170434.349000", "170434.352000", "170434.355000", "170434.358000", "170434.361000", "170434.364000", "170434.367000", "170514.288000", "170514.291000", "170514.294000", "170514.297000", "170514.300000", "170514.303000", "170514.306000", "170514.309000", "170514.312000", "170514.315000", "170514.318000", "170514.321000", "170514.324000", "170514.327000", "170514.330000", "170514.333000", "170514.336000", "170514.339000", "170514.342000", "170514.345000", "170514.348000", "170514.351000", "170514.354000", "170514.357000", "170514.360000", "170514.363000", "170514.366000", "170554.288000", "170554.291000", "170554.294000", "170554.297000", "170554.300000", "170554.303000", "170554.306000", "170554.309000", "170554.312000", "170554.315000", "170554.318000", "170554.321000", "170554.324000", "170554.327000", "170554.330000", "170554.333000", "170554.336000", "170554.339000", "170554.342000", "170554.345000", "170554.348000", "170554.351000", "170554.354000", "170554.357000", "170554.360000", "170554.363000", "170554.366000", "170634.289000", "170634.292000", "170634.299000", "170634.316000", "170634.319000", "170634.323000", "170634.326000", "170634.329000", "170634.332000", "170634.335000", "170634.338000", "170634.341000", "170634.344000", "170634.347000", "170634.350000", "170634.353000", "170634.357000", "170634.360000", "170634.363000", "170634.366000", "170634.369000", "170634.372000", "170634.375000", "170634.378000", "170634.381000", "170634.384000", "170656.770000", "170656.774000", "170656.777000", "170656.780000", "170656.783000", "170656.786000", "170656.789000", "170656.792000", "170656.796000", "170656.799000", "170656.802000", "170656.805000", "170656.808000", "170656.811000", "170656.815000", "170656.818000"],
