{
  "AcquisitionMatrixPE": 104,
  "AcquisitionNumber": 1,
  "AcquisitionTime": "18:07:52.372500",
  "BandwidthPerPixelPhaseEncode": 17.17,
  "BaseResolution": 104,
  "BodyPartExamined": "BRAIN",
  "CoilString": "HC1-7;NC1_2",
  "ConsistencyInfo": "N4_VE11C_LATEST_20160120",
  "ConversionSoftware": "dcm2niix",
  "ConversionSoftwareVersion": "v1.0.20190902",
  "DerivedVendorReportedEchoSpacing": 0.000560011,
  "DeviceSerialNumber": "167006",
  "DwellTime": 2.1e-06,
  "EchoTime": 0.037,
  "EchoTrainLength": 104,
  "EffectiveEchoSpacing": 0.000560011,
  "FlipAngle": 52,
  "ImageComments": "Unaliased_MB4_PE3_LB",
  "ImageOrientationPatientDICOM": [0.999717, -0.0227817, 0.0068638, 0.0237343, 0.934538, -0.355072],
  "ImageType": [
    "ORIGINAL",
    "PRIMARY",
    "M",
    "MB",
    "ND",
    "MOSAIC"
],
  "ImagingFrequency": 123.259,
  "InPlanePhaseEncodingDirectionDICOM": "COL",
  "InstitutionAddress": "Chemin_Queen-Mary_4565_Montreal_District_CA_H3W_1W5",
  "InstitutionName": "IUGM",
  "InstitutionalDepartmentName": "Department",
  "MRAcquisitionType": "2D",
  "MagneticFieldStrength": 3,
  "Manufacturer": "Siemens",
  "ManufacturersModelName": "Prisma_fit",
  "Modality": "MR",
  "MultibandAccelerationFactor": 4,
  "PartialFourier": 1,
  "PatientPosition": "HFS",
  "PercentPhaseFOV": 100,
  "PhaseEncodingDirection": "j",
  "PhaseEncodingSteps": 104,
  "PhaseResolution": 1,
  "PixelBandwidth": 2290,
  "ProcedureStepDescription": "video_friends",
  "ProtocolName": "func_task-friends-s03e20a",
  "PulseSequenceDetails": "%CustomerSeq%_cmrr_mbep2d_bold",
  "ReceiveCoilActiveElements": "HC1-7;NC1,2",
  "ReceiveCoilName": "HeadNeck_64",
  "ReconMatrixPE": 104,
  "RepetitionTime": 1.49,
  "SAR": 0.034631,
  "ScanOptions": "FS",
  "ScanningSequence": "EP",
  "SequenceName": "epfid2d1_104",
  "SequenceVariant": "SK_SS",
  "SeriesDescription": "func_task-friends-s03e20a",
  "SeriesNumber": 25,
  "ShimSetting": [613, -7284, -8832, 394, 1, -469, 73, 16],
  "SliceThickness": 2,
  "SliceTiming": [0, 0.7825, 0.0975, 0.88, 0.195, 0.98, 0.2925, 1.0775, 0.3925, 1.175, 0.49, 1.2725, 0.5875, 1.37, 0.685, 0, 0.7825, 0.0975, 0.88, 0.195, 0.98, 0.2925, 1.0775, 0.3925, 1.175, 0.49, 1.2725, 0.5875, 1.37, 0.685, 0, 0.7825, 0.0975, 0.88, 0.195, 0.98, 0.2925, 1.0775, 0.3925, 1.175, 0.49, 1.2725, 0.5875, 1.37, 0.685, 0, 0.7825, 0.0975, 0.88, 0.195, 0.98, 0.2925, 1.0775, 0.3925, 1.175, 0.49, 1.2725, 0.5875, 1.37, 0.685],
  "SoftwareVersions": "syngo_MR_E11",
  "SpacingBetweenSlices": 2,
  "StationName": "MRC35049",
  "TaskName": "s03e20a",
  "TotalReadoutTime": 0.0576811,
  "TxRefAmp": 236.749,
  "WipMemBlock": "14696699-0291-4990-a8f0-1f27fce56278||Sequence: R016 ve11c/master r/e634e98; Dec 19 2017 11:00:25 by eja",
  "dcmmeta_affine": [
    [-1.9994337558746338, 0.04746852070093155, -0.003349347272887826, 97.39270782470703],
    [0.04556348919868469, 1.8690755367279053, -0.7102681398391724, -71.65325927734375],
    [0.013727596029639244, 0.7101433277130127, 1.869627833366394, -70.07170104980469],
    [0.0, 0.0, 0.0, 1.0]
],
  "dcmmeta_reorient_transform": [
    [0.0, -1.0, 0.0, 103.0],
    [1.0, 0.0, 0.0, 0.0],
    [0.0, 0.0, 1.0, 0.0],
    [0.0, 0.0, 0.0, 1.0]
],
  "dcmmeta_shape": [104, 104, 60, 464],
  "dcmmeta_slice_dim": 2,
  "dcmmeta_version": 0.6,
  "global": {
    "const": {
      "AcquisitionMatrix": [104, 0, 0, 104],
      "AngioFlag": "N",
      "BitsAllocated": 16,
      "BitsStored": 16,
      "BodyPartExamined": "BRAIN",
      "Columns": 832,
      "EchoNumbers": 1,
      "EchoTime": 37.0,
      "EchoTrainLength": 104,
      "FlipAngle": 52.0,
      "HighBit": 15,
      "ImageOrientationPatient": [0.99971690012287, -0.022781744547, 0.00686379808179, 0.02373425956538, 0.93453774549558, -0.3550716648325],
      "ImagePositionPatient": [-847.3544062806, -784.61988362782, 256.56839261584],
      "ImageType": [
        "ORIGINAL",
        "PRIMARY",
        "M",
        "MB",
        "ND",
        "MOSAIC"
],
      "ImagedNucleus": "1H",
      "ImagingFrequency": 123.258976,
      "InPlanePhaseEncodingDirection": "COL",
      "MRAcquisitionType": "2D",
      "MagneticFieldStrength": 3.0,
      "Manufacturer": "SIEMENS",
      "ManufacturerModelName": "Prisma_fit",
      "Modality": "MR",
      "NumberOfAverages": 1.0,
      "NumberOfPhaseEncodingSteps": 104,
      "PercentPhaseFieldOfView": 100.0,
      "PercentSampling": 100.0,
      "PerformedProcedureStepStartTime": "161405.872000",
      "PhotometricInterpretation": "MONOCHROME2",
      "PixelBandwidth": 2290.0,
      "PixelRepresentation": 0,
      "PixelSpacing": [2.0, 2.0],
      "ProtocolName": "func_task-friends-s03e20a",
      "RepetitionTime": 1490.0,
      "Rows": 832,
      "SAR": 0.03463100400453,
      "SamplesPerPixel": 1,
      "ScanOptions": "FS",
      "ScanningSequence": "EP",
      "SequenceName": "epfid2d1_104",
      "SequenceVariant": [
        "SK",
        "SS"
],
      "SeriesDescription": "func_task-friends-s03e20a",
      "SeriesNumber": 25,
      "SeriesTime": "180914.329000",
      "SliceLocation": -40.22058392487,
      "SliceThickness": 2.0,
      "SmallestImagePixelValue": 0,
      "SoftwareVersions": "syngo MR E11",
      "SpacingBetweenSlices": 2.0000000327142,
      "SpecificCharacterSet": "ISO_IR 100",
      "StudyID": "1",
      "StudyTime": "161405.805000",
      "TransmitCoilName": "Body",
      "VariableFlipAngleFlag": "N",
      "WindowCenterWidthExplanation": "Algo1",
      "dBdt": 0.0},
    "slices": {}
  },
  "time": {
    "samples": {
      "AcquisitionNumber": [1, 2, 3, 4, 5, 6, 7, 8, 9, 10, 11, 12, 13, 14, 15, 16, 17, 18, 19, 20, 21, 22, 23, 24, 25, 26, 27, 28, 29, 30, 31, 32, 33, 34, 35, 36, 37, 38, 39, 40, 41, 42, 43, 44, 45, 46, 47, 48, 49, 50, 51, 52, 53, 54, 55, 56, 57, 58, 59, 60, 61, 62, 63, 64, 65, 66, 67, 68, 69, 70, 71, 72, 73, 74, 75, 76, 77, 78, 79, 80, 81, 82, 83, 84, 85, 86, 87, 88, 89, 90, 91, 92, 93, 94, 95, 96, 97, 98, 99, 100, 101, 102, 103, 104, 105, 106, 107, 108, 109, 110, 111, 112, 113, 114, 115, 116, 117, 118, 119, 120, 121, 122, 123, 124, 125, 126, 127, 128, 129, 130, 131, 132, 133, 134, 135, 136, 137, 138, 139, 140, 141, 142, 143, 144, 145, 146, 147, 148, 149, 150, 151, 152, 153, 154, 155, 156, 157, 158, 159, 160, 161, 162, 163, 164, 165, 166, 167, 168, 169, 170, 171, 172, 173, 174, 175, 176, 177, 178, 179, 180, 181, 182, 183, 184, 185, 186, 187, 188, 189, 190, 191, 192, 193, 194, 195, 196, 197, 198, 199, 200, 201, 202, 203, 204, 205, 206, 207, 208, 209, 210, 211, 212, 213, 214, 215, 216, 217, 218, 219, 220, 221, 222, 223, 224, 225, 226, 227, 228, 229, 230, 231, 232, 233, 234, 235, 236, 237, 238, 239, 240, 241, 242, 243, 244, 245, 246, 247, 248, 249, 250, 251, 252, 253, 254, 255, 256, 257, 258, 259, 260, 261, 262, 263, 264, 265, 266, 267, 268, 269, 270, 271, 272, 273, 274, 275, 276, 277, 278, 279, 280, 281, 282, 283, 284, 285, 286, 287, 288, 289, 290, 291, 292, 293, 294, 295, 296, 297, 298, 299, 300, 301, 302, 303, 304, 305, 306, 307, 308, 309, 310, 311, 312, 313, 314, 315, 316, 317, 318, 319, 320, 321, 322, 323, 324, 325, 326, 327, 328, 329, 330, 331, 332, 333, 334, 335, 336, 337, 338, 339, 340, 341, 342, 343, 344, 345, 346, 347, 348, 349, 350, 351, 352, 353, 354, 355, 356, 357, 358, 359, 360, 361, 362, 363, 364, 365, 366, 367, 368, 369, 370, 371, 372, 373, 374, 375, 376, 377, 378, 379, 380, 381, 382, 383, 384, 385, 386, 387, 388, 389, 390, 391, 392, 393, 394, 395, 396, 397, 398, 399, 400, 401, 402, 403, 404, 405, 406, 407, 408, 409, 410, 411, 412, 413, 414, 415, 416, 417, 418, 419, 420, 421, 422, 423, 424, 425, 426, 427, 428, 429, 430, 431, 432, 433, 434, 435, 436, 437, 438, 439, 440, 441, 442, 443, 444, 445, 446, 447, 448, 449, 450, 451, 452, 453, 454, 455, 456, 457, 458, 459, 460, 461, 462, 463, 464],
      "AcquisitionTime": ["180752.372500", "180753.862500", "180755.352500", "180756.842500", "180758.332500", "180759.822500", "180801.312500", "180802.802500", "180804.292500", "180805.782500", "180807.272500", "180808.762500", "180810.252500", "180811.742500", "180813.232500", "180814.722500", "180816.212500", "180817.702500", "180819.192500", "180820.682500", "180822.172500", "180823.662500", "180825.152500", "180826.642500", "180828.132500", "180829.622500", "180831.112500", "180832.602500", "180834.092500", "180835.582500", "180837.072500", "180838.562500", "180840.052500", "180841.542500", "180843.032500", "180844.522500", "180846.012500", "180847.502500", "180848.992500", "180850.482500", "180851.972500", "180853.462500", "180854.952500", "180856.442500", "180857.932500", "180859.422500", "180900.912500", "180902.402500", "180903.892500", "180905.382500", "180906.872500", "180908.362500", "180909.852500", "180911.342500", "180912.832500", "180914.322500", "180915.812500", "180917.302500", "180918.792500", "180920.282500", "180921.772500", "180923.262500", "180924.752500", "180926.242500", "180927.732500", "180929.222500", "180930.712500", "180932.202500", "180933.692500", "180935.182500", "180936.672500", "180938.162500", "180939.652500", "180941.142500", "180942.632500", "180944.122500", "180945.612500", "180947.102500", "180948.592500", "180950.082500", "180951.572500", "180953.062500", "180954.552500", "180956.042500", "180957.532500", "180959.022500", "181000.512500", "181002.002500", "181003.492500", "181004.982500", "181006.472500", "181007.962500", "181009.452500", "181010.942500", "181012.432500", "181013.922500", "181015.412500", "181016.902500", "181018.392500", "181019.882500", "181021.372500", "181022.862500", "181024.352500", "181025.842500", "181027.332500", "181028.822500", "181030.312500", "181031.802500", "181033.292500", "181034.782500", "181036.272500", "181037.762500", "181039.252500", "181040.742500", "181042.232500", "181043.722500", "181045.212500", "181046.702500", "181048.192500", "181049.682500", "181051.172500", "181052.662500", "181054.152500", "181055.642500", "181057.132500", "181058.622500", "181100.112500", "181101.602500", "181103.092500", "181104.582500", "181106.072500", "181107.562500", "181109.052500", "181110.542500", "181112.032500", "181113.522500", "181115.012500", "181116.502500", "181117.992500", "181119.482500", "181120.972500", "181122.462500", "181123.952500", "181125.442500", "181126.932500", "181128.422500", "181129.912500", "181131.402500", "181132.892500", "181134.382500", "181135.872500", "181137.362500", "181138.852500", "181140.342500", "181141.832500", "181143.322500", "181144.812500", "181146.302500", "181147.792500", "181149.282500", "181150.772500", "181152.262500", "181153.752500", "181155.242500", "181156.732500", "181158.222500", "181159.712500", "181201.202500", "181202.692500", "181204.182500", "181205.672500", "181207.162500", "181208.652500", "181210.142500", "181211.632500", "181213.122500", "181214.612500", "181216.102500", "181217.592500", "181219.082500", "181220.572500", "181222.062500", "181223.552500", "181225.042500", "181226.532500", "181228.022500", "181229.512500", "181231.002500", "181232.492500", "181233.982500", "181235.472500", "181236.962500", "181238.452500", "181239.942500", "181241.432500", "181242.922500", "181244.412500", "181245.902500", "181247.392500", "181248.882500", "181250.372500", "181251.862500", "181253.352500", "181254.842500", "181256.332500", "181257.822500", "181259.312500", "181300.802500", "181302.292500", "181303.782500", "181305.272500", "181306.762500", "181308.252500", "181309.742500", "181311.232500", "181312.722500", "181314.212500", "181315.702500", "181317.192500", "181318.682500", "181320.172500", "181321.662500", "181323.152500", "181324.642500", "181326.132500", "181327.622500", "181329.112500", "181330.602500", "181332.092500", "181333.582500", "181335.072500", "181336.562500", "181338.052500", "181339.542500", "181341.032500", "181342.522500", "181344.012500", "181345.502500", "181346.992500", "181348.482500", "181349.972500", "181351.462500", "181352.952500", "181354.442500", "181355.932500", "181357.422500", "181358.912500", "181400.402500", "181401.892500", "181403.382500", "181404.872500", "181406.362500", "181407.852500", "181409.342500", "181410.832500", "181412.322500", "181413.812500", "181415.302500", "181416.792500", "181418.282500", "181419.772500", "181421.262500", "181422.752500", "181424.242500", "181425.732500", "181427.222500", "181428.712500", "181430.202500", "181431.692500", "181433.182500", "181434.672500", "181436.162500", "181437.652500", "181439.142500", "181440.632500", "181442.122500", "181443.612500", "181445.102500", "181446.592500", "181448.082500", "181449.572500", "181451.062500", "181452.552500", "181454.042500", "181455.532500", "181457.022500", "181458.512500", "181500.002500", "181501.492500", "181502.982500", "181504.472500", "181505.962500", "181507.452500", "181508.942500", "181510.432500", "181511.922500", "181513.412500", "181514.902500", "181516.392500", "181517.882500", "181519.372500", "181520.862500", "181522.352500", "181523.842500", "181525.332500", "181526.822500", "181528.312500", "181529.802500", "181531.292500", "181532.782500", "181534.272500", "181535.762500", "181537.252500", "181538.742500", "181540.232500", "181541.722500", "181543.212500", "181544.702500", "181546.192500", "181547.682500", "181549.172500", "181550.662500", "181552.152500", "181553.642500", "181555.132500", "181556.622500", "181558.112500", "181559.602500", "181601.092500", "181602.582500", "181604.072500", "181605.562500", "181607.052500", "181608.542500", "181610.032500", "181611.522500", "181613.012500", "181614.502500", "181615.992500", "181617.482500", "181618.972500", "181620.462500", "181621.952500", "181623.442500", "181624.932500", "181626.422500", "181627.912500", "181629.402500", "181630.892500", "181632.382500", "181633.872500", "181635.362500", "181636.852500", "181638.342500", "181639.832500", "181641.322500", "181642.812500", "181644.302500", "181645.792500", "181647.282500", "181648.772500", "181650.262500", "181651.752500", "181653.242500", "181654.732500", "181656.222500", "181657.712500", "181659.202500", "181700.692500", "181702.182500", "181703.672500", "181705.162500", "181706.652500", "181708.142500", "181709.632500", "181711.122500", "181712.612500", "181714.102500", "181715.592500", "181717.082500", "181718.572500", "181720.062500", "181721.552500", "181723.042500", "181724.532500", "181726.022500", "181727.512500", "181729.002500", "181730.492500", "181731.982500", "181733.472500", "181734.962500", "181736.452500", "181737.942500", "181739.432500", "181740.922500", "181742.412500", "181743.902500", "181745.392500", "181746.882500", "181748.372500", "181749.862500", "181751.352500", "181752.842500", "181754.332500", "181755.822500", "181757.312500", "181758.802500", "181800.292500", "181801.782500", "181803.272500", "181804.762500", "181806.252500", "181807.742500", "181809.232500", "181810.722500", "181812.212500", "181813.702500", "181815.192500", "181816.682500", "181818.172500", "181819.662500", "181821.152500", "181822.642500", "181824.132500", "181825.622500", "181827.112500", "181828.602500", "181830.092500", "181831.582500", "181833.072500", "181834.562500", "181836.052500", "181837.542500", "181839.032500", "181840.522500", "181842.012500", "181843.502500", "181844.992500", "181846.482500", "181847.972500", "181849.462500", "181850.952500", "181852.442500", "181853.932500", "181855.422500", "181856.912500", "181858.402500", "181859.892500", "181901.382500", "181902.872500", "181904.362500", "181905.852500", "181907.342500", "181908.832500", "181910.322500", "181911.812500", "181913.302500", "181914.792500", "181916.282500", "181917.772500", "181919.262500", "181920.752500", "181922.242500"],
      "ContentTime": ["180914.332000", "180914.335000", "180914.338000", "180914.341000", "180914.344000", "180914.347000", "180914.350000", "180914.353000", "180914.357000", "180914.360000", "180914.362000", "180914.365000", "180914.368000", "180914.371000", "180914.374000", "180914.377000", "180914.380000", "180914.383000", "180914.386000", "180914.389000", "180914.392000", "180914.395000", "180914.398000", "180914.401000", "180914.404000", "180914.417000", "180914.420000", "180914.423000", "180934.289000", "180934.292000", "180934.295000", "180934.298000", "180934.301000", "180934.310000", "180934.313000", "180934.316000", "180934.319000", "180934.322000", "180934.325000", "180934.328000", "180934.331000", "180934.334000", "180934.337000", "180934.340000", "180934.343000", "180934.346000", "180934.349000", "180934.352000", "180954.289000", "180954.292000", "180954.295000", "180954.300000", "180954.303000", "180954.306000", "180954.309000", "180954.312000", "180954.315000", "180954.318000", "180954.321000", "180954.324000", "180954.327000", "180954.330000", "180954.333000", "180954.336000", "180954.339000", "180954.342000", "180954.345000", "180954.348000", "180954.351000", "181014.288000", "181014.291000", "181014.294000", "181014.297000", "181014.300000", "181014.303000", "181014.306000", "181014.309000", "181014.321000", "181014.324000", "181014.327000", "181014.330000", "181014.333000", "181014.336000", "181014.339000", "181014.342000", "181014.345000", "181014.348000", "181014.351000", "181014.354000", "181054.288000", "181054.291000", "181054.294000", "181054.297000", "181054.300000", "181054.303000", "181054.306000", "181054.309000", "181054.312000", "181054.315000", "181054.318000", "181054.321000", "181054.324000", "181054.327000", "181054.330000", "181054.333000", "181054.336000", "181054.339000", "181054.342000", "181054.345000", "181054.348000", "181054.351000", "181054.354000", "181054.357000", "181054.360000", "181054.363000", "181054.366000", "181054.369000", "181054.372000", "181054.375000", "181054.378000", "181054.381000", "181134.289000", "181134.292000", "181134.295000", "181134.298000", "181134.301000", "181134.304000", "181134.307000", "181134.311000", "181134.314000", "181134.316000", "181134.320000", "181134.323000", "181134.326000", "181134.329000", "181134.332000", "181134.334000", "181134.337000", "181134.340000", "181134.343000", "181134.346000", "181134.349000", "181134.352000", "181134.355000", "181134.358000", "181134.361000", "181134.364000", "181134.367000", "181214.289000", "181214.292000", "181214.295000", "181214.298000", "181214.301000", "181214.304000", "181214.307000", "181214.310000", "181214.313000", "181214.316000", "181214.319000", "181214.322000", "181214.325000", "181214.328000", "181214.331000", "181214.334000", "181214.341000", "181214.344000", "181214.347000", "181214.350000", "181214.353000", "181214.356000", "181214.359000", "181214.362000", "181214.365000", "181214.368000", "181214.371000", "181254.288000", "181254.291000", "181254.294000", "181254.297000", "181254.300000", "181254.303000", "181254.306000", "181254.309000", "181254.312000", "181254.315000", "181254.318000", "181254.321000", "181254.324000", "181254.327000", "181254.330000", "181254.333000", "181254.336000", "181254.339000", "181254.342000", "181254.345000", "181254.348000", "181254.351000", "181254.354000", "181254.357000", "181254.360000", "181254.363000", "181254.366000", "181334.289000", "181334.292000", "181334.295000", "181334.298000", "181334.301000", "181334.304000", "181334.307000", "181334.310000", "181334.313000", "181334.316000", "181334.319000", "181334.322000", "181334.325000", "181334.329000", "181334.332000", "181334.335000", "181334.338000", "181334.341000", "181334.344000", "181334.347000", "181334.351000", "181334.353000", "181334.356000", "181334.359000", "181334.363000", "181334.366000", "181414.289000", "181414.292000", "181414.296000", "181414.299000", "181414.302000", "181414.304000", "181414.308000", "181414.311000", "181414.314000", "181414.317000", "181414.320000", "181414.323000", "181414.326000", "181414.329000", "181414.332000", "181414.335000", "181414.338000", "181414.341000", "181414.344000", "181414.347000", "181414.350000", "181414.360000", "181414.363000", "181414.366000", "181414.369000", "181414.371000", "181414.375000", "181454.288000", "181454.291000", "181454.294000", "181454.297000", "181454.300000", "181454.303000", "181454.316000", "181454.319000", "181454.322000", "181454.325000", "181454.328000", "181454.331000", "181454.334000", "181454.337000", "181454.340000", "181454.343000", "181454.346000", "181454.349000", "181454.352000", "181454.355000", "181454.358000", "181454.361000", "181454.364000", "181454.367000", "181454.370000", "181454.373000", "181454.376000", "181534.289000", "181534.292000", "181534.295000", "181534.298000", "181534.301000", "181534.304000", "181534.307000", "181534.310000", "181534.313000", "181534.316000", "181534.319000", "181534.322000", "181534.325000", "181534.328000", "181534.331000", "181534.334000", "181534.337000", "181534.340000", "181534.343000", "181534.346000", "181534.349000", "181534.352000", "181534.355000", "181534.358000", "181534.361000", "181534.364000", "181534.367000", "181614.289000", "181614.292000", "181614.295000", "181614.298000", "181614.301000", "181614.304000", "181614.307000", "181614.310000", "181614.313000", "181614.316000", "181614.319000", "181614.322000", "181614.325000", "181614.328000", "181614.331000", "181614.334000", "181614.337000", "181614.340000", "181614.343000", "181614.346000", "181614.349000", "181614.352000", "181614.355000", "181614.359000", "181614.362000", "181614.365000", "181614.368000", "181654.289000", "181654.292000", "181654.295000", "181654.298000", "181654.301000", "181654.304000", "181654.308000", "181654.311000", "181654.314000", "181654.317000", "181654.320000", "181654.323000", "181654.326000", "181654.329000", "181654.332000", "181654.335000", "181654.338000", "181654.341000", "181654.344000", "181654.347000", "181654.350000", "181654.353000", "181654.356000", "181654.359000", "181654.362000", "181654.365000", "181654.368000", "181734.288000", "181734.291000", "181734.294000", "181734.297000", "181734.300000", "181734.304000", "181734.307000", "181734.310000", "181734.313000", "181734.316000", "181734.319000", "181734.322000", "181734.325000", "181734.328000", "181734.331000", "181734.334000", "181734.337000", "181734.340000", "181734.343000", "181734.346000", "181734.349000", "181734.352000", "181734.355000", "181734.358000", "181734.361000", "181734.364000", "181734.367000", "181814.289000", "181814.292000", "181814.295000", "181814.298000", "181814.301000", "181814.305000", "181814.313000", "181814.317000", "181814.320000", "181814.323000", "181814.326000", "181814.329000", "181814.332000", "181814.335000", "181814.339000", "181814.342000", "181814.345000", "181814.348000", "181814.351000", "181814.354000", "181814.357000", "181814.360000", "181814.363000", "181814.366000", "181814.370000", "181814.373000", "181854.289000", "181854.292000", "181854.295000", "181854.298000", "181854.301000", "181854.304000", "181854.316000", "181854.319000", "181854.322000", "181854.325000", "181854.328000", "181854.331000", "181854.334000", "181854.337000", "181854.341000", "181854.344000", "181854.347000", "181854.350000", "181854.353000", "181854.356000", "181854.359000", "181854.362000", "181854.365000", "181854.368000", "181854.371000", "181854.374000", "181854.377000", "181914.289000", "181914.292000", "181914.295000", "181914.298000", "181914.301000", "181914.305000", "181914.308000", "181914.311000", "181914.314000", "181914.317000", "181914.320000", "181914.323000", "181914.326000", "181914.336000", "181924.526000", "181924.529000", "181924.532000", "181924.535000", "181924.538000", "181924.541000", "181924.544000"],
