{
  "AcquisitionMatrixPE": 104,
  "AcquisitionNumber": 1,
  "AcquisitionTime": "18:19:51.570000",
  "BandwidthPerPixelPhaseEncode": 17.17,
  "BaseResolution": 104,
  "BodyPartExamined": "BRAIN",
  "CoilString": "HC1-7;NC1_2",
  "ConsistencyInfo": "N4_VE11C_LATEST_20160120",
  "ConversionSoftware": "dcm2niix",
  "ConversionSoftwareVersion": "v1.0.20190902",
  "DerivedVendorReportedEchoSpacing": 0.000560011,
  "DeviceSerialNumber": "167006",
  "DwellTime": 2.1e-06,
  "EchoTime": 0.037,
  "EchoTrainLength": 104,
  "EffectiveEchoSpacing": 0.000560011,
  "FlipAngle": 52,
  "ImageComments": "Unaliased_MB4_PE3_LB",
  "ImageOrientationPatientDICOM": [0.999717, -0.0227817, 0.0068638, 0.0237343, 0.934538, -0.355072],
  "ImageType": [
    "ORIGINAL",
    "PRIMARY",
    "M",
    "MB",
    "ND",
    "MOSAIC"
],
  "ImagingFrequency": 123.259,
  "InPlanePhaseEncodingDirectionDICOM": "COL",
  "InstitutionAddress": "Chemin_Queen-Mary_4565_Montreal_District_CA_H3W_1W5",
  "InstitutionName": "IUGM",
  "InstitutionalDepartmentName": "Department",
  "MRAcquisitionType": "2D",
  "MagneticFieldStrength": 3,
  "Manufacturer": "Siemens",
  "ManufacturersModelName": "Prisma_fit",
  "Modality": "MR",
  "MultibandAccelerationFactor": 4,
  "PartialFourier": 1,
  "PatientPosition": "HFS",
  "PercentPhaseFOV": 100,
  "PhaseEncodingDirection": "j",
  "PhaseEncodingSteps": 104,
  "PhaseResolution": 1,
  "PixelBandwidth": 2290,
  "ProcedureStepDescription": "video_friends",
  "ProtocolName": "func_task-friends-s03e20b",
  "PulseSequenceDetails": "%CustomerSeq%_cmrr_mbep2d_bold",
  "ReceiveCoilActiveElements": "HC1-7;NC1,2",
  "ReceiveCoilName": "HeadNeck_64",
  "ReconMatrixPE": 104,
  "RepetitionTime": 1.49,
  "SAR": 0.034631,
  "ScanOptions": "FS",
  "ScanningSequence": "EP",
  "SequenceName": "epfid2d1_104",
  "SequenceVariant": "SK_SS",
  "SeriesDescription": "func_task-friends-s03e20b",
  "SeriesNumber": 27,
  "ShimSetting": [613, -7284, -8832, 394, 1, -469, 73, 16],
  "SliceThickness": 2,
  "SliceTiming": [0, 0.7825, 0.0975, 0.88, 0.195, 0.98, 0.2925, 1.0775, 0.39, 1.175, 0.49, 1.2725, 0.5875, 1.37, 0.685, 0, 0.7825, 0.0975, 0.88, 0.195, 0.98, 0.2925, 1.0775, 0.39, 1.175, 0.49, 1.2725, 0.5875, 1.37, 0.685, 0, 0.7825, 0.0975, 0.88, 0.195, 0.98, 0.2925, 1.0775, 0.39, 1.175, 0.49, 1.2725, 0.5875, 1.37, 0.685, 0, 0.7825, 0.0975, 0.88, 0.195, 0.98, 0.2925, 1.0775, 0.39, 1.175, 0.49, 1.2725, 0.5875, 1.37, 0.685],
  "SoftwareVersions": "syngo_MR_E11",
  "SpacingBetweenSlices": 2,
  "StationName": "MRC35049",
  "TaskName": "s03e20b",
  "TotalReadoutTime": 0.0576811,
  "TxRefAmp": 236.749,
  "WipMemBlock": "b2cc9e90-e59c-41a2-aead-008faecdb0ae||Sequence: R016 ve11c/master r/e634e98; Dec 19 2017 11:00:25 by eja",
  "dcmmeta_affine": [
    [-1.9994337558746338, 0.04746852070093155, -0.003349347272887826, 97.39270782470703],
    [0.04556348919868469, 1.8690755367279053, -0.7102681398391724, -71.65325927734375],
    [0.013727596029639244, 0.7101433277130127, 1.869627833366394, -70.07170104980469],
    [0.0, 0.0, 0.0, 1.0]
],
  "dcmmeta_reorient_transform": [
    [0.0, -1.0, 0.0, 103.0],
    [1.0, 0.0, 0.0, 0.0],
    [0.0, 0.0, 1.0, 0.0],
    [0.0, 0.0, 0.0, 1.0]
],
  "dcmmeta_shape": [104, 104, 60, 464],
  "dcmmeta_slice_dim": 2,
  "dcmmeta_version": 0.6,
  "global": {
    "const": {
      "AcquisitionMatrix": [104, 0, 0, 104],
      "AngioFlag": "N",
      "BitsAllocated": 16,
      "BitsStored": 16,
      "BodyPartExamined": "BRAIN",
      "Columns": 832,
      "EchoNumbers": 1,
      "EchoTime": 37.0,
      "EchoTrainLength": 104,
      "FlipAngle": 52.0,
      "HighBit": 15,
      "ImageOrientationPatient": [0.99971690012287, -0.022781744547, 0.00686379808179, 0.02373425956538, 0.93453774549558, -0.3550716648325],
      "ImagePositionPatient": [-847.3544062806, -784.61988362782, 256.56839261584],
      "ImageType": [
        "ORIGINAL",
        "PRIMARY",
        "M",
        "MB",
        "ND",
        "MOSAIC"
],
      "ImagedNucleus": "1H",
      "ImagingFrequency": 123.258972,
      "InPlanePhaseEncodingDirection": "COL",
      "MRAcquisitionType": "2D",
      "MagneticFieldStrength": 3.0,
      "Manufacturer": "SIEMENS",
      "ManufacturerModelName": "Prisma_fit",
      "Modality": "MR",
      "NumberOfAverages": 1.0,
      "NumberOfPhaseEncodingSteps": 104,
      "PercentPhaseFieldOfView": 100.0,
      "PercentSampling": 100.0,
      "PerformedProcedureStepStartTime": "161405.872000",
      "PhotometricInterpretation": "MONOCHROME2",
      "PixelBandwidth": 2290.0,
      "PixelRepresentation": 0,
      "PixelSpacing": [2.0, 2.0],
      "ProtocolName": "func_task-friends-s03e20b",
      "RepetitionTime": 1490.0,
      "Rows": 832,
      "SAR": 0.03463100400453,
      "SamplesPerPixel": 1,
      "ScanOptions": "FS",
      "ScanningSequence": "EP",
      "SequenceName": "epfid2d1_104",
      "SequenceVariant": [
        "SK",
        "SS"
],
      "SeriesDescription": "func_task-friends-s03e20b",
      "SeriesNumber": 27,
      "SeriesTime": "182111.044000",
      "SliceLocation": -40.22058392487,
      "SliceThickness": 2.0,
      "SmallestImagePixelValue": 0,
      "SoftwareVersions": "syngo MR E11",
      "SpacingBetweenSlices": 2.0000000327142,
      "SpecificCharacterSet": "ISO_IR 100",
      "StudyID": "1",
      "StudyTime": "161405.805000",
      "TransmitCoilName": "Body",
      "VariableFlipAngleFlag": "N",
      "WindowCenterWidthExplanation": "Algo1",
      "dBdt": 0.0},
    "slices": {}
  },
  "time": {
    "samples": {
      "AcquisitionNumber": [1, 2, 3, 4, 5, 6, 7, 8, 9, 10, 11, 12, 13, 14, 15, 16, 17, 18, 19, 20, 21, 22, 23, 24, 25, 26, 27, 28, 29, 30, 31, 32, 33, 34, 35, 36, 37, 38, 39, 40, 41, 42, 43, 44, 45, 46, 47, 48, 49, 50, 51, 52, 53, 54, 55, 56, 57, 58, 59, 60, 61, 62, 63, 64, 65, 66, 67, 68, 69, 70, 71, 72, 73, 74, 75, 76, 77, 78, 79, 80, 81, 82, 83, 84, 85, 86, 87, 88, 89, 90, 91, 92, 93, 94, 95, 96, 97, 98, 99, 100, 101, 102, 103, 104, 105, 106, 107, 108, 109, 110, 111, 112, 113, 114, 115, 116, 117, 118, 119, 120, 121, 122, 123, 124, 125, 126, 127, 128, 129, 130, 131, 132, 133, 134, 135, 136, 137, 138, 139, 140, 141, 142, 143, 144, 145, 146, 147, 148, 149, 150, 151, 152, 153, 154, 155, 156, 157, 158, 159, 160, 161, 162, 163, 164, 165, 166, 167, 168, 169, 170, 171, 172, 173, 174, 175, 176, 177, 178, 179, 180, 181, 182, 183, 184, 185, 186, 187, 188, 189, 190, 191, 192, 193, 194, 195, 196, 197, 198, 199, 200, 201, 202, 203, 204, 205, 206, 207, 208, 209, 210, 211, 212, 213, 214, 215, 216, 217, 218, 219, 220, 221, 222, 223, 224, 225, 226, 227, 228, 229, 230, 231, 232, 233, 234, 235, 236, 237, 238, 239, 240, 241, 242, 243, 244, 245, 246, 247, 248, 249, 250, 251, 252, 253, 254, 255, 256, 257, 258, 259, 260, 261, 262, 263, 264, 265, 266, 267, 268, 269, 270, 271, 272, 273, 274, 275, 276, 277, 278, 279, 280, 281, 282, 283, 284, 285, 286, 287, 288, 289, 290, 291, 292, 293, 294, 295, 296, 297, 298, 299, 300, 301, 302, 303, 304, 305, 306, 307, 308, 309, 310, 311, 312, 313, 314, 315, 316, 317, 318, 319, 320, 321, 322, 323, 324, 325, 326, 327, 328, 329, 330, 331, 332, 333, 334, 335, 336, 337, 338, 339, 340, 341, 342, 343, 344, 345, 346, 347, 348, 349, 350, 351, 352, 353, 354, 355, 356, 357, 358, 359, 360, 361, 362, 363, 364, 365, 366, 367, 368, 369, 370, 371, 372, 373, 374, 375, 376, 377, 378, 379, 380, 381, 382, 383, 384, 385, 386, 387, 388, 389, 390, 391, 392, 393, 394, 395, 396, 397, 398, 399, 400, 401, 402, 403, 404, 405, 406, 407, 408, 409, 410, 411, 412, 413, 414, 415, 416, 417, 418, 419, 420, 421, 422, 423, 424, 425, 426, 427, 428, 429, 430, 431, 432, 433, 434, 435, 436, 437, 438, 439, 440, 441, 442, 443, 444, 445, 446, 447, 448, 449, 450, 451, 452, 453, 454, 455, 456, 457, 458, 459, 460, 461, 462, 463, 464],
      "AcquisitionTime": ["181951.570000", "181953.060000", "181954.550000", "181956.040000", "181957.530000", "181959.020000", "182000.510000", "182002.000000", "182003.490000", "182004.980000", "182006.470000", "182007.960000", "182009.450000", "182010.940000", "182012.430000", "182013.920000", "182015.410000", "182016.900000", "182018.390000", "182019.880000", "182021.370000", "182022.860000", "182024.350000", "182025.840000", "182027.330000", "182028.820000", "182030.310000", "182031.800000", "182033.290000", "182034.780000", "182036.270000", "182037.760000", "182039.250000", "182040.740000", "182042.230000", "182043.720000", "182045.210000", "182046.700000", "182048.190000", "182049.680000", "182051.170000", "182052.660000", "182054.150000", "182055.640000", "182057.130000", "182058.620000", "182100.110000", "182101.600000", "182103.090000", "182104.580000", "182106.070000", "182107.560000", "182109.050000", "182110.540000", "182112.030000", "182113.520000", "182115.010000", "182116.500000", "182117.990000", "182119.480000", "182120.970000", "182122.460000", "182123.950000", "182125.440000", "182126.930000", "182128.420000", "182129.910000", "182131.400000", "182132.890000", "182134.380000", "182135.870000", "182137.360000", "182138.850000", "182140.340000", "182141.830000", "182143.320000", "182144.810000", "182146.300000", "182147.790000", "182149.280000", "182150.770000", "182152.260000", "182153.750000", "182155.240000", "182156.730000", "182158.220000", "182159.710000", "182201.200000", "182202.690000", "182204.180000", "182205.670000", "182207.160000", "182208.650000", "182210.140000", "182211.630000", "182213.120000", "182214.610000", "182216.100000", "182217.590000", "182219.080000", "182220.570000", "182222.060000", "182223.550000", "182225.040000", "182226.530000", "182228.020000", "182229.510000", "182231.000000", "182232.490000", "182233.980000", "182235.470000", "182236.960000", "182238.450000", "182239.940000", "182241.430000", "182242.920000", "182244.410000", "182245.900000", "182247.390000", "182248.880000", "182250.370000", "182251.860000", "182253.350000", "182254.840000", "182256.330000", "182257.820000", "182259.310000", "182300.800000", "182302.290000", "182303.780000", "182305.270000", "182306.760000", "182308.250000", "182309.740000", "182311.230000", "182312.720000", "182314.210000", "182315.700000", "182317.190000", "182318.680000", "182320.170000", "182321.660000", "182323.150000", "182324.640000", "182326.130000", "182327.620000", "182329.110000", "182330.600000", "182332.090000", "182333.580000", "182335.070000", "182336.560000", "182338.050000", "182339.540000", "182341.030000", "182342.520000", "182344.010000", "182345.500000", "182346.990000", "182348.480000", "182349.970000", "182351.460000", "182352.950000", "182354.440000", "182355.930000", "182357.420000", "182358.910000", "182400.400000", "182401.890000", "182403.380000", "182404.870000", "182406.360000", "182407.850000", "182409.340000", "182410.830000", "182412.320000", "182413.810000", "182415.300000", "182416.790000", "182418.280000", "182419.770000", "182421.260000", "182422.750000", "182424.240000", "182425.730000", "182427.220000", "182428.710000", "182430.200000", "182431.690000", "182433.180000", "182434.670000", "182436.160000", "182437.650000", "182439.140000", "182440.630000", "182442.120000", "182443.610000", "182445.100000", "182446.590000", "182448.080000", "182449.570000", "182451.060000", "182452.550000", "182454.040000", "182455.530000", "182457.020000", "182458.510000", "182500.000000", "182501.490000", "182502.980000", "182504.470000", "182505.960000", "182507.450000", "182508.940000", "182510.430000", "182511.920000", "182513.410000", "182514.900000", "182516.390000", "182517.880000", "182519.370000", "182520.860000", "182522.350000", "182523.840000", "182525.330000", "182526.820000", "182528.310000", "182529.800000", "182531.290000", "182532.780000", "182534.270000", "182535.760000", "182537.250000", "182538.740000", "182540.230000", "182541.720000", "182543.210000", "182544.700000", "182546.190000", "182547.680000", "182549.170000", "182550.660000", "182552.150000", "182553.640000", "182555.130000", "182556.620000", "182558.110000", "182559.600000", "182601.090000", "182602.580000", "182604.070000", "182605.560000", "182607.050000", "182608.540000", "182610.030000", "182611.520000", "182613.010000", "182614.500000", "182615.990000", "182617.480000", "182618.970000", "182620.460000", "182621.950000", "182623.440000", "182624.930000", "182626.420000", "182627.910000", "182629.400000", "182630.890000", "182632.380000", "182633.870000", "182635.360000", "182636.850000", "182638.340000", "182639.830000", "182641.320000", "182642.810000", "182644.300000", "182645.790000", "182647.280000", "182648.770000", "182650.260000", "182651.750000", "182653.240000", "182654.730000", "182656.220000", "182657.710000", "182659.200000", "182700.690000", "182702.180000", "182703.670000", "182705.160000", "182706.650000", "182708.140000", "182709.630000", "182711.120000", "182712.610000", "182714.100000", "182715.590000", "182717.080000", "182718.570000", "182720.060000", "182721.550000", "182723.040000", "182724.530000", "182726.020000", "182727.510000", "182729.000000", "182730.490000", "182731.980000", "182733.470000", "182734.960000", "182736.450000", "182737.940000", "182739.430000", "182740.920000", "182742.410000", "182743.900000", "182745.390000", "182746.880000", "182748.370000", "182749.860000", "182751.350000", "182752.840000", "182754.330000", "182755.820000", "182757.310000", "182758.800000", "182800.290000", "182801.780000", "182803.270000", "182804.760000", "182806.250000", "182807.740000", "182809.230000", "182810.720000", "182812.210000", "182813.700000", "182815.190000", "182816.680000", "182818.170000", "182819.660000", "182821.150000", "182822.640000", "182824.130000", "182825.620000", "182827.110000", "182828.600000", "182830.090000", "182831.580000", "182833.070000", "182834.560000", "182836.050000", "182837.540000", "182839.030000", "182840.520000", "182842.010000", "182843.500000", "182844.990000", "182846.480000", "182847.970000", "182849.460000", "182850.950000", "182852.440000", "182853.930000", "182855.420000", "182856.910000", "182858.400000", "182859.890000", "182901.380000", "182902.870000", "182904.360000", "182905.850000", "182907.340000", "182908.830000", "182910.320000", "182911.810000", "182913.300000", "182914.790000", "182916.280000", "182917.770000", "182919.260000", "182920.750000", "182922.240000", "182923.730000", "182925.220000", "182926.710000", "182928.200000", "182929.690000", "182931.180000", "182932.670000", "182934.160000", "182935.650000", "182937.140000", "182938.630000", "182940.120000", "182941.610000", "182943.100000", "182944.590000", "182946.080000", "182947.570000", "182949.060000", "182950.550000", "182952.040000", "182953.530000", "182955.020000", "182956.510000", "182958.000000", "182959.490000", "183000.980000", "183002.470000", "183003.960000", "183005.450000", "183006.940000", "183008.430000", "183009.920000", "183011.410000", "183012.900000", "183014.390000", "183015.880000", "183017.370000", "183018.860000", "183020.350000", "183021.840000", "183023.330000", "183024.820000", "183026.310000", "183027.800000", "183029.290000", "183030.780000", "183032.270000", "183033.760000", "183035.250000", "183036.740000", "183038.230000", "183039.720000", "183041.210000", "183042.700000", "183044.190000", "183045.680000", "183047.170000", "183048.660000", "183050.150000", "183051.640000", "183053.130000", "183054.620000", "183056.110000", "183057.600000", "183059.090000", "183100.580000", "183102.070000", "183103.560000", "183105.050000", "183106.540000", "183108.030000", "183109.520000", "183111.010000", "183112.500000", "183113.990000", "183115.480000", "183116.970000", "183118.460000", "183119.950000", "183121.440000"],
      "ContentTime": ["182111.046000", "182111.050000", "182111.053000", "182111.056000", "182111.059000", "182111.062000", "182111.065000", "182111.068000", "182111.071000", "182111.074000", "182111.077000", "182111.085000", "182111.088000", "182111.091000", "182111.100000", "182111.103000", "182111.105000", "182111.109000", "182111.112000", "182111.115000", "182111.118000", "182111.121000", "182111.133000", "182111.136000", "182111.140000", "182131.013000", "182131.016000", "182131.019000", "182131.022000", "182131.025000", "182131.029000", "182131.031000", "182131.034000", "182131.037000", "182131.040000", "182131.043000", "182131.046000", "182131.049000", "182131.053000", "182131.056000", "182131.059000", "182131.062000", "182131.065000", "182131.073000", "182131.076000", "182131.079000", "182151.013000", "182151.016000", "182151.019000", "182151.022000", "182151.030000", "182151.033000", "182151.036000", "182151.039000", "182151.042000", "182151.045000", "182151.048000", "182151.051000", "182151.054000", "182151.057000", "182151.060000", "182151.063000", "182151.066000", "182151.069000", "182151.072000", "182151.075000", "182211.013000", "182211.016000", "182211.019000", "182211.022000", "182211.025000", "182211.028000", "182211.031000", "182211.034000", "182211.037000", "182211.040000", "182211.043000", "182211.046000", "182211.049000", "182211.052000", "182211.055000", "182211.058000", "182211.061000", "182211.064000", "182211.067000", "182211.070000", "182231.013000", "182231.016000", "182231.019000", "182231.022000", "182231.025000", "182231.028000", "182231.031000", "182231.034000", "182231.037000", "182231.040000", "182231.043000", "182231.046000", "182231.049000", "182231.052000", "182231.055000", "182231.058000", "182231.061000", "182231.064000", "182231.067000", "182231.070000", "182311.014000", "182311.017000", "182311.020000", "182311.023000", "182311.026000", "182311.029000", "182311.032000", "182311.035000", "182311.038000", "182311.041000", "182311.044000", "182311.047000", "182311.050000", "182311.053000", "182311.056000", "182311.059000", "182311.062000", "182311.065000", "182311.068000", "182311.071000", "182311.074000", "182311.077000", "182311.080000", "182311.083000", "182311.086000", "182311.089000", "182311.099000", "182351.013000", "182351.016000", "182351.019000", "182351.022000", "182351.025000", "182351.028000", "182351.031000", "182351.034000", "182351.037000", "182351.040000", "182351.043000", "182351.046000", "182351.049000", "182351.066000", "182351.069000", "182351.072000", "182351.075000", "182351.078000", "182351.081000", "182351.084000", "182351.087000", "182351.090000", "182351.093000", "182351.096000", "182351.099000", "182351.102000", "182351.105000", "182431.013000", "182431.016000", "182431.032000", "182431.035000", "182431.038000", "182431.041000", "182431.044000", "182431.047000", "182431.051000", "182431.054000", "182431.057000", "182431.060000", "182431.063000", "182431.066000", "182431.069000", "182431.072000", "182431.076000", "182431.079000", "182431.082000", "182431.085000", "182431.088000", "182431.091000", "182431.094000", "182431.097000", "182431.101000", "182431.104000", "182511.013000", "182511.016000", "182511.019000", "182511.022000", "182511.025000", "182511.028000", "182511.031000", "182511.034000", "182511.037000", "182511.040000", "182511.043000", "182511.046000", "182511.049000", "182511.052000", "182511.055000", "182511.058000", "182511.061000", "182511.064000", "182511.067000", "182511.070000", "182511.073000", "182511.076000", "182511.079000", "182511.082000", "182511.085000", "182511.088000", "182511.091000", "182551.013000", "182551.016000", "182551.019000", "182551.022000", "182551.025000", "182551.028000", "182551.031000", "182551.034000", "182551.037000", "182551.040000", "182551.043000", "182551.046000", "182551.049000", "182551.052000", "182551.055000", "182551.058000", "182551.062000", "182551.065000", "182551.068000", "182551.071000", "182551.074000", "182551.077000", "182551.080000", "182551.083000", "182551.086000", "182551.088000", "182551.091000", "182631.013000", "182631.016000", "182631.019000", "182631.022000", "182631.026000", "182631.029000", "182631.032000", "182631.044000", "182631.047000", "182631.050000", "182631.053000", "182631.056000", "182631.059000", "182631.062000", "182631.065000", "182631.068000", "182631.080000", "182631.083000", "182631.086000", "182631.089000", "182631.092000", "182631.095000", "182631.098000", "182631.101000", "182631.104000", "182631.107000", "182631.110000", "182711.013000", "182711.016000", "182711.019000", "182711.022000", "182711.025000", "182711.028000", "182711.031000", "182711.034000", "182711.037000", "182711.040000", "182711.043000", "182711.047000", "182711.050000", "182711.053000", "182711.056000", "182711.059000", "182711.062000", "182711.065000", "182711.068000", "182711.071000", "182711.074000", "182711.077000", "182711.080000", "182711.083000", "182711.086000", "182711.089000", "182711.092000", "182751.014000", "182751.017000", "182751.020000", "182751.023000", "182751.026000", "182751.029000", "182751.032000", "182751.035000", "182751.038000", "182751.041000", "182751.044000", "182751.047000", "182751.050000", "182751.053000", "182751.056000", "182751.059000", "182751.062000", "182751.065000", "182751.068000", "182751.071000", "182751.074000", "182751.077000", "182751.080000", "182751.083000", "182751.086000", "182751.089000", "182751.092000", "182831.013000", "182831.016000", "182831.019000", "182831.022000", "182831.025000", "182831.028000", "182831.031000", "182831.034000", "182831.037000", "182831.040000", "182831.043000", "182831.046000", "182831.049000", "182831.052000", "182831.055000", "182831.058000", "182831.061000", "182831.064000", "182831.067000", "182831.070000", "182831.073000", "182831.076000", "182831.079000", "182831.082000", "182831.085000", "182831.088000", "182831.091000", "182911.013000", "182911.016000", "182911.019000", "182911.022000", "182911.025000", "182911.028000", "182911.031000", "182911.034000", "182911.037000", "182911.040000", "182911.044000", "182911.047000", "182911.051000", "182911.054000", "182911.057000", "182911.060000", "182911.063000", "182911.066000", "182911.069000", "182911.072000", "182911.075000", "182911.078000", "182911.081000", "182911.084000", "182911.087000", "182911.090000", "182931.013000", "182931.017000", "182931.020000", "182931.023000", "182931.034000", "182931.037000", "182931.040000", "182931.043000", "182931.047000", "182931.050000", "182931.053000", "182931.056000", "182931.059000", "182931.062000", "183011.014000", "183011.017000", "183011.020000", "183011.023000", "183011.034000", "183011.037000", "183011.040000", "183011.043000", "183011.046000", "183011.049000", "183011.052000", "183011.055000", "183011.058000", "183011.061000", "183011.064000", "183011.068000", "183011.071000", "183011.074000", "183011.077000", "183011.080000", "183011.083000", "183011.086000", "183011.089000", "183011.092000", "183011.095000", "183011.098000", "183011.101000", "183051.013000", "183051.016000", "183051.019000", "183051.022000", "183051.025000", "183051.028000", "183051.031000", "183051.034000", "183051.037000", "183051.040000", "183051.043000", "183051.046000", "183051.049000", "183051.052000", "183051.055000", "183051.059000", "183051.062000", "183051.064000", "183051.067000", "183051.071000", "183051.074000", "183051.077000", "183051.080000", "183051.083000", "183051.086000", "183051.089000", "183123.845000", "183123.848000", "183123.851000", "183123.854000", "183123.857000", "183123.861000", "183123.864000", "183123.867000", "183123.870000", "183123.873000", "183123.876000", "183123.879000", "183123.882000", "183123.886000", "183123.889000", "183123.892000", "183123.895000", "183123.898000", "183123.901000", "183123.904000", "183123.907000", "183123.911000", "183123.914000"],
