{
  "AcquisitionMatrixPE": 104,
  "AcquisitionNumber": 1,
  "AcquisitionTime": "17:31:7.040000",
  "BandwidthPerPixelPhaseEncode": 17.17,
  "BaseResolution": 104,
  "BodyPartExamined": "BRAIN",
  "CoilString": "HC1-7;NC1_2",
  "ConsistencyInfo": "N4_VE11C_LATEST_20160120",
  "ConversionSoftware": "dcm2niix",
  "ConversionSoftwareVersion": "v1.0.20190902",
  "DerivedVendorReportedEchoSpacing": 0.000560011,
  "DeviceSerialNumber": "167006",
  "DwellTime": 2.1e-06,
  "EchoTime": 0.037,
  "EchoTrainLength": 104,
  "EffectiveEchoSpacing": 0.000560011,
  "FlipAngle": 52,
  "ImageComments": "Unaliased_MB4_PE3_LB",
  "ImageOrientationPatientDICOM": [0.999717, -0.0227817, 0.0068638, 0.0237343, 0.934538, -0.355072],
  "ImageType": [
    "ORIGINAL",
    "PRIMARY",
    "M",
    "MB",
    "ND",
    "MOSAIC"
],
  "ImagingFrequency": 123.259,
  "InPlanePhaseEncodingDirectionDICOM": "COL",
  "InstitutionAddress": "Chemin_Queen-Mary_4565_Montreal_District_CA_H3W_1W5",
  "InstitutionName": "IUGM",
  "InstitutionalDepartmentName": "Department",
  "MRAcquisitionType": "2D",
  "MagneticFieldStrength": 3,
  "Manufacturer": "Siemens",
  "ManufacturersModelName": "Prisma_fit",
  "Modality": "MR",
  "MultibandAccelerationFactor": 4,
  "PartialFourier": 1,
  "PatientPosition": "HFS",
  "PercentPhaseFOV": 100,
  "PhaseEncodingDirection": "j",
  "PhaseEncodingSteps": 104,
  "PhaseResolution": 1,
  "PixelBandwidth": 2290,
  "ProcedureStepDescription": "video_friends",
  "ProtocolName": "func_task-friends-s03e18b",
  "PulseSequenceDetails": "%CustomerSeq%_cmrr_mbep2d_bold",
  "ReceiveCoilActiveElements": "HC1-7;NC1,2",
  "ReceiveCoilName": "HeadNeck_64",
  "ReconMatrixPE": 104,
  "RepetitionTime": 1.49,
  "SAR": 0.0346326,
  "ScanOptions": "FS",
  "ScanningSequence": "EP",
  "SequenceName": "epfid2d1_104",
  "SequenceVariant": "SK_SS",
  "SeriesDescription": "func_task-friends-s03e18b",
  "SeriesNumber": 19,
  "ShimSetting": [613, -7284, -8832, 394, 1, -469, 73, 16],
  "SliceThickness": 2,
  "SliceTiming": [0, 0.785, 0.0975, 0.8825, 0.1975, 0.98, 0.295, 1.0775, 0.3925, 1.175, 0.49, 1.275, 0.5875, 1.3725, 0.685, 0, 0.785, 0.0975, 0.8825, 0.1975, 0.98, 0.295, 1.0775, 0.3925, 1.175, 0.49, 1.275, 0.5875, 1.3725, 0.685, 0, 0.785, 0.0975, 0.8825, 0.1975, 0.98, 0.295, 1.0775, 0.3925, 1.175, 0.49, 1.275, 0.5875, 1.3725, 0.685, 0, 0.785, 0.0975, 0.8825, 0.1975, 0.98, 0.295, 1.0775, 0.3925, 1.175, 0.49, 1.275, 0.5875, 1.3725, 0.685],
  "SoftwareVersions": "syngo_MR_E11",
  "SpacingBetweenSlices": 2,
  "StationName": "MRC35049",
  "TaskName": "s03e18b",
  "TotalReadoutTime": 0.0576811,
  "TxRefAmp": 236.749,
  "WipMemBlock": "121a645e-a0aa-4a7a-8c4a-9849dc238eac||Sequence: R016 ve11c/master r/e634e98; Dec 19 2017 11:00:25 by eja",
  "dcmmeta_affine": [
    [-1.9994337558746338, 0.04746852070093155, -0.003349347272887826, 97.39270782470703],
    [0.04556348919868469, 1.8690755367279053, -0.7102681398391724, -71.65325927734375],
    [0.013727596029639244, 0.7101433277130127, 1.869627833366394, -70.07170104980469],
    [0.0, 0.0, 0.0, 1.0]
],
  "dcmmeta_reorient_transform": [
    [0.0, -1.0, 0.0, 103.0],
    [1.0, 0.0, 0.0, 0.0],
    [0.0, 0.0, 1.0, 0.0],
    [0.0, 0.0, 0.0, 1.0]
],
  "dcmmeta_shape": [104, 104, 60, 469],
  "dcmmeta_slice_dim": 2,
  "dcmmeta_version": 0.6,
  "global": {
    "const": {
      "AcquisitionMatrix": [104, 0, 0, 104],
      "AngioFlag": "N",
      "BitsAllocated": 16,
      "BitsStored": 16,
      "BodyPartExamined": "BRAIN",
      "Columns": 832,
      "EchoNumbers": 1,
      "EchoTime": 37.0,
      "EchoTrainLength": 104,
      "FlipAngle": 52.0,
      "HighBit": 15,
      "ImageOrientationPatient": [0.99971690012287, -0.022781744547, 0.00686379808179, 0.02373425956538, 0.93453774549558, -0.3550716648325],
      "ImagePositionPatient": [-847.3544062806, -784.61988362782, 256.56839261584],
      "ImageType": [
        "ORIGINAL",
        "PRIMARY",
        "M",
        "MB",
        "ND",
        "MOSAIC"
],
      "ImagedNucleus": "1H",
      "ImagingFrequency": 123.25897,
      "InPlanePhaseEncodingDirection": "COL",
      "MRAcquisitionType": "2D",
      "MagneticFieldStrength": 3.0,
      "Manufacturer": "SIEMENS",
      "ManufacturerModelName": "Prisma_fit",
      "Modality": "MR",
      "NumberOfAverages": 1.0,
      "NumberOfPhaseEncodingSteps": 104,
      "PercentPhaseFieldOfView": 100.0,
      "PercentSampling": 100.0,
      "PerformedProcedureStepStartTime": "161405.872000",
      "PhotometricInterpretation": "MONOCHROME2",
      "PixelBandwidth": 2290.0,
      "PixelRepresentation": 0,
      "PixelSpacing": [2.0, 2.0],
      "ProtocolName": "func_task-friends-s03e18b",
      "RepetitionTime": 1490.0,
      "Rows": 832,
      "SAR": 0.03463257358688,
      "SamplesPerPixel": 1,
      "ScanOptions": "FS",
      "ScanningSequence": "EP",
      "SequenceName": "epfid2d1_104",
      "SequenceVariant": [
        "SK",
        "SS"
],
      "SeriesDescription": "func_task-friends-s03e18b",
      "SeriesNumber": 19,
      "SeriesTime": "173234.317000",
      "SliceLocation": -40.22058392487,
      "SliceThickness": 2.0,
      "SmallestImagePixelValue": 0,
      "SoftwareVersions": "syngo MR E11",
      "SpacingBetweenSlices": 2.0000000327142,
      "SpecificCharacterSet": "ISO_IR 100",
      "StudyID": "1",
      "StudyTime": "161405.805000",
      "TransmitCoilName": "Body",
      "VariableFlipAngleFlag": "N",
      "WindowCenterWidthExplanation": "Algo1",
      "dBdt": 0.0},
    "slices": {}
  },
  "time": {
    "samples": {
      "AcquisitionNumber": [1, 2, 3, 4, 5, 6, 7, 8, 9, 10, 11, 12, 13, 14, 15, 16, 17, 18, 19, 20, 21, 22, 23, 24, 25, 26, 27, 28, 29, 30, 31, 32, 33, 34, 35, 36, 37, 38, 39, 40, 41, 42, 43, 44, 45, 46, 47, 48, 49, 50, 51, 52, 53, 54, 55, 56, 57, 58, 59, 60, 61, 62, 63, 64, 65, 66, 67, 68, 69, 70, 71, 72, 73, 74, 75, 76, 77, 78, 79, 80, 81, 82, 83, 84, 85, 86, 87, 88, 89, 90, 91, 92, 93, 94, 95, 96, 97, 98, 99, 100, 101, 102, 103, 104, 105, 106, 107, 108, 109, 110, 111, 112, 113, 114, 115, 116, 117, 118, 119, 120, 121, 122, 123, 124, 125, 126, 127, 128, 129, 130, 131, 132, 133, 134, 135, 136, 137, 138, 139, 140, 141, 142, 143, 144, 145, 146, 147, 148, 149, 150, 151, 152, 153, 154, 155, 156, 157, 158, 159, 160, 161, 162, 163, 164, 165, 166, 167, 168, 169, 170, 171, 172, 173, 174, 175, 176, 177, 178, 179, 180, 181, 182, 183, 184, 185, 186, 187, 188, 189, 190, 191, 192, 193, 194, 195, 196, 197, 198, 199, 200, 201, 202, 203, 204, 205, 206, 207, 208, 209, 210, 211, 212, 213, 214, 215, 216, 217, 218, 219, 220, 221, 222, 223, 224, 225, 226, 227, 228, 229, 230, 231, 232, 233, 234, 235, 236, 237, 238, 239, 240, 241, 242, 243, 244, 245, 246, 247, 248, 249, 250, 251, 252, 253, 254, 255, 256, 257, 258, 259, 260, 261, 262, 263, 264, 265, 266, 267, 268, 269, 270, 271, 272, 273, 274, 275, 276, 277, 278, 279, 280, 281, 282, 283, 284, 285, 286, 287, 288, 289, 290, 291, 292, 293, 294, 295, 296, 297, 298, 299, 300, 301, 302, 303, 304, 305, 306, 307, 308, 309, 310, 311, 312, 313, 314, 315, 316, 317, 318, 319, 320, 321, 322, 323, 324, 325, 326, 327, 328, 329, 330, 331, 332, 333, 334, 335, 336, 337, 338, 339, 340, 341, 342, 343, 344, 345, 346, 347, 348, 349, 350, 351, 352, 353, 354, 355, 356, 357, 358, 359, 360, 361, 362, 363, 364, 365, 366, 367, 368, 369, 370, 371, 372, 373, 374, 375, 376, 377, 378, 379, 380, 381, 382, 383, 384, 385, 386, 387, 388, 389, 390, 391, 392, 393, 394, 395, 396, 397, 398, 399, 400, 401, 402, 403, 404, 405, 406, 407, 408, 409, 410, 411, 412, 413, 414, 415, 416, 417, 418, 419, 420, 421, 422, 423, 424, 425, 426, 427, 428, 429, 430, 431, 432, 433, 434, 435, 436, 437, 438, 439, 440, 441, 442, 443, 444, 445, 446, 447, 448, 449, 450, 451, 452, 453, 454, 455, 456, 457, 458, 459, 460, 461, 462, 463, 464, 465, 466, 467, 468, 469],
      "AcquisitionTime": ["173107.040000", "173108.530000", "173110.020000", "173111.510000", "173113.000000", "173114.490000", "173115.980000", "173117.470000", "173118.960000", "173120.450000", "173121.940000", "173123.430000", "173124.920000", "173126.410000", "173127.900000", "173129.390000", "173130.880000", "173132.370000", "173133.860000", "173135.350000", "173136.840000", "173138.330000", "173139.820000", "173141.310000", "173142.800000", "173144.290000", "173145.780000", "173147.270000", "173148.760000", "173150.250000", "173151.740000", "173153.230000", "173154.720000", "173156.210000", "173157.700000", "173159.190000", "173200.680000", "173202.170000", "173203.660000", "173205.150000", "173206.640000", "173208.130000", "173209.620000", "173211.110000", "173212.600000", "173214.090000", "173215.580000", "173217.070000", "173218.560000", "173220.050000", "173221.540000", "173223.030000", "173224.520000", "173226.010000", "173227.500000", "173228.990000", "173230.480000", "173231.970000", "173233.460000", "173234.950000", "173236.440000", "173237.930000", "173239.420000", "173240.910000", "173242.400000", "173243.890000", "173245.380000", "173246.870000", "173248.360000", "173249.850000", "173251.340000", "173252.830000", "173254.320000", "173255.810000", "173257.300000", "173258.790000", "173300.280000", "173301.770000", "173303.260000", "173304.750000", "173306.240000", "173307.730000", "173309.220000", "173310.710000", "173312.200000", "173313.690000", "173315.180000", "173316.670000", "173318.160000", "173319.650000", "173321.140000", "173322.630000", "173324.120000", "173325.610000", "173327.100000", "173328.590000", "173330.080000", "173331.570000", "173333.060000", "173334.550000", "173336.040000", "173337.530000", "173339.020000", "173340.510000", "173342.000000", "173343.490000", "173344.980000", "173346.470000", "173347.960000", "173349.450000", "173350.940000", "173352.430000", "173353.920000", "173355.410000", "173356.900000", "173358.390000", "173359.880000", "173401.370000", "173402.860000", "173404.350000", "173405.840000", "173407.330000", "173408.820000", "173410.310000", "173411.800000", "173413.290000", "173414.780000", "173416.270000", "173417.760000", "173419.250000", "173420.740000", "173422.230000", "173423.720000", "173425.210000", "173426.700000", "173428.190000", "173429.680000", "173431.170000", "173432.660000", "173434.150000", "173435.640000", "173437.130000", "173438.620000", "173440.110000", "173441.600000", "173443.090000", "173444.580000", "173446.070000", "173447.560000", "173449.050000", "173450.540000", "173452.030000", "173453.520000", "173455.010000", "173456.500000", "173457.990000", "173459.480000", "173500.970000", "173502.460000", "173503.950000", "173505.440000", "173506.930000", "173508.420000", "173509.910000", "173511.400000", "173512.890000", "173514.380000", "173515.870000", "173517.360000", "173518.850000", "173520.340000", "173521.830000", "173523.320000", "173524.810000", "173526.300000", "173527.790000", "173529.280000", "173530.770000", "173532.260000", "173533.750000", "173535.240000", "173536.730000", "173538.220000", "173539.710000", "173541.200000", "173542.690000", "173544.180000", "173545.670000", "173547.160000", "173548.650000", "173550.140000", "173551.630000", "173553.120000", "173554.610000", "173556.100000", "173557.590000", "173559.080000", "173600.570000", "173602.060000", "173603.550000", "173605.040000", "173606.530000", "173608.020000", "173609.510000", "173611.000000", "173612.490000", "173613.980000", "173615.470000", "173616.960000", "173618.450000", "173619.940000", "173621.430000", "173622.920000", "173624.410000", "173625.900000", "173627.390000", "173628.880000", "173630.370000", "173631.860000", "173633.350000", "173634.840000", "173636.330000", "173637.820000", "173639.310000", "173640.800000", "173642.290000", "173643.780000", "173645.270000", "173646.760000", "173648.250000", "173649.740000", "173651.230000", "173652.720000", "173654.210000", "173655.700000", "173657.190000", "173658.680000", "173700.170000", "173701.660000", "173703.150000", "173704.640000", "173706.130000", "173707.620000", "173709.110000", "173710.600000", "173712.090000", "173713.580000", "173715.070000", "173716.560000", "173718.050000", "173719.540000", "173721.030000", "173722.520000", "173724.010000", "173725.500000", "173726.990000", "173728.480000", "173729.970000", "173731.460000", "173732.950000", "173734.440000", "173735.930000", "173737.420000", "173738.910000", "173740.400000", "173741.890000", "173743.380000", "173744.870000", "173746.360000", "173747.850000", "173749.340000", "173750.830000", "173752.320000", "173753.810000", "173755.300000", "173756.790000", "173758.280000", "173759.770000", "173801.260000", "173802.750000", "173804.240000", "173805.730000", "173807.220000", "173808.710000", "173810.200000", "173811.690000", "173813.180000", "173814.670000", "173816.160000", "173817.650000", "173819.140000", "173820.630000", "173822.120000", "173823.610000", "173825.100000", "173826.590000", "173828.080000", "173829.570000", "173831.060000", "173832.550000", "173834.040000", "173835.530000", "173837.020000", "173838.510000", "173840.000000", "173841.490000", "173842.980000", "173844.470000", "173845.960000", "173847.450000", "173848.940000", "173850.430000", "173851.920000", "173853.410000", "173854.900000", "173856.390000", "173857.880000", "173859.370000", "173900.860000", "173902.350000", "173903.840000", "173905.330000", "173906.820000", "173908.310000", "173909.800000", "173911.290000", "173912.780000", "173914.270000", "173915.760000", "173917.250000", "173918.740000", "173920.230000", "173921.720000", "173923.210000", "173924.700000", "173926.190000", "173927.680000", "173929.170000", "173930.660000", "173932.150000", "173933.640000", "173935.130000", "173936.620000", "173938.110000", "173939.600000", "173941.090000", "173942.580000", "173944.070000", "173945.560000", "173947.050000", "173948.540000", "173950.030000", "173951.520000", "173953.010000", "173954.500000", "173955.990000", "173957.480000", "173958.970000", "174000.460000", "174001.950000", "174003.440000", "174004.930000", "174006.420000", "174007.910000", "174009.400000", "174010.890000", "174012.380000", "174013.870000", "174015.360000", "174016.850000", "174018.340000", "174019.830000", "174021.320000", "174022.810000", "174024.300000", "174025.790000", "174027.280000", "174028.770000", "174030.260000", "174031.750000", "174033.240000", "174034.730000", "174036.220000", "174037.710000", "174039.200000", "174040.690000", "174042.180000", "174043.670000", "174045.160000", "174046.650000", "174048.140000", "174049.630000", "174051.120000", "174052.610000", "174054.100000", "174055.590000", "174057.080000", "174058.570000", "174100.060000", "174101.550000", "174103.040000", "174104.530000", "174106.020000", "174107.510000", "174109.000000", "174110.490000", "174111.980000", "174113.470000", "174114.960000", "174116.450000", "174117.940000", "174119.430000", "174120.920000", "174122.410000", "174123.900000", "174125.390000", "174126.880000", "174128.370000", "174129.860000", "174131.350000", "174132.840000", "174134.330000", "174135.820000", "174137.310000", "174138.800000", "174140.290000", "174141.780000", "174143.270000", "174144.760000", "174146.250000", "174147.740000", "174149.230000", "174150.720000", "174152.210000", "174153.700000", "174155.190000", "174156.680000", "174158.170000", "174159.660000", "174201.150000", "174202.640000", "174204.130000", "174205.620000", "174207.110000", "174208.600000", "174210.090000", "174211.580000", "174213.070000", "174214.560000", "174216.050000", "174217.540000", "174219.030000", "174220.520000", "174222.010000", "174223.500000", "174224.990000", "174226.480000", "174227.970000", "174229.460000", "174230.950000", "174232.440000", "174233.930000", "174235.420000", "174236.910000", "174238.400000", "174239.890000", "174241.380000", "174242.870000", "174244.360000"],
      "ContentTime": ["173234.320000", "173234.323000", "173234.326000", "173234.329000", "173234.332000", "173234.335000", "173234.338000", "173234.343000", "173234.346000", "173234.349000", "173234.352000", "173234.355000", "173234.358000", "173234.361000", "173234.364000", "173234.367000", "173234.370000", "173234.373000", "173234.376000", "173234.379000", "173234.382000", "173234.385000", "173234.388000", "173234.391000", "173234.394000", "173234.397000", "173234.399000", "173234.411000", "173234.414000", "173234.417000", "173234.420000", "173234.423000", "173234.426000", "173234.429000", "173234.432000", "173254.289000", "173254.293000", "173254.296000", "173254.300000", "173254.304000", "173254.307000", "173254.310000", "173254.314000", "173254.317000", "173254.321000", "173254.325000", "173254.328000", "173254.332000", "173254.335000", "173254.338000", "173254.342000", "173254.346000", "173254.349000", "173254.352000", "173254.369000", "173314.288000", "173314.291000", "173314.294000", "173314.297000", "173314.300000", "173314.303000", "173314.306000", "173314.309000", "173314.312000", "173314.315000", "173314.318000", "173314.321000", "173314.324000", "173314.327000", "173314.330000", "173314.333000", "173314.336000", "173314.339000", "173314.342000", "173314.345000", "173334.288000", "173334.291000", "173334.304000", "173334.307000", "173334.311000", "173334.314000", "173334.317000", "173334.320000", "173334.323000", "173334.326000", "173334.329000", "173334.332000", "173334.335000", "173334.338000", "173334.341000", "173334.344000", "173334.347000", "173334.350000", "173334.353000", "173334.356000", "173334.359000", "173414.289000", "173414.300000", "173414.303000", "173414.306000", "173414.309000", "173414.312000", "173414.315000", "173414.318000", "173414.321000", "173414.324000", "173414.327000", "173414.330000", "173414.333000", "173414.336000", "173414.339000", "173414.342000", "173414.345000", "173414.348000", "173414.351000", "173414.354000", "173414.357000", "173414.360000", "173414.363000", "173414.381000", "173414.384000", "173414.387000", "173414.390000", "173414.393000", "173414.396000", "173454.289000", "173454.292000", "173454.295000", "173454.298000", "173454.301000", "173454.304000", "173454.307000", "173454.310000", "173454.313000", "173454.316000", "173454.319000", "173454.322000", "173454.325000", "173454.328000", "173454.331000", "173454.334000", "173454.337000", "173454.340000", "173454.343000", "173454.346000", "173454.349000", "173454.352000", "173454.355000", "173454.358000", "173454.361000", "173454.364000", "173454.367000", "173534.288000", "173534.291000", "173534.294000", "173534.297000", "173534.300000", "173534.303000", "173534.306000", "173534.309000", "173534.312000", "173534.315000", "173534.318000", "173534.321000", "173534.324000", "173534.327000", "173534.330000", "173534.333000", "173534.336000", "173534.339000", "173534.342000", "173534.345000", "173534.348000", "173534.351000", "173534.354000", "173534.357000", "173534.360000", "173534.363000", "173534.366000", "173614.289000", "173614.292000", "173614.295000", "173614.298000", "173614.301000", "173614.304000", "173614.307000", "173614.310000", "173614.313000", "173614.317000", "173614.322000", "173614.325000", "173614.328000", "173614.331000", "173614.334000", "173614.337000", "173614.340000", "173614.343000", "173614.346000", "173614.349000", "173614.352000", "173614.355000", "173614.358000", "173614.361000", "173614.364000", "173614.367000", "173654.289000", "173654.292000", "173654.295000", "173654.298000", "173654.301000", "173654.304000", "173654.307000", "173654.310000", "173654.313000", "173654.316000", "173654.319000", "173654.322000", "173654.325000", "173654.328000", "173654.331000", "173654.334000", "173654.337000", "173654.340000", "173654.343000", "173654.346000", "173654.349000", "173654.352000", "173654.355000", "173654.358000", "173654.361000", "173654.364000", "173654.367000", "173734.289000", "173734.292000", "173734.295000", "173734.298000", "173734.301000", "173734.304000", "173734.307000", "173734.310000", "173734.313000", "173734.316000", "173734.320000", "173734.323000", "173734.325000", "173734.328000", "173734.332000", "173734.335000", "173734.338000", "173734.341000", "173734.344000", "173734.354000", "173734.357000", "173734.360000", "173734.363000", "173734.366000", "173734.369000", "173734.372000", "173734.375000", "173814.288000", "173814.291000", "173814.294000", "173814.297000", "173814.300000", "173814.303000", "173814.306000", "173814.309000", "173814.312000", "173814.315000", "173814.318000", "173814.321000", "173814.324000", "173814.327000", "173814.330000", "173814.333000", "173814.336000", "173814.339000", "173814.342000", "173814.345000", "173814.348000", "173814.351000", "173814.354000", "173814.357000", "173814.360000", "173814.367000", "173814.370000", "173854.289000", "173854.292000", "173854.295000", "173854.298000", "173854.301000", "173854.304000", "173854.307000", "173854.310000", "173854.313000", "173854.316000", "173854.319000", "173854.322000", "173854.325000", "173854.328000", "173854.331000", "173854.334000", "173854.337000", "173854.340000", "173854.343000", "173854.346000", "173854.349000", "173854.352000", "173854.368000", "173854.371000", "173854.374000", "173854.377000", "173854.380000", "173914.289000", "173914.292000", "173914.295000", "173914.298000", "173914.301000", "173914.304000", "173914.307000", "173914.310000", "173914.313000", "173914.316000", "173914.319000", "173914.322000", "173914.325000", "173954.289000", "173954.292000", "173954.295000", "173954.298000", "173954.301000", "173954.304000", "173954.307000", "173954.310000", "173954.313000", "173954.316000", "173954.319000", "173954.322000", "173954.325000", "173954.328000", "173954.331000", "173954.334000", "173954.337000", "173954.340000", "173954.343000", "173954.346000", "173954.349000", "173954.352000", "173954.355000", "173954.358000", "173954.361000", "173954.364000", "173954.367000", "174034.288000", "174034.291000", "174034.294000", "174034.297000", "174034.300000", "174034.303000", "174034.306000", "174034.309000", "174034.312000", "174034.315000", "174034.318000", "174034.321000", "174034.324000", "174034.327000", "174034.330000", "174034.333000", "174034.336000", "174034.339000", "174034.342000", "174034.345000", "174034.348000", "174034.351000", "174034.354000", "174034.357000", "174034.360000", "174034.363000", "174034.366000", "174114.289000", "174114.292000", "174114.295000", "174114.298000", "174114.301000", "174114.304000", "174114.307000", "174114.310000", "174114.313000", "174114.316000", "174114.319000", "174114.322000", "174114.325000", "174114.328000", "174114.331000", "174114.334000", "174114.337000", "174114.340000", "174114.343000", "174114.346000", "174114.349000", "174114.352000", "174114.355000", "174114.358000", "174114.361000", "174114.364000", "174114.367000", "174154.289000", "174154.292000", "174154.295000", "174154.298000", "174154.301000", "174154.304000", "174154.307000", "174154.310000", "174154.313000", "174154.316000", "174154.319000", "174154.322000", "174154.325000", "174154.332000", "174154.335000", "174154.338000", "174154.341000", "174154.344000", "174154.347000", "174154.350000", "174154.353000", "174154.356000", "174154.359000", "174154.362000", "174154.365000", "174154.368000", "174154.371000", "174234.288000", "174234.291000", "174234.294000", "174234.297000", "174234.300000", "174234.303000", "174234.306000", "174234.309000", "174234.312000", "174234.315000", "174234.318000", "174234.321000", "174234.324000", "174234.327000", "174234.330000", "174234.333000", "174234.336000", "174234.339000", "174234.342000", "174234.345000", "174234.348000", "174234.351000", "174234.354000", "174234.357000", "174234.360000", "174234.363000", "174234.366000", "174246.256000", "174246.260000", "174246.263000", "174246.266000", "174246.269000", "174246.272000", "174246.275000", "174246.278000"],
