{
  "AcquisitionMatrixPE": 104,
  "AcquisitionNumber": 1,
  "AcquisitionTime": "17:07:21.140000",
  "BandwidthPerPixelPhaseEncode": 17.17,
  "BaseResolution": 104,
  "BodyPartExamined": "BRAIN",
  "CoilString": "HC1-7;NC1_2",
  "ConsistencyInfo": "N4_VE11C_LATEST_20160120",
  "ConversionSoftware": "dcm2niix",
  "ConversionSoftwareVersion": "v1.0.20190902",
  "DerivedVendorReportedEchoSpacing": 0.000560011,
  "DeviceSerialNumber": "167006",
  "DwellTime": 2.1e-06,
  "EchoTime": 0.037,
  "EchoTrainLength": 104,
  "EffectiveEchoSpacing": 0.000560011,
  "FlipAngle": 52,
  "ImageComments": "Unaliased_MB4_PE3_LB",
  "ImageOrientationPatientDICOM": [0.999717, -0.0227817, 0.0068638, 0.0237343, 0.934538, -0.355072],
  "ImageType": [
    "ORIGINAL",
    "PRIMARY",
    "M",
    "MB",
    "ND",
    "MOSAIC"
],
  "ImagingFrequency": 123.259,
  "InPlanePhaseEncodingDirectionDICOM": "COL",
  "InstitutionAddress": "Chemin_Queen-Mary_4565_Montreal_District_CA_H3W_1W5",
  "InstitutionName": "IUGM",
  "InstitutionalDepartmentName": "Department",
  "MRAcquisitionType": "2D",
  "MagneticFieldStrength": 3,
  "Manufacturer": "Siemens",
  "ManufacturersModelName": "Prisma_fit",
  "Modality": "MR",
  "MultibandAccelerationFactor": 4,
  "PartialFourier": 1,
  "PatientPosition": "HFS",
  "PercentPhaseFOV": 100,
  "PhaseEncodingDirection": "j",
  "PhaseEncodingSteps": 104,
  "PhaseResolution": 1,
  "PixelBandwidth": 2290,
  "ProcedureStepDescription": "video_friends",
  "ProtocolName": "func_task-friends-s03e17b",
  "PulseSequenceDetails": "%CustomerSeq%_cmrr_mbep2d_bold",
  "ReceiveCoilActiveElements": "HC1-7;NC1,2",
  "ReceiveCoilName": "HeadNeck_64",
  "ReconMatrixPE": 104,
  "RepetitionTime": 1.49,
  "SAR": 0.0346274,
  "ScanOptions": "FS",
  "ScanningSequence": "EP",
  "SequenceName": "epfid2d1_104",
  "SequenceVariant": "SK_SS",
  "SeriesDescription": "func_task-friends-s03e17b",
  "SeriesNumber": 15,
  "ShimSetting": [613, -7284, -8832, 394, 1, -469, 73, 16],
  "SliceThickness": 2,
  "SliceTiming": [0, 0.7825, 0.0975, 0.8825, 0.195, 0.98, 0.2925, 1.0775, 0.3925, 1.175, 0.49, 1.2725, 0.5875, 1.3725, 0.685, 0, 0.7825, 0.0975, 0.8825, 0.195, 0.98, 0.2925, 1.0775, 0.3925, 1.175, 0.49, 1.2725, 0.5875, 1.3725, 0.685, 0, 0.7825, 0.0975, 0.8825, 0.195, 0.98, 0.2925, 1.0775, 0.3925, 1.175, 0.49, 1.2725, 0.5875, 1.3725, 0.685, 0, 0.7825, 0.0975, 0.8825, 0.195, 0.98, 0.2925, 1.0775, 0.3925, 1.175, 0.49, 1.2725, 0.5875, 1.3725, 0.685],
  "SoftwareVersions": "syngo_MR_E11",
  "SpacingBetweenSlices": 2,
  "StationName": "MRC35049",
  "TaskName": "s03e17b",
  "TotalReadoutTime": 0.0576811,
  "TxRefAmp": 236.749,
  "WipMemBlock": "f4ff3348-b890-438b-908c-832fde22acdc||Sequence: R016 ve11c/master r/e634e98; Dec 19 2017 11:00:25 by eja",
  "dcmmeta_affine": [
    [-1.9994337558746338, 0.04746852070093155, -0.003349347272887826, 97.39270782470703],
    [0.04556348919868469, 1.8690755367279053, -0.7102681398391724, -71.65325927734375],
    [0.013727596029639244, 0.7101433277130127, 1.869627833366394, -70.07170104980469],
    [0.0, 0.0, 0.0, 1.0]
],
  "dcmmeta_reorient_transform": [
    [0.0, -1.0, 0.0, 103.0],
    [1.0, 0.0, 0.0, 0.0],
    [0.0, 0.0, 1.0, 0.0],
    [0.0, 0.0, 0.0, 1.0]
],
  "dcmmeta_shape": [104, 104, 60, 453],
  "dcmmeta_slice_dim": 2,
  "dcmmeta_version": 0.6,
  "global": {
    "const": {
      "AcquisitionMatrix": [104, 0, 0, 104],
      "AngioFlag": "N",
      "BitsAllocated": 16,
      "BitsStored": 16,
      "BodyPartExamined": "BRAIN",
      "Columns": 832,
      "EchoNumbers": 1,
      "EchoTime": 37.0,
      "EchoTrainLength": 104,
      "FlipAngle": 52.0,
      "HighBit": 15,
      "ImageOrientationPatient": [0.99971690012287, -0.022781744547, 0.00686379808179, 0.02373425956538, 0.93453774549558, -0.3550716648325],
      "ImagePositionPatient": [-847.3544062806, -784.61988362782, 256.56839261584],
      "ImageType": [
        "ORIGINAL",
        "PRIMARY",
        "M",
        "MB",
        "ND",
        "MOSAIC"
],
      "ImagedNucleus": "1H",
      "ImagingFrequency": 123.258966,
      "InPlanePhaseEncodingDirection": "COL",
      "MRAcquisitionType": "2D",
      "MagneticFieldStrength": 3.0,
      "Manufacturer": "SIEMENS",
      "ManufacturerModelName": "Prisma_fit",
      "Modality": "MR",
      "NumberOfAverages": 1.0,
      "NumberOfPhaseEncodingSteps": 104,
      "PercentPhaseFieldOfView": 100.0,
      "PercentSampling": 100.0,
      "PerformedProcedureStepStartTime": "161405.872000",
      "PhotometricInterpretation": "MONOCHROME2",
      "PixelBandwidth": 2290.0,
      "PixelRepresentation": 0,
      "PixelSpacing": [2.0, 2.0],
      "ProtocolName": "func_task-friends-s03e17b",
      "RepetitionTime": 1490.0,
      "Rows": 832,
      "SAR": 0.03462742285056,
      "SamplesPerPixel": 1,
      "ScanOptions": "FS",
      "ScanningSequence": "EP",
      "SequenceName": "epfid2d1_104",
      "SequenceVariant": [
        "SK",
        "SS"
],
      "SeriesDescription": "func_task-friends-s03e17b",
      "SeriesNumber": 15,
      "SeriesTime": "170851.047000",
      "SliceLocation": -40.22058392487,
      "SliceThickness": 2.0,
      "SmallestImagePixelValue": 0,
      "SoftwareVersions": "syngo MR E11",
      "SpacingBetweenSlices": 2.0000000327142,
      "SpecificCharacterSet": "ISO_IR 100",
      "StudyID": "1",
      "StudyTime": "161405.805000",
      "TransmitCoilName": "Body",
      "VariableFlipAngleFlag": "N",
      "WindowCenterWidthExplanation": "Algo1",
      "dBdt": 0.0},
    "slices": {}
  },
  "time": {
    "samples": {
      "AcquisitionNumber": [1, 2, 3, 4, 5, 6, 7, 8, 9, 10, 11, 12, 13, 14, 15, 16, 17, 18, 19, 20, 21, 22, 23, 24, 25, 26, 27, 28, 29, 30, 31, 32, 33, 34, 35, 36, 37, 38, 39, 40, 41, 42, 43, 44, 45, 46, 47, 48, 49, 50, 51, 52, 53, 54, 55, 56, 57, 58, 59, 60, 61, 62, 63, 64, 65, 66, 67, 68, 69, 70, 71, 72, 73, 74, 75, 76, 77, 78, 79, 80, 81, 82, 83, 84, 85, 86, 87, 88, 89, 90, 91, 92, 93, 94, 95, 96, 97, 98, 99, 100, 101, 102, 103, 104, 105, 106, 107, 108, 109, 110, 111, 112, 113, 114, 115, 116, 117, 118, 119, 120, 121, 122, 123, 124, 125, 126, 127, 128, 129, 130, 131, 132, 133, 134, 135, 136, 137, 138, 139, 140, 141, 142, 143, 144, 145, 146, 147, 148, 149, 150, 151, 152, 153, 154, 155, 156, 157, 158, 159, 160, 161, 162, 163, 164, 165, 166, 167, 168, 169, 170, 171, 172, 173, 174, 175, 176, 177, 178, 179, 180, 181, 182, 183, 184, 185, 186, 187, 188, 189, 190, 191, 192, 193, 194, 195, 196, 197, 198, 199, 200, 201, 202, 203, 204, 205, 206, 207, 208, 209, 210, 211, 212, 213, 214, 215, 216, 217, 218, 219, 220, 221, 222, 223, 224, 225, 226, 227, 228, 229, 230, 231, 232, 233, 234, 235, 236, 237, 238, 239, 240, 241, 242, 243, 244, 245, 246, 247, 248, 249, 250, 251, 252, 253, 254, 255, 256, 257, 258, 259, 260, 261, 262, 263, 264, 265, 266, 267, 268, 269, 270, 271, 272, 273, 274, 275, 276, 277, 278, 279, 280, 281, 282, 283, 284, 285, 286, 287, 288, 289, 290, 291, 292, 293, 294, 295, 296, 297, 298, 299, 300, 301, 302, 303, 304, 305, 306, 307, 308, 309, 310, 311, 312, 313, 314, 315, 316, 317, 318, 319, 320, 321, 322, 323, 324, 325, 326, 327, 328, 329, 330, 331, 332, 333, 334, 335, 336, 337, 338, 339, 340, 341, 342, 343, 344, 345, 346, 347, 348, 349, 350, 351, 352, 353, 354, 355, 356, 357, 358, 359, 360, 361, 362, 363, 364, 365, 366, 367, 368, 369, 370, 371, 372, 373, 374, 375, 376, 377, 378, 379, 380, 381, 382, 383, 384, 385, 386, 387, 388, 389, 390, 391, 392, 393, 394, 395, 396, 397, 398, 399, 400, 401, 402, 403, 404, 405, 406, 407, 408, 409, 410, 411, 412, 413, 414, 415, 416, 417, 418, 419, 420, 421, 422, 423, 424, 425, 426, 427, 428, 429, 430, 431, 432, 433, 434, 435, 436, 437, 438, 439, 440, 441, 442, 443, 444, 445, 446, 447, 448, 449, 450, 451, 452, 453],
      "AcquisitionTime": ["170721.140000", "170722.630000", "170724.120000", "170725.610000", "170727.100000", "170728.590000", "170730.080000", "170731.570000", "170733.060000", "170734.550000", "170736.040000", "170737.530000", "170739.020000", "170740.510000", "170742.000000", "170743.490000", "170744.980000", "170746.470000", "170747.960000", "170749.450000", "170750.940000", "170752.430000", "170753.920000", "170755.410000", "170756.900000", "170758.390000", "170759.880000", "170801.370000", "170802.860000", "170804.350000", "170805.840000", "170807.330000", "170808.820000", "170810.310000", "170811.800000", "170813.290000", "170814.780000", "170816.270000", "170817.760000", "170819.250000", "170820.740000", "170822.230000", "170823.720000", "170825.210000", "170826.700000", "170828.190000", "170829.680000", "170831.170000", "170832.660000", "170834.150000", "170835.640000", "170837.130000", "170838.620000", "170840.110000", "170841.600000", "170843.090000", "170844.580000", "170846.070000", "170847.560000", "170849.050000", "170850.540000", "170852.030000", "170853.520000", "170855.010000", "170856.500000", "170857.990000", "170859.480000", "170900.970000", "170902.460000", "170903.950000", "170905.440000", "170906.930000", "170908.420000", "170909.910000", "170911.400000", "170912.890000", "170914.380000", "170915.870000", "170917.360000", "170918.850000", "170920.340000", "170921.830000", "170923.320000", "170924.810000", "170926.300000", "170927.790000", "170929.280000", "170930.770000", "170932.260000", "170933.750000", "170935.240000", "170936.730000", "170938.220000", "170939.710000", "170941.200000", "170942.690000", "170944.180000", "170945.670000", "170947.160000", "170948.650000", "170950.140000", "170951.630000", "170953.120000", "170954.610000", "170956.100000", "170957.590000", "170959.080000", "171000.570000", "171002.060000", "171003.550000", "171005.040000", "171006.530000", "171008.020000", "171009.510000", "171011.000000", "171012.490000", "171013.980000", "171015.470000", "171016.960000", "171018.450000", "171019.940000", "171021.430000", "171022.920000", "171024.410000", "171025.900000", "171027.390000", "171028.880000", "171030.370000", "171031.860000", "171033.350000", "171034.840000", "171036.330000", "171037.820000", "171039.310000", "171040.800000", "171042.290000", "171043.780000", "171045.270000", "171046.760000", "171048.250000", "171049.740000", "171051.230000", "171052.720000", "171054.210000", "171055.700000", "171057.190000", "171058.680000", "171100.170000", "171101.660000", "171103.150000", "171104.640000", "171106.130000", "171107.620000", "171109.110000", "171110.600000", "171112.090000", "171113.580000", "171115.070000", "171116.560000", "171118.050000", "171119.540000", "171121.030000", "171122.520000", "171124.010000", "171125.500000", "171126.990000", "171128.480000", "171129.970000", "171131.460000", "171132.950000", "171134.440000", "171135.930000", "171137.420000", "171138.910000", "171140.400000", "171141.890000", "171143.380000", "171144.870000", "171146.360000", "171147.850000", "171149.340000", "171150.830000", "171152.320000", "171153.810000", "171155.300000", "171156.790000", "171158.280000", "171159.770000", "171201.260000", "171202.750000", "171204.240000", "171205.730000", "171207.220000", "171208.710000", "171210.200000", "171211.690000", "171213.180000", "171214.670000", "171216.160000", "171217.650000", "171219.140000", "171220.630000", "171222.120000", "171223.610000", "171225.100000", "171226.590000", "171228.080000", "171229.570000", "171231.060000", "171232.550000", "171234.040000", "171235.530000", "171237.020000", "171238.510000", "171240.000000", "171241.490000", "171242.980000", "171244.470000", "171245.960000", "171247.450000", "171248.940000", "171250.430000", "171251.920000", "171253.410000", "171254.900000", "171256.390000", "171257.880000", "171259.370000", "171300.860000", "171302.350000", "171303.840000", "171305.330000", "171306.820000", "171308.310000", "171309.800000", "171311.290000", "171312.780000", "171314.270000", "171315.760000", "171317.250000", "171318.740000", "171320.230000", "171321.720000", "171323.210000", "171324.700000", "171326.190000", "171327.680000", "171329.170000", "171330.660000", "171332.150000", "171333.640000", "171335.130000", "171336.620000", "171338.110000", "171339.600000", "171341.090000", "171342.580000", "171344.070000", "171345.560000", "171347.050000", "171348.540000", "171350.030000", "171351.520000", "171353.010000", "171354.500000", "171355.990000", "171357.480000", "171358.970000", "171400.460000", "171401.950000", "171403.440000", "171404.930000", "171406.420000", "171407.910000", "171409.400000", "171410.890000", "171412.380000", "171413.870000", "171415.360000", "171416.850000", "171418.340000", "171419.830000", "171421.320000", "171422.810000", "171424.300000", "171425.790000", "171427.280000", "171428.770000", "171430.260000", "171431.750000", "171433.240000", "171434.730000", "171436.220000", "171437.710000", "171439.200000", "171440.690000", "171442.180000", "171443.670000", "171445.160000", "171446.650000", "171448.140000", "171449.630000", "171451.120000", "171452.610000", "171454.100000", "171455.590000", "171457.080000", "171458.570000", "171500.060000", "171501.550000", "171503.040000", "171504.530000", "171506.020000", "171507.510000", "171509.000000", "171510.490000", "171511.980000", "171513.470000", "171514.960000", "171516.450000", "171517.940000", "171519.430000", "171520.920000", "171522.410000", "171523.900000", "171525.390000", "171526.880000", "171528.370000", "171529.860000", "171531.350000", "171532.840000", "171534.330000", "171535.820000", "171537.310000", "171538.800000", "171540.290000", "171541.780000", "171543.270000", "171544.760000", "171546.250000", "171547.740000", "171549.230000", "171550.720000", "171552.210000", "171553.700000", "171555.190000", "171556.680000", "171558.170000", "171559.660000", "171601.150000", "171602.640000", "171604.130000", "171605.620000", "171607.110000", "171608.600000", "171610.090000", "171611.580000", "171613.070000", "171614.560000", "171616.050000", "171617.540000", "171619.030000", "171620.520000", "171622.010000", "171623.500000", "171624.990000", "171626.480000", "171627.970000", "171629.460000", "171630.950000", "171632.440000", "171633.930000", "171635.420000", "171636.910000", "171638.400000", "171639.890000", "171641.380000", "171642.870000", "171644.360000", "171645.850000", "171647.340000", "171648.830000", "171650.320000", "171651.810000", "171653.300000", "171654.790000", "171656.280000", "171657.770000", "171659.260000", "171700.750000", "171702.240000", "171703.730000", "171705.220000", "171706.710000", "171708.200000", "171709.690000", "171711.180000", "171712.670000", "171714.160000", "171715.650000", "171717.140000", "171718.630000", "171720.120000", "171721.610000", "171723.100000", "171724.590000", "171726.080000", "171727.570000", "171729.060000", "171730.550000", "171732.040000", "171733.530000", "171735.020000", "171736.510000", "171738.000000", "171739.490000", "171740.980000", "171742.470000", "171743.960000", "171745.450000", "171746.940000", "171748.430000", "171749.920000", "171751.410000", "171752.900000", "171754.390000", "171755.880000", "171757.370000", "171758.860000", "171800.350000", "171801.840000", "171803.330000", "171804.820000", "171806.310000", "171807.800000", "171809.290000", "171810.780000", "171812.270000", "171813.760000", "171815.250000", "171816.740000", "171818.230000", "171819.720000", "171821.210000", "171822.700000", "171824.190000", "171825.680000", "171827.170000", "171828.660000", "171830.150000", "171831.640000", "171833.130000", "171834.620000"],
      "ContentTime": ["170851.050000", "170851.053000", "170851.056000", "170851.059000", "170851.062000", "170851.065000", "170851.068000", "170851.071000", "170851.074000", "170851.077000", "170851.080000", "170851.083000", "170851.086000", "170851.096000", "170851.099000", "170851.102000", "170851.105000", "170851.108000", "170851.111000", "170851.114000", "170851.117000", "170851.120000", "170851.123000", "170851.126000", "170851.129000", "170851.132000", "170851.135000", "170851.138000", "170851.141000", "170851.144000", "170851.147000", "170851.150000", "170851.153000", "170851.156000", "170911.014000", "170911.017000", "170911.020000", "170911.023000", "170911.026000", "170911.029000", "170911.032000", "170911.035000", "170911.038000", "170911.041000", "170911.044000", "170911.047000", "170911.050000", "170911.053000", "170911.056000", "170911.059000", "170911.062000", "170911.065000", "170911.068000", "170911.071000", "170911.074000", "170931.014000", "170931.017000", "170931.020000", "170931.023000", "170931.026000", "170931.029000", "170931.032000", "170931.035000", "170931.038000", "170931.041000", "170931.044000", "170931.047000", "170931.050000", "170931.054000", "170931.057000", "170931.060000", "170931.063000", "170931.066000", "170931.069000", "170931.072000", "170951.013000", "170951.016000", "170951.019000", "170951.022000", "170951.025000", "170951.028000", "170951.031000", "170951.034000", "170951.037000", "170951.040000", "170951.043000", "170951.046000", "170951.049000", "170951.052000", "170951.055000", "170951.058000", "170951.061000", "170951.064000", "170951.067000", "170951.070000", "171031.013000", "171031.016000", "171031.019000", "171031.022000", "171031.025000", "171031.028000", "171031.031000", "171031.034000", "171031.037000", "171031.040000", "171031.043000", "171031.046000", "171031.049000", "171031.052000", "171031.055000", "171031.058000", "171031.061000", "171031.064000", "171031.067000", "171031.070000", "171031.073000", "171031.076000", "171031.079000", "171031.082000", "171031.085000", "171031.088000", "171031.091000", "171031.094000", "171031.097000", "171031.100000", "171031.103000", "171111.014000", "171111.017000", "171111.020000", "171111.023000", "171111.026000", "171111.029000", "171111.032000", "171111.035000", "171111.038000", "171111.041000", "171111.044000", "171111.047000", "171111.050000", "171111.053000", "171111.056000", "171111.059000", "171111.062000", "171111.065000", "171111.068000", "171111.071000", "171111.074000", "171111.077000", "171111.080000", "171111.083000", "171111.086000", "171111.089000", "171111.092000", "171151.013000", "171151.016000", "171151.019000", "171151.022000", "171151.025000", "171151.028000", "171151.031000", "171151.034000", "171151.037000", "171151.040000", "171151.043000", "171151.046000", "171151.049000", "171151.052000", "171151.055000", "171151.058000", "171151.061000", "171151.064000", "171151.067000", "171151.070000", "171151.073000", "171151.076000", "171151.079000", "171151.082000", "171151.085000", "171151.088000", "171151.091000", "171231.013000", "171231.016000", "171231.019000", "171231.022000", "171231.025000", "171231.028000", "171231.031000", "171231.034000", "171231.038000", "171231.041000", "171231.044000", "171231.047000", "171231.050000", "171231.053000", "171231.056000", "171231.059000", "171231.062000", "171231.065000", "171231.068000", "171231.071000", "171231.074000", "171231.077000", "171231.080000", "171231.083000", "171231.086000", "171231.089000", "171231.092000", "171311.013000", "171311.016000", "171311.019000", "171311.022000", "171311.025000", "171311.028000", "171311.031000", "171311.034000", "171311.037000", "171311.040000", "171311.043000", "171311.046000", "171311.049000", "171311.052000", "171311.055000", "171311.058000", "171311.061000", "171311.064000", "171311.067000", "171311.070000", "171311.073000", "171311.076000", "171311.079000", "171311.082000", "171311.085000", "171311.088000", "171311.091000", "171351.014000", "171351.017000", "171351.021000", "171351.024000", "171351.027000", "171351.030000", "171351.033000", "171351.036000", "171351.039000", "171351.042000", "171351.045000", "171351.047000", "171351.050000", "171351.053000", "171351.056000", "171351.059000", "171351.062000", "171351.065000", "171351.068000", "171351.071000", "171351.074000", "171351.077000", "171351.081000", "171351.084000", "171351.087000", "171351.090000", "171431.013000", "171431.016000", "171431.019000", "171431.022000", "171431.025000", "171431.028000", "171431.031000", "171431.034000", "171431.037000", "171431.040000", "171431.043000", "171431.046000", "171431.049000", "171431.052000", "171431.055000", "171431.058000", "171431.061000", "171431.064000", "171431.067000", "171431.070000", "171431.073000", "171431.076000", "171431.079000", "171431.082000", "171431.085000", "171431.088000", "171431.091000", "171511.013000", "171511.016000", "171511.019000", "171511.022000", "171511.025000", "171511.028000", "171511.031000", "171511.046000", "171511.049000", "171511.052000", "171511.055000", "171511.058000", "171511.061000", "171511.064000", "171511.067000", "171511.070000", "171511.073000", "171511.076000", "171511.079000", "171511.082000", "171511.085000", "171511.088000", "171511.091000", "171511.094000", "171511.097000", "171511.100000", "171511.103000", "171551.014000", "171551.017000", "171551.020000", "171551.023000", "171551.026000", "171551.029000", "171551.032000", "171551.035000", "171551.038000", "171551.041000", "171551.044000", "171551.047000", "171551.050000", "171551.053000", "171551.056000", "171551.059000", "171551.062000", "171551.065000", "171551.068000", "171551.071000", "171551.074000", "171551.077000", "171551.080000", "171551.083000", "171551.086000", "171551.089000", "171551.092000", "171631.013000", "171631.016000", "171631.019000", "171631.022000", "171631.025000", "171631.028000", "171631.031000", "171631.034000", "171631.037000", "171631.040000", "171631.043000", "171631.046000", "171631.049000", "171631.052000", "171631.055000", "171631.058000", "171631.062000", "171631.065000", "171631.068000", "171631.070000", "171631.073000", "171631.076000", "171631.079000", "171631.082000", "171631.085000", "171631.088000", "171631.091000", "171711.013000", "171711.016000", "171711.019000", "171711.022000", "171711.025000", "171711.028000", "171711.031000", "171711.034000", "171711.037000", "171711.040000", "171711.043000", "171711.046000", "171711.049000", "171711.052000", "171711.055000", "171711.058000", "171711.061000", "171711.064000", "171711.067000", "171711.070000", "171711.073000", "171711.076000", "171711.079000", "171711.082000", "171711.085000", "171711.088000", "171711.091000", "171751.013000", "171751.016000", "171751.019000", "171751.022000", "171751.025000", "171751.028000", "171751.031000", "171751.034000", "171751.037000", "171751.040000", "171751.043000", "171751.046000", "171751.049000", "171751.052000", "171751.055000", "171751.058000", "171751.061000", "171751.064000", "171751.067000", "171751.070000", "171751.073000", "171751.076000", "171751.079000", "171751.082000", "171751.085000", "171751.088000", "171751.091000", "171831.013000", "171831.016000", "171831.019000", "171831.022000", "171831.025000", "171831.028000", "171831.031000", "171831.034000", "171831.037000", "171831.040000", "171831.043000", "171831.046000", "171831.049000", "171831.052000", "171831.055000", "171831.058000", "171831.061000", "171831.064000", "171831.067000", "171831.070000", "171831.073000", "171831.076000", "171831.081000", "171831.084000", "171831.087000", "171831.090000", "171837.222000", "171837.225000", "171837.228000", "171837.231000", "171837.234000"],
