{
  "AcquisitionMatrixPE": 104,
  "AcquisitionNumber": 1,
  "AcquisitionTime": "16:26:40.430000",
  "BandwidthPerPixelPhaseEncode": 17.17,
  "BaseResolution": 104,
  "BodyPartExamined": "BRAIN",
  "CoilString": "HC1-7;NC1_2",
  "ConsistencyInfo": "N4_VE11C_LATEST_20160120",
  "ConversionSoftware": "dcm2niix",
  "ConversionSoftwareVersion": "v1.0.20190902",
  "DerivedVendorReportedEchoSpacing": 0.000560011,
  "DeviceSerialNumber": "167006",
  "DwellTime": 2.1e-06,
  "EchoTime": 0.037,
  "EchoTrainLength": 104,
  "EffectiveEchoSpacing": 0.000560011,
  "FlipAngle": 52,
  "ImageComments": "Unaliased_MB4_PE3_LB",
  "ImageOrientationPatientDICOM": [0.999078, -0.0428808, 0.00220055, 0.0403018, 0.918845, -0.392556],
  "ImageType": [
    "ORIGINAL",
    "PRIMARY",
    "M",
    "MB",
    "ND",
    "MOSAIC"
],
  "ImagingFrequency": 123.259,
  "InPlanePhaseEncodingDirectionDICOM": "COL",
  "InstitutionAddress": "Chemin_Queen-Mary_4565_Montreal_District_CA_H3W_1W5",
  "InstitutionName": "IUGM",
  "InstitutionalDepartmentName": "Department",
  "MRAcquisitionType": "2D",
  "MagneticFieldStrength": 3,
  "Manufacturer": "Siemens",
  "ManufacturersModelName": "Prisma_fit",
  "Modality": "MR",
  "MultibandAccelerationFactor": 4,
  "PartialFourier": 1,
  "PatientPosition": "HFS",
  "PercentPhaseFOV": 100,
  "PhaseEncodingDirection": "j",
  "PhaseEncodingSteps": 104,
  "PhaseResolution": 1,
  "PixelBandwidth": 2290,
  "ProcedureStepDescription": "video_friends",
  "ProtocolName": "func_task-friends-s05e15b",
  "PulseSequenceDetails": "%CustomerSeq%_cmrr_mbep2d_bold",
  "ReceiveCoilActiveElements": "HC1-7;NC1,2",
  "ReceiveCoilName": "HeadNeck_64",
  "ReconMatrixPE": 104,
  "RepetitionTime": 1.49,
  "SAR": 0.0301418,
  "ScanOptions": "FS",
  "ScanningSequence": "EP",
  "SequenceName": "epfid2d1_104",
  "SequenceVariant": "SK_SS",
  "SeriesDescription": "func_task-friends-s05e15b",
  "SeriesNumber": 11,
  "ShimSetting": [632, -7266, -8860, 594, 23, -270, -68, -2],
  "SliceThickness": 2,
  "SliceTiming": [0, 0.785, 0.1, 0.8825, 0.1975, 0.98, 0.295, 1.08, 0.3925, 1.1775, 0.49, 1.275, 0.59, 1.3725, 0.6875, 0, 0.785, 0.1, 0.8825, 0.1975, 0.98, 0.295, 1.08, 0.3925, 1.1775, 0.49, 1.275, 0.59, 1.3725, 0.6875, 0, 0.785, 0.1, 0.8825, 0.1975, 0.98, 0.295, 1.08, 0.3925, 1.1775, 0.49, 1.275, 0.59, 1.3725, 0.6875, 0, 0.785, 0.1, 0.8825, 0.1975, 0.98, 0.295, 1.08, 0.3925, 1.1775, 0.49, 1.275, 0.59, 1.3725, 0.6875],
  "SoftwareVersions": "syngo_MR_E11",
  "SpacingBetweenSlices": 2,
  "StationName": "MRC35049",
  "TaskName": "s05e15b",
  "TotalReadoutTime": 0.0576811,
  "TxRefAmp": 219.135,
  "WipMemBlock": "24ea5d16-4294-4af7-89fc-718753701e29||Sequence: R016 ve11c/master r/e634e98; Dec 19 2017 11:00:25 by eja",
  "dcmmeta_affine": [
    [-1.9981555938720703, 0.08060359209775925, -0.029622254893183708, 98.77296447753906],
    [0.08576157689094543, 1.8376896381378174, -0.7845646142959595, -74.10015106201172],
    [0.004401107784360647, 0.7851113080978394, 1.8394513130187988, -77.11067199707031],
    [0.0, 0.0, 0.0, 1.0]
],
  "dcmmeta_reorient_transform": [
    [0.0, -1.0, 0.0, 103.0],
    [1.0, 0.0, 0.0, 0.0],
    [0.0, 0.0, 1.0, 0.0],
    [0.0, 0.0, 0.0, 1.0]
],
  "dcmmeta_shape": [104, 104, 60, 477],
  "dcmmeta_slice_dim": 2,
  "dcmmeta_version": 0.6,
  "global": {
    "const": {
      "AcquisitionMatrix": [104, 0, 0, 104],
      "AngioFlag": "N",
      "BitsAllocated": 16,
      "BitsStored": 16,
      "BodyPartExamined": "BRAIN",
      "Columns": 832,
      "EchoNumbers": 1,
      "EchoTime": 37.0,
      "EchoTrainLength": 104,
      "FlipAngle": 52.0,
      "HighBit": 15,
      "ImageOrientationPatient": [0.99907777257769, -0.0428807871186, 0.00220055385944, 0.04030179698663, 0.91884483394416, -0.3925556473849],
      "ImagePositionPatient": [-863.74346358062, -752.88370812891, 287.93429706612],
      "ImageType": [
        "ORIGINAL",
        "PRIMARY",
        "M",
        "MB",
        "ND",
        "MOSAIC"
],
      "ImagedNucleus": "1H",
      "ImagingFrequency": 123.25897,
      "InPlanePhaseEncodingDirection": "COL",
      "MRAcquisitionType": "2D",
      "MagneticFieldStrength": 3.0,
      "Manufacturer": "SIEMENS",
      "ManufacturerModelName": "Prisma_fit",
      "Modality": "MR",
      "NumberOfAverages": 1.0,
      "NumberOfPhaseEncodingSteps": 104,
      "PercentPhaseFieldOfView": 100.0,
      "PercentSampling": 100.0,
      "PerformedProcedureStepStartTime": "160141.614000",
      "PhotometricInterpretation": "MONOCHROME2",
      "PixelBandwidth": 2290.0,
      "PixelRepresentation": 0,
      "PixelSpacing": [2.0, 2.0],
      "ProtocolName": "func_task-friends-s05e15b",
      "RepetitionTime": 1490.0,
      "Rows": 832,
      "SAR": 0.03014177116242,
      "SamplesPerPixel": 1,
      "ScanOptions": "FS",
      "ScanningSequence": "EP",
      "SequenceName": "epfid2d1_104",
      "SequenceVariant": [
        "SK",
        "SS"
],
      "SeriesDescription": "func_task-friends-s05e15b",
      "SeriesNumber": 11,
      "SeriesTime": "162754.249000",
      "SliceLocation": -43.315422693053,
      "SliceThickness": 2.0,
      "SmallestImagePixelValue": 0,
      "SoftwareVersions": "syngo MR E11",
      "SpacingBetweenSlices": 2.000000027123,
      "SpecificCharacterSet": "ISO_IR 100",
      "StudyID": "1",
      "StudyTime": "160141.530000",
      "TransmitCoilName": "Body",
      "VariableFlipAngleFlag": "N",
      "WindowCenterWidthExplanation": "Algo1",
      "dBdt": 0.0},
    "slices": {}
  },
  "time": {
    "samples": {
      "AcquisitionNumber": [1, 2, 3, 4, 5, 6, 7, 8, 9, 10, 11, 12, 13, 14, 15, 16, 17, 18, 19, 20, 21, 22, 23, 24, 25, 26, 27, 28, 29, 30, 31, 32, 33, 34, 35, 36, 37, 38, 39, 40, 41, 42, 43, 44, 45, 46, 47, 48, 49, 50, 51, 52, 53, 54, 55, 56, 57, 58, 59, 60, 61, 62, 63, 64, 65, 66, 67, 68, 69, 70, 71, 72, 73, 74, 75, 76, 77, 78, 79, 80, 81, 82, 83, 84, 85, 86, 87, 88, 89, 90, 91, 92, 93, 94, 95, 96, 97, 98, 99, 100, 101, 102, 103, 104, 105, 106, 107, 108, 109, 110, 111, 112, 113, 114, 115, 116, 117, 118, 119, 120, 121, 122, 123, 124, 125, 126, 127, 128, 129, 130, 131, 132, 133, 134, 135, 136, 137, 138, 139, 140, 141, 142, 143, 144, 145, 146, 147, 148, 149, 150, 151, 152, 153, 154, 155, 156, 157, 158, 159, 160, 161, 162, 163, 164, 165, 166, 167, 168, 169, 170, 171, 172, 173, 174, 175, 176, 177, 178, 179, 180, 181, 182, 183, 184, 185, 186, 187, 188, 189, 190, 191, 192, 193, 194, 195, 196, 197, 198, 199, 200, 201, 202, 203, 204, 205, 206, 207, 208, 209, 210, 211, 212, 213, 214, 215, 216, 217, 218, 219, 220, 221, 222, 223, 224, 225, 226, 227, 228, 229, 230, 231, 232, 233, 234, 235, 236, 237, 238, 239, 240, 241, 242, 243, 244, 245, 246, 247, 248, 249, 250, 251, 252, 253, 254, 255, 256, 257, 258, 259, 260, 261, 262, 263, 264, 265, 266, 267, 268, 269, 270, 271, 272, 273, 274, 275, 276, 277, 278, 279, 280, 281, 282, 283, 284, 285, 286, 287, 288, 289, 290, 291, 292, 293, 294, 295, 296, 297, 298, 299, 300, 301, 302, 303, 304, 305, 306, 307, 308, 309, 310, 311, 312, 313, 314, 315, 316, 317, 318, 319, 320, 321, 322, 323, 324, 325, 326, 327, 328, 329, 330, 331, 332, 333, 334, 335, 336, 337, 338, 339, 340, 341, 342, 343, 344, 345, 346, 347, 348, 349, 350, 351, 352, 353, 354, 355, 356, 357, 358, 359, 360, 361, 362, 363, 364, 365, 366, 367, 368, 369, 370, 371, 372, 373, 374, 375, 376, 377, 378, 379, 380, 381, 382, 383, 384, 385, 386, 387, 388, 389, 390, 391, 392, 393, 394, 395, 396, 397, 398, 399, 400, 401, 402, 403, 404, 405, 406, 407, 408, 409, 410, 411, 412, 413, 414, 415, 416, 417, 418, 419, 420, 421, 422, 423, 424, 425, 426, 427, 428, 429, 430, 431, 432, 433, 434, 435, 436, 437, 438, 439, 440, 441, 442, 443, 444, 445, 446, 447, 448, 449, 450, 451, 452, 453, 454, 455, 456, 457, 458, 459, 460, 461, 462, 463, 464, 465, 466, 467, 468, 469, 470, 471, 472, 473, 474, 475, 476, 477],
      "AcquisitionTime": ["162640.430000", "162641.920000", "162643.410000", "162644.900000", "162646.390000", "162647.880000", "162649.370000", "162650.860000", "162652.350000", "162653.840000", "162655.330000", "162656.820000", "162658.310000", "162659.800000", "162701.290000", "162702.780000", "162704.270000", "162705.760000", "162707.250000", "162708.740000", "162710.230000", "162711.720000", "162713.210000", "162714.700000", "162716.190000", "162717.680000", "162719.170000", "162720.660000", "162722.150000", "162723.640000", "162725.130000", "162726.620000", "162728.110000", "162729.600000", "162731.090000", "162732.580000", "162734.070000", "162735.560000", "162737.050000", "162738.540000", "162740.030000", "162741.520000", "162743.010000", "162744.500000", "162745.990000", "162747.480000", "162748.970000", "162750.460000", "162751.950000", "162753.440000", "162754.930000", "162756.420000", "162757.910000", "162759.400000", "162800.890000", "162802.380000", "162803.870000", "162805.360000", "162806.850000", "162808.340000", "162809.830000", "162811.320000", "162812.810000", "162814.300000", "162815.790000", "162817.280000", "162818.770000", "162820.260000", "162821.750000", "162823.240000", "162824.730000", "162826.220000", "162827.710000", "162829.200000", "162830.690000", "162832.180000", "162833.670000", "162835.160000", "162836.650000", "162838.140000", "162839.630000", "162841.120000", "162842.610000", "162844.100000", "162845.590000", "162847.080000", "162848.570000", "162850.060000", "162851.550000", "162853.040000", "162854.530000", "162856.020000", "162857.510000", "162859.000000", "162900.490000", "162901.980000", "162903.470000", "162904.960000", "162906.450000", "162907.940000", "162909.430000", "162910.920000", "162912.410000", "162913.900000", "162915.390000", "162916.880000", "162918.370000", "162919.860000", "162921.350000", "162922.840000", "162924.330000", "162925.820000", "162927.310000", "162928.800000", "162930.290000", "162931.780000", "162933.270000", "162934.760000", "162936.250000", "162937.740000", "162939.230000", "162940.720000", "162942.210000", "162943.700000", "162945.190000", "162946.680000", "162948.170000", "162949.660000", "162951.150000", "162952.640000", "162954.130000", "162955.620000", "162957.110000", "162958.600000", "163000.090000", "163001.580000", "163003.070000", "163004.560000", "163006.050000", "163007.540000", "163009.030000", "163010.520000", "163012.010000", "163013.500000", "163014.990000", "163016.480000", "163017.970000", "163019.460000", "163020.950000", "163022.440000", "163023.930000", "163025.420000", "163026.910000", "163028.400000", "163029.890000", "163031.380000", "163032.870000", "163034.360000", "163035.850000", "163037.340000", "163038.830000", "163040.320000", "163041.810000", "163043.300000", "163044.790000", "163046.280000", "163047.770000", "163049.260000", "163050.750000", "163052.240000", "163053.730000", "163055.220000", "163056.710000", "163058.200000", "163059.690000", "163101.180000", "163102.670000", "163104.160000", "163105.650000", "163107.140000", "163108.630000", "163110.120000", "163111.610000", "163113.100000", "163114.590000", "163116.080000", "163117.570000", "163119.060000", "163120.550000", "163122.040000", "163123.530000", "163125.020000", "163126.510000", "163128.000000", "163129.490000", "163130.980000", "163132.470000", "163133.960000", "163135.450000", "163136.940000", "163138.430000", "163139.920000", "163141.410000", "163142.900000", "163144.390000", "163145.880000", "163147.370000", "163148.860000", "163150.350000", "163151.840000", "163153.330000", "163154.820000", "163156.310000", "163157.800000", "163159.290000", "163200.780000", "163202.270000", "163203.760000", "163205.250000", "163206.740000", "163208.230000", "163209.720000", "163211.210000", "163212.700000", "163214.190000", "163215.680000", "163217.170000", "163218.660000", "163220.150000", "163221.640000", "163223.130000", "163224.620000", "163226.110000", "163227.600000", "163229.090000", "163230.580000", "163232.070000", "163233.560000", "163235.050000", "163236.540000", "163238.030000", "163239.520000", "163241.010000", "163242.500000", "163243.990000", "163245.480000", "163246.970000", "163248.460000", "163249.950000", "163251.440000", "163252.930000", "163254.420000", "163255.910000", "163257.400000", "163258.890000", "163300.380000", "163301.870000", "163303.360000", "163304.850000", "163306.340000", "163307.830000", "163309.320000", "163310.810000", "163312.300000", "163313.790000", "163315.280000", "163316.770000", "163318.260000", "163319.750000", "163321.240000", "163322.730000", "163324.220000", "163325.710000", "163327.200000", "163328.690000", "163330.180000", "163331.670000", "163333.160000", "163334.650000", "163336.140000", "163337.630000", "163339.120000", "163340.610000", "163342.100000", "163343.590000", "163345.080000", "163346.570000", "163348.060000", "163349.550000", "163351.040000", "163352.530000", "163354.020000", "163355.510000", "163357.000000", "163358.490000", "163359.980000", "163401.470000", "163402.960000", "163404.450000", "163405.940000", "163407.430000", "163408.920000", "163410.410000", "163411.900000", "163413.390000", "163414.880000", "163416.370000", "163417.860000", "163419.350000", "163420.840000", "163422.330000", "163423.820000", "163425.310000", "163426.800000", "163428.290000", "163429.780000", "163431.270000", "163432.760000", "163434.250000", "163435.740000", "163437.230000", "163438.720000", "163440.210000", "163441.700000", "163443.190000", "163444.680000", "163446.170000", "163447.660000", "163449.150000", "163450.640000", "163452.130000", "163453.620000", "163455.110000", "163456.600000", "163458.090000", "163459.580000", "163501.070000", "163502.560000", "163504.050000", "163505.540000", "163507.030000", "163508.520000", "163510.010000", "163511.500000", "163512.990000", "163514.480000", "163515.970000", "163517.460000", "163518.950000", "163520.440000", "163521.930000", "163523.420000", "163524.910000", "163526.400000", "163527.890000", "163529.380000", "163530.870000", "163532.360000", "163533.850000", "163535.340000", "163536.830000", "163538.320000", "163539.810000", "163541.300000", "163542.790000", "163544.280000", "163545.770000", "163547.260000", "163548.750000", "163550.240000", "163551.730000", "163553.220000", "163554.710000", "163556.200000", "163557.690000", "163559.180000", "163600.670000", "163602.160000", "163603.650000", "163605.140000", "163606.630000", "163608.120000", "163609.610000", "163611.100000", "163612.590000", "163614.080000", "163615.570000", "163617.060000", "163618.550000", "163620.040000", "163621.530000", "163623.020000", "163624.510000", "163626.000000", "163627.490000", "163628.980000", "163630.470000", "163631.960000", "163633.450000", "163634.940000", "163636.430000", "163637.920000", "163639.410000", "163640.900000", "163642.390000", "163643.880000", "163645.370000", "163646.860000", "163648.350000", "163649.840000", "163651.330000", "163652.820000", "163654.310000", "163655.800000", "163657.290000", "163658.780000", "163700.270000", "163701.760000", "163703.250000", "163704.740000", "163706.230000", "163707.720000", "163709.210000", "163710.700000", "163712.190000", "163713.680000", "163715.170000", "163716.660000", "163718.150000", "163719.640000", "163721.130000", "163722.620000", "163724.110000", "163725.600000", "163727.090000", "163728.580000", "163730.070000", "163731.560000", "163733.050000", "163734.540000", "163736.030000", "163737.520000", "163739.010000", "163740.500000", "163741.990000", "163743.480000", "163744.970000", "163746.460000", "163747.950000", "163749.440000", "163750.930000", "163752.420000", "163753.910000", "163755.400000", "163756.890000", "163758.380000", "163759.870000", "163801.360000", "163802.850000", "163804.340000", "163805.830000", "163807.320000", "163808.810000", "163810.300000", "163811.790000", "163813.280000", "163814.770000", "163816.260000", "163817.750000", "163819.240000", "163820.730000", "163822.220000", "163823.710000", "163825.200000", "163826.690000", "163828.180000", "163829.670000"],
      "ContentTime": ["162754.255000", "162754.260000", "162754.263000", "162754.266000", "162754.269000", "162754.272000", "162754.275000", "162754.278000", "162754.281000", "162754.284000", "162754.286000", "162754.289000", "162754.292000", "162754.304000", "162754.306000", "162754.309000", "162754.312000", "162754.315000", "162754.318000", "162754.321000", "162754.324000", "162814.194000", "162814.197000", "162814.203000", "162814.206000", "162814.209000", "162814.212000", "162814.215000", "162814.218000", "162814.227000", "162814.230000", "162814.233000", "162814.236000", "162814.239000", "162814.242000", "162814.245000", "162814.248000", "162814.251000", "162814.263000", "162814.265000", "162814.268000", "162834.193000", "162834.196000", "162834.199000", "162834.202000", "162834.209000", "162834.212000", "162834.215000", "162834.218000", "162834.221000", "162834.224000", "162834.227000", "162834.229000", "162834.232000", "162834.235000", "162834.238000", "162834.241000", "162834.244000", "162834.247000", "162834.250000", "162834.252000", "162854.193000", "162854.196000", "162854.199000", "162854.202000", "162854.205000", "162854.208000", "162854.211000", "162854.214000", "162854.217000", "162854.220000", "162854.230000", "162854.233000", "162854.236000", "162854.239000", "162854.242000", "162854.245000", "162854.248000", "162854.251000", "162854.254000", "162854.256000", "162914.194000", "162914.197000", "162914.214000", "162914.216000", "162914.219000", "162914.222000", "162914.225000", "162914.228000", "162914.231000", "162914.234000", "162914.237000", "162914.240000", "162914.243000", "162914.246000", "162914.249000", "162914.251000", "162914.254000", "162914.257000", "162914.260000", "162914.263000", "162954.194000", "162954.197000", "162954.200000", "162954.203000", "162954.206000", "162954.209000", "162954.212000", "162954.215000", "162954.217000", "162954.220000", "162954.223000", "162954.226000", "162954.229000", "162954.232000", "162954.235000", "162954.238000", "162954.241000", "162954.244000", "162954.247000", "162954.249000", "162954.252000", "162954.255000", "162954.258000", "162954.261000", "162954.264000", "162954.267000", "162954.270000", "162954.273000", "163034.194000", "163034.197000", "163034.200000", "163034.203000", "163034.211000", "163034.214000", "163034.216000", "163034.219000", "163034.222000", "163034.225000", "163034.228000", "163034.231000", "163034.234000", "163034.237000", "163034.240000", "163034.243000", "163034.246000", "163034.249000", "163034.252000", "163034.255000", "163034.257000", "163034.260000", "163034.263000", "163034.266000", "163034.269000", "163034.272000", "163034.275000", "163114.193000", "163114.196000", "163114.199000", "163114.202000", "163114.205000", "163114.208000", "163114.211000", "163114.213000", "163114.216000", "163114.219000", "163114.222000", "163114.225000", "163114.228000", "163114.231000", "163114.234000", "163114.237000", "163114.240000", "163114.242000", "163114.245000", "163114.248000", "163114.251000", "163114.254000", "163114.257000", "163114.260000", "163114.263000", "163114.265000", "163114.268000", "163154.194000", "163154.197000", "163154.203000", "163154.206000", "163154.209000", "163154.212000", "163154.215000", "163154.218000", "163154.221000", "163154.224000", "163154.227000", "163154.230000", "163154.233000", "163154.236000", "163154.239000", "163154.242000", "163154.245000", "163154.248000", "163154.251000", "163154.254000", "163154.257000", "163154.260000", "163154.263000", "163154.266000", "163154.269000", "163154.285000", "163154.288000", "163234.214000", "163234.217000", "163234.220000", "163234.223000", "163234.226000", "163234.229000", "163234.232000", "163234.236000", "163234.239000", "163234.242000", "163234.245000", "163234.248000", "163234.251000", "163234.255000", "163234.258000", "163234.260000", "163234.263000", "163234.267000", "163234.270000", "163234.273000", "163234.275000", "163234.279000", "163234.281000", "163234.284000", "163234.287000", "163234.290000", "163234.293000", "163314.193000", "163314.196000", "163314.199000", "163314.202000", "163314.205000", "163314.207000", "163314.210000", "163314.213000", "163314.216000", "163314.219000", "163314.222000", "163314.225000", "163314.235000", "163314.238000", "163314.241000", "163314.243000", "163314.247000", "163314.250000", "163314.252000", "163314.255000", "163314.258000", "163314.261000", "163314.264000", "163314.267000", "163314.270000", "163314.273000", "163314.276000", "163354.194000", "163354.197000", "163354.200000", "163354.203000", "163354.206000", "163354.209000", "163354.212000", "163354.215000", "163354.217000", "163354.220000", "163354.223000", "163354.226000", "163354.229000", "163354.232000", "163354.235000", "163354.238000", "163354.241000", "163354.244000", "163354.247000", "163354.250000", "163354.253000", "163354.256000", "163354.259000", "163354.262000", "163354.265000", "163354.268000", "163354.271000", "163434.194000", "163434.197000", "163434.200000", "163434.203000", "163434.206000", "163434.209000", "163434.212000", "163434.215000", "163434.218000", "163434.221000", "163434.224000", "163434.227000", "163434.230000", "163434.233000", "163434.235000", "163434.238000", "163434.242000", "163434.245000", "163434.247000", "163434.250000", "163434.253000", "163434.256000", "163434.259000", "163434.262000", "163434.265000", "163434.269000", "163514.194000", "163514.197000", "163514.200000", "163514.203000", "163514.206000", "163514.209000", "163514.212000", "163514.215000", "163514.217000", "163514.220000", "163514.223000", "163514.226000", "163514.229000", "163514.232000", "163514.235000", "163514.244000", "163514.247000", "163514.250000", "163514.253000", "163514.256000", "163514.259000", "163514.262000", "163514.265000", "163514.268000", "163514.271000", "163514.274000", "163514.277000", "163554.193000", "163554.196000", "163554.199000", "163554.202000", "163554.205000", "163554.208000", "163554.211000", "163554.214000", "163554.217000", "163554.220000", "163554.223000", "163554.226000", "163554.229000", "163554.232000", "163554.235000", "163554.238000", "163554.241000", "163554.243000", "163554.246000", "163554.249000", "163554.252000", "163554.255000", "163554.258000", "163554.261000", "163554.264000", "163554.267000", "163554.270000", "163634.194000", "163634.197000", "163634.200000", "163634.203000", "163634.206000", "163634.209000", "163634.212000", "163634.224000", "163634.227000", "163634.230000", "163634.233000", "163634.236000", "163634.239000", "163634.242000", "163634.245000", "163634.248000", "163634.251000", "163634.254000", "163634.257000", "163634.259000", "163634.262000", "163634.265000", "163634.268000", "163634.271000", "163634.274000", "163634.277000", "163634.280000", "163714.194000", "163714.197000", "163714.200000", "163714.203000", "163714.206000", "163714.209000", "163714.212000", "163714.215000", "163714.218000", "163714.221000", "163714.224000", "163714.227000", "163714.230000", "163714.232000", "163714.235000", "163714.238000", "163714.241000", "163714.244000", "163714.247000", "163714.250000", "163714.253000", "163714.256000", "163714.259000", "163714.262000", "163714.264000", "163714.268000", "163714.270000", "163754.193000", "163754.196000", "163754.199000", "163754.202000", "163754.205000", "163754.208000", "163754.211000", "163754.214000", "163754.217000", "163754.220000", "163754.223000", "163754.226000", "163754.229000", "163754.232000", "163754.234000", "163754.237000", "163754.240000", "163754.243000", "163754.246000", "163754.249000", "163754.252000", "163754.255000", "163754.258000", "163754.261000", "163754.264000", "163754.267000", "163754.270000", "163831.364000", "163831.367000", "163831.370000", "163831.373000", "163831.376000", "163831.379000", "163831.382000", "163831.385000", "163831.388000", "163831.391000", "163831.394000", "163831.397000", "163831.400000", "163831.403000", "163831.405000", "163831.408000", "163831.411000", "163831.414000", "163831.417000", "163831.420000", "163831.423000", "163831.426000", "163831.429000", "163831.432000", "163831.435000"],
