{
  "AcquisitionMatrixPE": 104,
  "AcquisitionNumber": 1,
  "AcquisitionTime": "18:19:5.750000",
  "BandwidthPerPixelPhaseEncode": 17.17,
  "BaseResolution": 104,
  "BodyPartExamined": "BRAIN",
  "CoilCombinationMethod": "Sum of Squares",
  "ConsistencyInfo": "N4_VE11C_LATEST_20160120",
  "ConversionSoftware": "dcm2niix",
  "ConversionSoftwareVersion": "v1.0.20211006",
  "DerivedVendorReportedEchoSpacing": 0.000560011,
  "DeviceSerialNumber": "167006",
  "DwellTime": 2.1e-06,
  "EchoTime": 0.037,
  "EchoTrainLength": 104,
  "EffectiveEchoSpacing": 0.000560011,
  "FlipAngle": 52,
  "HeudiconvVersion": "0.11.3.post9+gc939bf8",
  "ImageComments": "Unaliased MB4/PE3/LB",
  "ImageOrientationPatientDICOM": [0.999284, 0.0377496, -0.00254051, -0.0364674, 0.9431, -0.330504],
  "ImageOrientationText": "Tra>Cor(-19.3)>Sag(0.6)",
  "ImageType": [
    "ORIGINAL",
    "PRIMARY",
    "M",
    "MB",
    "ND",
    "MOSAIC"
],
  "ImagingFrequency": 123.259,
  "InPlanePhaseEncodingDirectionDICOM": "COL",
  "InstitutionAddress": "Chemin Queen-Mary 4565,Montreal,District,CA,H3W 1W5",
  "InstitutionName": "IUGM",
  "InstitutionalDepartmentName": "Department",
  "MRAcquisitionType": "2D",
  "MagneticFieldStrength": 3,
  "Manufacturer": "Siemens",
  "ManufacturersModelName": "Prisma_fit",
  "MatrixCoilMode": "SENSE",
  "Modality": "MR",
  "MultibandAccelerationFactor": 4,
  "PartialFourier": 1,
  "PatientPosition": "HFS",
  "PercentPhaseFOV": 100,
  "PercentSampling": 100,
  "PhaseEncodingDirection": "j",
  "PhaseEncodingSteps": 104,
  "PhaseResolution": 1,
  "PixelBandwidth": 2290,
  "ProcedureStepDescription": "video^friends",
  "ProtocolName": "func_task-friends-s06e20b",
  "PulseSequenceDetails": "%CustomerSeq%\\cmrr_mbep2d_bold",
  "ReceiveCoilActiveElements": "HC1-7;NC1,2",
  "ReceiveCoilName": "HeadNeck_64",
  "ReconMatrixPE": 104,
  "RepetitionTime": 1.49,
  "SAR": 0.0686476,
  "ScanOptions": "FS",
  "ScanningSequence": "EP",
  "SequenceName": "epfid2d1_104",
  "SequenceVariant": "SK\\SS",
  "SeriesDescription": "func_task-friends-s06e20b",
  "SeriesNumber": 14,
  "ShimSetting": [624, -7196, -8790, 688, 88, -21, -8, -13],
  "SliceThickness": 2,
  "SliceTiming": [0, 0.785, 0.0975, 0.8825, 0.195, 0.98, 0.295, 1.0775, 0.3925, 1.175, 0.49, 1.275, 0.5875, 1.3725, 0.685, 0, 0.785, 0.0975, 0.8825, 0.195, 0.98, 0.295, 1.0775, 0.3925, 1.175, 0.49, 1.275, 0.5875, 1.3725, 0.685, 0, 0.785, 0.0975, 0.8825, 0.195, 0.98, 0.295, 1.0775, 0.3925, 1.175, 0.49, 1.275, 0.5875, 1.3725, 0.685, 0, 0.785, 0.0975, 0.8825, 0.195, 0.98, 0.295, 1.0775, 0.3925, 1.175, 0.49, 1.275, 0.5875, 1.3725, 0.685],
  "SoftwareVersions": "syngo MR E11",
  "SpacingBetweenSlices": 2,
  "StationName": "MRC35049",
  "TaskName": "s06e20b",
  "TotalReadoutTime": 0.0576811,
  "TxRefAmp": 280.911,
  "WipMemBlock": "cd9c1794-800d-4123-b85c-60e57dbc672f||Sequence: R017 ve11c/master r/75a17815+; Jun 28 2022 16:32:11 by eja",
  "dcmmeta_affine": [
    [-1.9985679388046265, -0.07293486595153809, 0.020160887390375137, 105.83870697021484],
    [-0.0754992663860321, 1.886199712753296, -0.6607197523117065, -67.26606750488281],
    [-0.005081021226942539, 0.6610077023506165, 1.88760244846344, -55.50469970703125],
    [0.0, 0.0, 0.0, 1.0]
],
  "dcmmeta_reorient_transform": [
    [0.0, -1.0, 0.0, 103.0],
    [1.0, 0.0, 0.0, 0.0],
    [0.0, 0.0, 1.0, 0.0],
    [0.0, 0.0, 0.0, 1.0]
],
  "dcmmeta_shape": [104, 104, 60, 465],
  "dcmmeta_slice_dim": 2,
  "dcmmeta_version": 0.6,
  "global": {
    "const": {
      "AcquisitionMatrix": [104, 0, 0, 104],
      "AngioFlag": "N",
      "BitsAllocated": 16,
      "BitsStored": 16,
      "BodyPartExamined": "BRAIN",
      "Columns": 832,
      "EchoNumbers": 1,
      "EchoTime": 37.0,
      "EchoTrainLength": 104,
      "FlipAngle": 52.0,
      "HighBit": 15,
      "ImageOrientationPatient": [0.99928399919229, 0.03774963263214, -0.0025405106578, -0.036467432118, 0.94309984880961, -0.3305038601439],
      "ImagePositionPatient": [-799.25687419182, -841.07092467221, 255.03539850165],
      "ImageType": [
        "ORIGINAL",
        "PRIMARY",
        "M",
        "MB",
        "ND",
        "MOSAIC"
],
      "ImagedNucleus": "1H",
      "ImagingFrequency": 123.258801,
      "InPlanePhaseEncodingDirection": "COL",
      "MRAcquisitionType": "2D",
      "MagneticFieldStrength": 3.0,
      "Manufacturer": "SIEMENS",
      "ManufacturerModelName": "Prisma_fit",
      "Modality": "MR",
      "NumberOfAverages": 1.0,
      "NumberOfPhaseEncodingSteps": 104,
      "PercentPhaseFieldOfView": 100.0,
      "PercentSampling": 100.0,
      "PerformedProcedureStepStartTime": "174801.747000",
      "PhotometricInterpretation": "MONOCHROME2",
      "PixelBandwidth": 2290.0,
      "PixelRepresentation": 0,
      "PixelSpacing": [2.0, 2.0],
      "ProtocolName": "func_task-friends-s06e20b",
      "RepetitionTime": 1490.0,
      "Rows": 832,
      "SAR": 0.0686475889182,
      "SamplesPerPixel": 1,
      "ScanOptions": "FS",
      "ScanningSequence": "EP",
      "SequenceName": "epfid2d1_104",
      "SequenceVariant": [
        "SK",
        "SS"
],
      "SeriesDescription": "func_task-friends-s06e20b",
      "SeriesNumber": 14,
      "SeriesTime": "182017.967000",
      "SliceLocation": -29.09649247686,
      "SliceThickness": 2.0,
      "SmallestImagePixelValue": 0,
      "SoftwareVersions": "syngo MR E11",
      "SpacingBetweenSlices": 2.0000000117122,
      "SpecificCharacterSet": "ISO_IR 100",
      "StudyID": "1",
      "StudyTime": "174801.671000",
      "TransmitCoilName": "Body",
      "VariableFlipAngleFlag": "N",
      "WindowCenterWidthExplanation": "Algo1",
      "dBdt": 0.0},
    "slices": {}
  },
  "time": {
    "samples": {
      "AcquisitionNumber": [1, 2, 3, 4, 5, 6, 7, 8, 9, 10, 11, 12, 13, 14, 15, 16, 17, 18, 19, 20, 21, 22, 23, 24, 25, 26, 27, 28, 29, 30, 31, 32, 33, 34, 35, 36, 37, 38, 39, 40, 41, 42, 43, 44, 45, 46, 47, 48, 49, 50, 51, 52, 53, 54, 55, 56, 57, 58, 59, 60, 61, 62, 63, 64, 65, 66, 67, 68, 69, 70, 71, 72, 73, 74, 75, 76, 77, 78, 79, 80, 81, 82, 83, 84, 85, 86, 87, 88, 89, 90, 91, 92, 93, 94, 95, 96, 97, 98, 99, 100, 101, 102, 103, 104, 105, 106, 107, 108, 109, 110, 111, 112, 113, 114, 115, 116, 117, 118, 119, 120, 121, 122, 123, 124, 125, 126, 127, 128, 129, 130, 131, 132, 133, 134, 135, 136, 137, 138, 139, 140, 141, 142, 143, 144, 145, 146, 147, 148, 149, 150, 151, 152, 153, 154, 155, 156, 157, 158, 159, 160, 161, 162, 163, 164, 165, 166, 167, 168, 169, 170, 171, 172, 173, 174, 175, 176, 177, 178, 179, 180, 181, 182, 183, 184, 185, 186, 187, 188, 189, 190, 191, 192, 193, 194, 195, 196, 197, 198, 199, 200, 201, 202, 203, 204, 205, 206, 207, 208, 209, 210, 211, 212, 213, 214, 215, 216, 217, 218, 219, 220, 221, 222, 223, 224, 225, 226, 227, 228, 229, 230, 231, 232, 233, 234, 235, 236, 237, 238, 239, 240, 241, 242, 243, 244, 245, 246, 247, 248, 249, 250, 251, 252, 253, 254, 255, 256, 257, 258, 259, 260, 261, 262, 263, 264, 265, 266, 267, 268, 269, 270, 271, 272, 273, 274, 275, 276, 277, 278, 279, 280, 281, 282, 283, 284, 285, 286, 287, 288, 289, 290, 291, 292, 293, 294, 295, 296, 297, 298, 299, 300, 301, 302, 303, 304, 305, 306, 307, 308, 309, 310, 311, 312, 313, 314, 315, 316, 317, 318, 319, 320, 321, 322, 323, 324, 325, 326, 327, 328, 329, 330, 331, 332, 333, 334, 335, 336, 337, 338, 339, 340, 341, 342, 343, 344, 345, 346, 347, 348, 349, 350, 351, 352, 353, 354, 355, 356, 357, 358, 359, 360, 361, 362, 363, 364, 365, 366, 367, 368, 369, 370, 371, 372, 373, 374, 375, 376, 377, 378, 379, 380, 381, 382, 383, 384, 385, 386, 387, 388, 389, 390, 391, 392, 393, 394, 395, 396, 397, 398, 399, 400, 401, 402, 403, 404, 405, 406, 407, 408, 409, 410, 411, 412, 413, 414, 415, 416, 417, 418, 419, 420, 421, 422, 423, 424, 425, 426, 427, 428, 429, 430, 431, 432, 433, 434, 435, 436, 437, 438, 439, 440, 441, 442, 443, 444, 445, 446, 447, 448, 449, 450, 451, 452, 453, 454, 455, 456, 457, 458, 459, 460, 461, 462, 463, 464, 465],
      "AcquisitionTime": ["181905.750000", "181907.240000", "181908.730000", "181910.220000", "181911.710000", "181913.200000", "181914.690000", "181916.180000", "181917.670000", "181919.160000", "181920.650000", "181922.140000", "181923.630000", "181925.120000", "181926.610000", "181928.100000", "181929.590000", "181931.080000", "181932.570000", "181934.060000", "181935.550000", "181937.040000", "181938.530000", "181940.020000", "181941.510000", "181943.000000", "181944.490000", "181945.980000", "181947.470000", "181948.960000", "181950.450000", "181951.940000", "181953.430000", "181954.920000", "181956.410000", "181957.900000", "181959.390000", "182000.880000", "182002.370000", "182003.860000", "182005.350000", "182006.840000", "182008.330000", "182009.820000", "182011.310000", "182012.800000", "182014.290000", "182015.780000", "182017.270000", "182018.760000", "182020.250000", "182021.740000", "182023.230000", "182024.720000", "182026.210000", "182027.700000", "182029.190000", "182030.680000", "182032.170000", "182033.660000", "182035.150000", "182036.640000", "182038.130000", "182039.620000", "182041.110000", "182042.600000", "182044.090000", "182045.580000", "182047.070000", "182048.560000", "182050.050000", "182051.540000", "182053.030000", "182054.520000", "182056.010000", "182057.500000", "182058.990000", "182100.480000", "182101.970000", "182103.460000", "182104.950000", "182106.440000", "182107.930000", "182109.420000", "182110.910000", "182112.400000", "182113.890000", "182115.380000", "182116.870000", "182118.360000", "182119.850000", "182121.340000", "182122.830000", "182124.320000", "182125.810000", "182127.300000", "182128.790000", "182130.280000", "182131.770000", "182133.260000", "182134.750000", "182136.240000", "182137.730000", "182139.220000", "182140.710000", "182142.200000", "182143.690000", "182145.180000", "182146.670000", "182148.160000", "182149.650000", "182151.140000", "182152.630000", "182154.120000", "182155.610000", "182157.100000", "182158.590000", "182200.080000", "182201.570000", "182203.060000", "182204.550000", "182206.040000", "182207.530000", "182209.020000", "182210.510000", "182212.000000", "182213.490000", "182214.980000", "182216.470000", "182217.960000", "182219.450000", "182220.940000", "182222.430000", "182223.920000", "182225.410000", "182226.900000", "182228.390000", "182229.880000", "182231.370000", "182232.860000", "182234.350000", "182235.840000", "182237.330000", "182238.820000", "182240.310000", "182241.800000", "182243.290000", "182244.780000", "182246.270000", "182247.760000", "182249.250000", "182250.740000", "182252.230000", "182253.720000", "182255.210000", "182256.700000", "182258.190000", "182259.680000", "182301.170000", "182302.660000", "182304.150000", "182305.640000", "182307.130000", "182308.620000", "182310.110000", "182311.600000", "182313.090000", "182314.580000", "182316.070000", "182317.560000", "182319.050000", "182320.540000", "182322.030000", "182323.520000", "182325.010000", "182326.500000", "182327.990000", "182329.480000", "182330.970000", "182332.460000", "182333.950000", "182335.440000", "182336.930000", "182338.420000", "182339.910000", "182341.400000", "182342.890000", "182344.380000", "182345.870000", "182347.360000", "182348.850000", "182350.340000", "182351.830000", "182353.320000", "182354.810000", "182356.300000", "182357.790000", "182359.280000", "182400.770000", "182402.260000", "182403.750000", "182405.240000", "182406.730000", "182408.220000", "182409.710000", "182411.200000", "182412.690000", "182414.180000", "182415.670000", "182417.160000", "182418.650000", "182420.140000", "182421.630000", "182423.120000", "182424.610000", "182426.100000", "182427.590000", "182429.080000", "182430.570000", "182432.060000", "182433.550000", "182435.040000", "182436.530000", "182438.020000", "182439.510000", "182441.000000", "182442.490000", "182443.980000", "182445.470000", "182446.960000", "182448.450000", "182449.940000", "182451.430000", "182452.920000", "182454.410000", "182455.900000", "182457.390000", "182458.880000", "182500.370000", "182501.860000", "182503.350000", "182504.840000", "182506.330000", "182507.820000", "182509.310000", "182510.800000", "182512.290000", "182513.780000", "182515.270000", "182516.760000", "182518.250000", "182519.740000", "182521.230000", "182522.720000", "182524.210000", "182525.700000", "182527.190000", "182528.680000", "182530.170000", "182531.660000", "182533.150000", "182534.640000", "182536.130000", "182537.620000", "182539.110000", "182540.600000", "182542.090000", "182543.580000", "182545.070000", "182546.560000", "182548.050000", "182549.540000", "182551.030000", "182552.520000", "182554.010000", "182555.500000", "182556.990000", "182558.480000", "182559.970000", "182601.460000", "182602.950000", "182604.440000", "182605.930000", "182607.420000", "182608.910000", "182610.400000", "182611.890000", "182613.380000", "182614.870000", "182616.360000", "182617.850000", "182619.340000", "182620.830000", "182622.320000", "182623.810000", "182625.300000", "182626.790000", "182628.280000", "182629.770000", "182631.260000", "182632.750000", "182634.240000", "182635.730000", "182637.220000", "182638.710000", "182640.200000", "182641.690000", "182643.180000", "182644.670000", "182646.160000", "182647.650000", "182649.140000", "182650.630000", "182652.120000", "182653.610000", "182655.100000", "182656.590000", "182658.080000", "182659.570000", "182701.060000", "182702.550000", "182704.040000", "182705.530000", "182707.020000", "182708.510000", "182710.000000", "182711.490000", "182712.980000", "182714.470000", "182715.960000", "182717.450000", "182718.940000", "182720.430000", "182721.920000", "182723.410000", "182724.900000", "182726.390000", "182727.880000", "182729.370000", "182730.860000", "182732.350000", "182733.840000", "182735.330000", "182736.820000", "182738.310000", "182739.800000", "182741.290000", "182742.780000", "182744.270000", "182745.760000", "182747.250000", "182748.740000", "182750.230000", "182751.720000", "182753.210000", "182754.700000", "182756.190000", "182757.680000", "182759.170000", "182800.660000", "182802.150000", "182803.640000", "182805.130000", "182806.620000", "182808.110000", "182809.600000", "182811.090000", "182812.580000", "182814.070000", "182815.560000", "182817.050000", "182818.540000", "182820.030000", "182821.520000", "182823.010000", "182824.500000", "182825.990000", "182827.480000", "182828.970000", "182830.460000", "182831.950000", "182833.440000", "182834.930000", "182836.420000", "182837.910000", "182839.400000", "182840.890000", "182842.380000", "182843.870000", "182845.360000", "182846.850000", "182848.340000", "182849.830000", "182851.320000", "182852.810000", "182854.300000", "182855.790000", "182857.280000", "182858.770000", "182900.260000", "182901.750000", "182903.240000", "182904.730000", "182906.220000", "182907.710000", "182909.200000", "182910.690000", "182912.180000", "182913.670000", "182915.160000", "182916.650000", "182918.140000", "182919.630000", "182921.120000", "182922.610000", "182924.100000", "182925.590000", "182927.080000", "182928.570000", "182930.060000", "182931.550000", "182933.040000", "182934.530000", "182936.020000", "182937.510000", "182939.000000", "182940.490000", "182941.980000", "182943.470000", "182944.960000", "182946.450000", "182947.940000", "182949.430000", "182950.920000", "182952.410000", "182953.900000", "182955.390000", "182956.880000", "182958.370000", "182959.860000", "183001.350000", "183002.840000", "183004.330000", "183005.820000", "183007.310000", "183008.800000", "183010.290000", "183011.780000", "183013.270000", "183014.760000", "183016.250000", "183017.740000", "183019.230000", "183020.720000", "183022.210000", "183023.700000", "183025.190000", "183026.680000", "183028.170000", "183029.660000", "183031.150000", "183032.640000", "183034.130000", "183035.620000", "183037.110000"],
      "ContentTime": ["182017.970000", "182017.985000", "182017.988000", "182017.998000", "182018.001000", "182018.004000", "182018.007000", "182018.010000", "182018.016000", "182018.019000", "182018.021000", "182018.024000", "182018.027000", "182018.036000", "182018.039000", "182018.042000", "182018.046000", "182018.050000", "182018.054000", "182018.057000", "182018.060000", "182018.063000", "182018.066000", "182037.938000", "182037.941000", "182037.944000", "182037.947000", "182037.950000", "182037.952000", "182037.955000", "182037.958000", "182037.961000", "182037.964000", "182037.967000", "182037.970000", "182037.973000", "182037.976000", "182037.978000", "182037.981000", "182037.984000", "182037.990000", "182037.992000", "182037.995000", "182037.998000", "182057.938000", "182057.941000", "182057.944000", "182057.947000", "182057.949000", "182057.952000", "182057.955000", "182057.958000", "182057.961000", "182057.969000", "182057.972000", "182057.975000", "182057.978000", "182057.980000", "182057.983000", "182057.986000", "182057.989000", "182057.992000", "182057.995000", "182057.998000", "182117.938000", "182117.941000", "182117.944000", "182117.947000", "182117.950000", "182117.952000", "182117.955000", "182117.958000", "182117.961000", "182117.964000", "182117.967000", "182117.970000", "182117.973000", "182117.976000", "182117.978000", "182117.981000", "182117.984000", "182117.987000", "182117.990000", "182117.993000", "182157.938000", "182157.941000", "182157.944000", "182157.947000", "182157.950000", "182157.952000", "182157.955000", "182157.966000", "182157.969000", "182157.972000", "182157.975000", "182157.978000", "182157.981000", "182157.984000", "182157.987000", "182157.989000", "182157.992000", "182157.995000", "182157.998000", "182158.002000", "182158.005000", "182158.008000", "182158.011000", "182158.013000", "182158.016000", "182158.020000", "182158.024000", "182158.027000", "182158.030000", "182158.033000", "182237.938000", "182237.941000", "182237.944000", "182237.947000", "182237.958000", "182237.961000", "182237.964000", "182237.967000", "182237.970000", "182237.973000", "182237.976000", "182237.979000", "182237.981000", "182237.984000", "182237.987000", "182237.990000", "182237.993000", "182237.996000", "182237.998000", "182238.002000", "182238.005000", "182238.008000", "182238.011000", "182238.014000", "182238.017000", "182238.020000", "182238.023000", "182317.938000", "182317.941000", "182317.944000", "182317.947000", "182317.950000", "182317.953000", "182317.956000", "182317.959000", "182317.961000", "182317.964000", "182317.967000", "182317.970000", "182317.973000", "182317.976000", "182317.979000", "182317.981000", "182317.984000", "182317.987000", "182317.990000", "182318.002000", "182318.005000", "182318.008000", "182318.010000", "182318.013000", "182318.016000", "182318.019000", "182318.022000", "182357.938000", "182357.941000", "182357.944000", "182357.947000", "182357.950000", "182357.953000", "182357.956000", "182357.959000", "182357.961000", "182357.964000", "182357.967000", "182357.970000", "182357.973000", "182357.976000", "182357.979000", "182357.981000", "182357.984000", "182357.987000", "182357.990000", "182357.993000", "182357.996000", "182358.000000", "182358.003000", "182358.005000", "182358.008000", "182358.011000", "182358.014000", "182437.938000", "182437.941000", "182437.955000", "182437.958000", "182437.961000", "182437.964000", "182437.967000", "182437.970000", "182437.973000", "182437.975000", "182437.978000", "182437.981000", "182437.984000", "182437.987000", "182437.990000", "182437.993000", "182437.996000", "182438.000000", "182438.003000", "182438.006000", "182438.009000", "182438.011000", "182438.014000", "182438.017000", "182438.020000", "182438.023000", "182438.026000", "182517.938000", "182517.941000", "182517.944000", "182517.947000", "182517.950000", "182517.953000", "182517.956000", "182517.959000", "182517.961000", "182517.971000", "182517.974000", "182517.976000", "182517.979000", "182517.982000", "182517.985000", "182517.988000", "182517.991000", "182517.994000", "182517.997000", "182518.001000", "182518.004000", "182518.007000", "182518.010000", "182518.013000", "182518.016000", "182518.019000", "182518.022000", "182557.938000", "182557.956000", "182557.959000", "182557.962000", "182557.965000", "182557.968000", "182557.971000", "182557.973000", "182557.976000", "182557.979000", "182557.982000", "182557.985000", "182557.988000", "182557.991000", "182557.994000", "182557.997000", "182558.001000", "182558.004000", "182558.007000", "182558.010000", "182558.012000", "182558.016000", "182558.018000", "182558.021000", "182558.024000", "182558.027000", "182558.030000", "182637.938000", "182637.941000", "182637.944000", "182637.947000", "182637.950000", "182637.953000", "182637.956000", "182637.958000", "182637.961000", "182637.964000", "182637.967000", "182637.970000", "182637.973000", "182637.976000", "182637.979000", "182637.981000", "182637.984000", "182637.987000", "182637.990000", "182637.993000", "182637.996000", "182638.000000", "182638.003000", "182638.006000", "182638.008000", "182638.011000", "182717.939000", "182717.942000", "182717.945000", "182717.948000", "182717.951000", "182717.954000", "182717.957000", "182717.959000", "182717.962000", "182717.965000", "182717.968000", "182717.971000", "182717.974000", "182717.984000", "182717.987000", "182717.990000", "182717.992000", "182717.995000", "182717.998000", "182718.001000", "182718.004000", "182718.007000", "182718.010000", "182718.013000", "182718.016000", "182718.019000", "182718.021000", "182757.938000", "182757.941000", "182757.944000", "182757.947000", "182757.950000", "182757.953000", "182757.956000", "182757.959000", "182757.961000", "182757.964000", "182757.967000", "182757.970000", "182757.973000", "182757.976000", "182757.979000", "182757.982000", "182757.984000", "182757.987000", "182757.990000", "182758.006000", "182758.009000", "182758.012000", "182758.015000", "182758.018000", "182758.021000", "182758.023000", "182758.027000", "182837.938000", "182837.941000", "182837.944000", "182837.947000", "182837.950000", "182837.953000", "182837.956000", "182837.959000", "182837.961000", "182837.964000", "182837.967000", "182837.970000", "182837.973000", "182837.976000", "182837.979000", "182837.982000", "182837.984000", "182837.987000", "182837.990000", "182837.993000", "182837.996000", "182838.000000", "182838.003000", "182838.006000", "182838.009000", "182838.012000", "182838.015000", "182917.938000", "182917.941000", "182917.944000", "182917.947000", "182917.950000", "182917.953000", "182917.956000", "182917.958000", "182917.961000", "182917.964000", "182917.967000", "182917.970000", "182917.973000", "182917.976000", "182917.979000", "182917.982000", "182917.985000", "182917.987000", "182917.990000", "182917.993000", "182917.996000", "182918.000000", "182918.003000", "182918.006000", "182918.009000", "182918.011000", "182918.014000", "182957.938000", "182957.941000", "182957.944000", "182957.947000", "182957.950000", "182957.953000", "182957.956000", "182957.959000", "182957.962000", "182957.965000", "182957.968000", "182957.970000", "182957.973000", "182957.976000", "182957.979000", "182957.982000", "182957.985000", "182957.988000", "182957.991000", "182957.994000", "182957.996000", "182958.000000", "182958.003000", "182958.006000", "182958.009000", "182958.012000", "182958.015000", "183037.938000", "183037.959000", "183037.962000", "183037.964000", "183037.967000", "183037.970000", "183037.973000", "183037.976000", "183037.979000", "183037.982000", "183037.985000", "183037.988000", "183037.990000", "183037.993000", "183037.996000", "183038.000000", "183038.003000", "183038.006000", "183038.009000", "183038.012000", "183038.015000", "183038.018000", "183038.020000", "183038.024000", "183038.027000", "183038.030000", "183039.569000", "183039.572000"],
