{
  "AcquisitionMatrixPE": 104,
  "AcquisitionNumber": 1,
  "AcquisitionTime": "18:07:53.570000",
  "BandwidthPerPixelPhaseEncode": 17.17,
  "BaseResolution": 104,
  "BodyPartExamined": "BRAIN",
  "CoilCombinationMethod": "Sum of Squares",
  "ConsistencyInfo": "N4_VE11C_LATEST_20160120",
  "ConversionSoftware": "dcm2niix",
  "ConversionSoftwareVersion": "v1.0.20211006",
  "DerivedVendorReportedEchoSpacing": 0.000560011,
  "DeviceSerialNumber": "167006",
  "DwellTime": 2.1e-06,
  "EchoTime": 0.037,
  "EchoTrainLength": 104,
  "EffectiveEchoSpacing": 0.000560011,
  "FlipAngle": 52,
  "HeudiconvVersion": "0.11.3.post9+gc939bf8",
  "ImageComments": "Unaliased MB4/PE3/LB",
  "ImageOrientationPatientDICOM": [0.999284, 0.0377496, -0.00254051, -0.0364674, 0.9431, -0.330504],
  "ImageOrientationText": "Tra>Cor(-19.3)>Sag(0.6)",
  "ImageType": [
    "ORIGINAL",
    "PRIMARY",
    "M",
    "MB",
    "ND",
    "MOSAIC"
],
  "ImagingFrequency": 123.259,
  "InPlanePhaseEncodingDirectionDICOM": "COL",
  "InstitutionAddress": "Chemin Queen-Mary 4565,Montreal,District,CA,H3W 1W5",
  "InstitutionName": "IUGM",
  "InstitutionalDepartmentName": "Department",
  "MRAcquisitionType": "2D",
  "MagneticFieldStrength": 3,
  "Manufacturer": "Siemens",
  "ManufacturersModelName": "Prisma_fit",
  "MatrixCoilMode": "SENSE",
  "Modality": "MR",
  "MultibandAccelerationFactor": 4,
  "PartialFourier": 1,
  "PatientPosition": "HFS",
  "PercentPhaseFOV": 100,
  "PercentSampling": 100,
  "PhaseEncodingDirection": "j",
  "PhaseEncodingSteps": 104,
  "PhaseResolution": 1,
  "PixelBandwidth": 2290,
  "ProcedureStepDescription": "video^friends",
  "ProtocolName": "func_task-friends-s06e20a",
  "PulseSequenceDetails": "%CustomerSeq%\\cmrr_mbep2d_bold",
  "ReceiveCoilActiveElements": "HC1-7;NC1,2",
  "ReceiveCoilName": "HeadNeck_64",
  "ReconMatrixPE": 104,
  "RepetitionTime": 1.49,
  "SAR": 0.0686476,
  "ScanOptions": "FS",
  "ScanningSequence": "EP",
  "SequenceName": "epfid2d1_104",
  "SequenceVariant": "SK\\SS",
  "SeriesDescription": "func_task-friends-s06e20a",
  "SeriesNumber": 12,
  "ShimSetting": [624, -7196, -8790, 688, 88, -21, -8, -13],
  "SliceThickness": 2,
  "SliceTiming": [0, 0.785, 0.0975, 0.8825, 0.1975, 0.98, 0.295, 1.0775, 0.3925, 1.1775, 0.49, 1.275, 0.5875, 1.3725, 0.6875, 0, 0.785, 0.0975, 0.8825, 0.1975, 0.98, 0.295, 1.0775, 0.3925, 1.1775, 0.49, 1.275, 0.5875, 1.3725, 0.6875, 0, 0.785, 0.0975, 0.8825, 0.1975, 0.98, 0.295, 1.0775, 0.3925, 1.1775, 0.49, 1.275, 0.5875, 1.3725, 0.6875, 0, 0.785, 0.0975, 0.8825, 0.1975, 0.98, 0.295, 1.0775, 0.3925, 1.1775, 0.49, 1.275, 0.5875, 1.3725, 0.6875],
  "SoftwareVersions": "syngo MR E11",
  "SpacingBetweenSlices": 2,
  "StationName": "MRC35049",
  "TaskName": "s06e20a",
  "TotalReadoutTime": 0.0576811,
  "TxRefAmp": 280.911,
  "WipMemBlock": "a6238a6d-14ce-41a5-812d-bd0a5e57b955||Sequence: R017 ve11c/master r/75a17815+; Jun 28 2022 16:32:11 by eja",
  "dcmmeta_affine": [
    [-1.9985679388046265, -0.07293486595153809, 0.020160887390375137, 105.83870697021484],
    [-0.0754992663860321, 1.886199712753296, -0.6607197523117065, -67.26606750488281],
    [-0.005081021226942539, 0.6610077023506165, 1.88760244846344, -55.50469970703125],
    [0.0, 0.0, 0.0, 1.0]
],
  "dcmmeta_reorient_transform": [
    [0.0, -1.0, 0.0, 103.0],
    [1.0, 0.0, 0.0, 0.0],
    [0.0, 0.0, 1.0, 0.0],
    [0.0, 0.0, 0.0, 1.0]
],
  "dcmmeta_shape": [104, 104, 60, 431],
  "dcmmeta_slice_dim": 2,
  "dcmmeta_version": 0.6,
  "global": {
    "const": {
      "AcquisitionMatrix": [104, 0, 0, 104],
      "AngioFlag": "N",
      "BitsAllocated": 16,
      "BitsStored": 16,
      "BodyPartExamined": "BRAIN",
      "Columns": 832,
      "EchoNumbers": 1,
      "EchoTime": 37.0,
      "EchoTrainLength": 104,
      "FlipAngle": 52.0,
      "HighBit": 15,
      "ImageOrientationPatient": [0.99928399919229, 0.03774963263214, -0.0025405106578, -0.036467432118, 0.94309984880961, -0.3305038601439],
      "ImagePositionPatient": [-799.25687419182, -841.07092467221, 255.03539850165],
      "ImageType": [
        "ORIGINAL",
        "PRIMARY",
        "M",
        "MB",
        "ND",
        "MOSAIC"
],
      "ImagedNucleus": "1H",
      "ImagingFrequency": 123.258789,
      "InPlanePhaseEncodingDirection": "COL",
      "MRAcquisitionType": "2D",
      "MagneticFieldStrength": 3.0,
      "Manufacturer": "SIEMENS",
      "ManufacturerModelName": "Prisma_fit",
      "Modality": "MR",
      "NumberOfAverages": 1.0,
      "NumberOfPhaseEncodingSteps": 104,
      "PercentPhaseFieldOfView": 100.0,
      "PercentSampling": 100.0,
      "PerformedProcedureStepStartTime": "174801.747000",
      "PhotometricInterpretation": "MONOCHROME2",
      "PixelBandwidth": 2290.0,
      "PixelRepresentation": 0,
      "PixelSpacing": [2.0, 2.0],
      "ProtocolName": "func_task-friends-s06e20a",
      "RepetitionTime": 1490.0,
      "Rows": 832,
      "SAR": 0.06864759153222,
      "SamplesPerPixel": 1,
      "ScanOptions": "FS",
      "ScanningSequence": "EP",
      "SequenceName": "epfid2d1_104",
      "SequenceVariant": [
        "SK",
        "SS"
],
      "SeriesDescription": "func_task-friends-s06e20a",
      "SeriesNumber": 12,
      "SeriesTime": "180854.537000",
      "SliceLocation": -29.09649247686,
      "SliceThickness": 2.0,
      "SmallestImagePixelValue": 0,
      "SoftwareVersions": "syngo MR E11",
      "SpacingBetweenSlices": 2.0000000117122,
      "SpecificCharacterSet": "ISO_IR 100",
      "StudyID": "1",
      "StudyTime": "174801.671000",
      "TransmitCoilName": "Body",
      "VariableFlipAngleFlag": "N",
      "WindowCenterWidthExplanation": "Algo1",
      "dBdt": 0.0},
    "slices": {}
  },
  "time": {
    "samples": {
      "AcquisitionNumber": [1, 2, 3, 4, 5, 6, 7, 8, 9, 10, 11, 12, 13, 14, 15, 16, 17, 18, 19, 20, 21, 22, 23, 24, 25, 26, 27, 28, 29, 30, 31, 32, 33, 34, 35, 36, 37, 38, 39, 40, 41, 42, 43, 44, 45, 46, 47, 48, 49, 50, 51, 52, 53, 54, 55, 56, 57, 58, 59, 60, 61, 62, 63, 64, 65, 66, 67, 68, 69, 70, 71, 72, 73, 74, 75, 76, 77, 78, 79, 80, 81, 82, 83, 84, 85, 86, 87, 88, 89, 90, 91, 92, 93, 94, 95, 96, 97, 98, 99, 100, 101, 102, 103, 104, 105, 106, 107, 108, 109, 110, 111, 112, 113, 114, 115, 116, 117, 118, 119, 120, 121, 122, 123, 124, 125, 126, 127, 128, 129, 130, 131, 132, 133, 134, 135, 136, 137, 138, 139, 140, 141, 142, 143, 144, 145, 146, 147, 148, 149, 150, 151, 152, 153, 154, 155, 156, 157, 158, 159, 160, 161, 162, 163, 164, 165, 166, 167, 168, 169, 170, 171, 172, 173, 174, 175, 176, 177, 178, 179, 180, 181, 182, 183, 184, 185, 186, 187, 188, 189, 190, 191, 192, 193, 194, 195, 196, 197, 198, 199, 200, 201, 202, 203, 204, 205, 206, 207, 208, 209, 210, 211, 212, 213, 214, 215, 216, 217, 218, 219, 220, 221, 222, 223, 224, 225, 226, 227, 228, 229, 230, 231, 232, 233, 234, 235, 236, 237, 238, 239, 240, 241, 242, 243, 244, 245, 246, 247, 248, 249, 250, 251, 252, 253, 254, 255, 256, 257, 258, 259, 260, 261, 262, 263, 264, 265, 266, 267, 268, 269, 270, 271, 272, 273, 274, 275, 276, 277, 278, 279, 280, 281, 282, 283, 284, 285, 286, 287, 288, 289, 290, 291, 292, 293, 294, 295, 296, 297, 298, 299, 300, 301, 302, 303, 304, 305, 306, 307, 308, 309, 310, 311, 312, 313, 314, 315, 316, 317, 318, 319, 320, 321, 322, 323, 324, 325, 326, 327, 328, 329, 330, 331, 332, 333, 334, 335, 336, 337, 338, 339, 340, 341, 342, 343, 344, 345, 346, 347, 348, 349, 350, 351, 352, 353, 354, 355, 356, 357, 358, 359, 360, 361, 362, 363, 364, 365, 366, 367, 368, 369, 370, 371, 372, 373, 374, 375, 376, 377, 378, 379, 380, 381, 382, 383, 384, 385, 386, 387, 388, 389, 390, 391, 392, 393, 394, 395, 396, 397, 398, 399, 400, 401, 402, 403, 404, 405, 406, 407, 408, 409, 410, 411, 412, 413, 414, 415, 416, 417, 418, 419, 420, 421, 422, 423, 424, 425, 426, 427, 428, 429, 430, 431],
      "AcquisitionTime": ["180753.570000", "180755.060000", "180756.550000", "180758.040000", "180759.530000", "180801.020000", "180802.510000", "180804.000000", "180805.490000", "180806.980000", "180808.470000", "180809.960000", "180811.450000", "180812.940000", "180814.430000", "180815.920000", "180817.410000", "180818.900000", "180820.390000", "180821.880000", "180823.370000", "180824.860000", "180826.350000", "180827.840000", "180829.330000", "180830.820000", "180832.310000", "180833.800000", "180835.290000", "180836.780000", "180838.270000", "180839.760000", "180841.250000", "180842.740000", "180844.230000", "180845.720000", "180847.210000", "180848.700000", "180850.190000", "180851.680000", "180853.170000", "180854.660000", "180856.150000", "180857.640000", "180859.130000", "180900.620000", "180902.110000", "180903.600000", "180905.090000", "180906.580000", "180908.070000", "180909.560000", "180911.050000", "180912.540000", "180914.030000", "180915.520000", "180917.010000", "180918.500000", "180919.990000", "180921.480000", "180922.970000", "180924.460000", "180925.950000", "180927.440000", "180928.930000", "180930.420000", "180931.910000", "180933.400000", "180934.890000", "180936.380000", "180937.870000", "180939.360000", "180940.850000", "180942.340000", "180943.830000", "180945.320000", "180946.810000", "180948.300000", "180949.790000", "180951.280000", "180952.770000", "180954.260000", "180955.750000", "180957.240000", "180958.730000", "181000.220000", "181001.710000", "181003.200000", "181004.690000", "181006.180000", "181007.670000", "181009.160000", "181010.650000", "181012.140000", "181013.630000", "181015.120000", "181016.610000", "181018.100000", "181019.590000", "181021.080000", "181022.570000", "181024.060000", "181025.550000", "181027.040000", "181028.530000", "181030.020000", "181031.510000", "181033.000000", "181034.490000", "181035.980000", "181037.470000", "181038.960000", "181040.450000", "181041.940000", "181043.430000", "181044.920000", "181046.410000", "181047.900000", "181049.390000", "181050.880000", "181052.370000", "181053.860000", "181055.350000", "181056.840000", "181058.330000", "181059.820000", "181101.310000", "181102.800000", "181104.290000", "181105.780000", "181107.270000", "181108.760000", "181110.250000", "181111.740000", "181113.230000", "181114.720000", "181116.210000", "181117.700000", "181119.190000", "181120.680000", "181122.170000", "181123.660000", "181125.150000", "181126.640000", "181128.130000", "181129.620000", "181131.110000", "181132.600000", "181134.090000", "181135.580000", "181137.070000", "181138.560000", "181140.050000", "181141.540000", "181143.030000", "181144.520000", "181146.010000", "181147.500000", "181148.990000", "181150.480000", "181151.970000", "181153.460000", "181154.950000", "181156.440000", "181157.930000", "181159.420000", "181200.910000", "181202.400000", "181203.890000", "181205.380000", "181206.870000", "181208.360000", "181209.850000", "181211.340000", "181212.830000", "181214.320000", "181215.810000", "181217.300000", "181218.790000", "181220.280000", "181221.770000", "181223.260000", "181224.750000", "181226.240000", "181227.730000", "181229.220000", "181230.710000", "181232.200000", "181233.690000", "181235.180000", "181236.670000", "181238.160000", "181239.650000", "181241.140000", "181242.630000", "181244.120000", "181245.610000", "181247.100000", "181248.590000", "181250.080000", "181251.570000", "181253.060000", "181254.550000", "181256.040000", "181257.530000", "181259.020000", "181300.510000", "181302.000000", "181303.490000", "181304.980000", "181306.470000", "181307.960000", "181309.450000", "181310.940000", "181312.430000", "181313.920000", "181315.410000", "181316.900000", "181318.390000", "181319.880000", "181321.370000", "181322.860000", "181324.350000", "181325.840000", "181327.330000", "181328.820000", "181330.310000", "181331.800000", "181333.290000", "181334.780000", "181336.270000", "181337.760000", "181339.250000", "181340.740000", "181342.230000", "181343.720000", "181345.210000", "181346.700000", "181348.190000", "181349.680000", "181351.170000", "181352.660000", "181354.150000", "181355.640000", "181357.130000", "181358.620000", "181400.110000", "181401.600000", "181403.090000", "181404.580000", "181406.070000", "181407.560000", "181409.050000", "181410.540000", "181412.030000", "181413.520000", "181415.010000", "181416.500000", "181417.990000", "181419.480000", "181420.970000", "181422.460000", "181423.950000", "181425.440000", "181426.930000", "181428.420000", "181429.910000", "181431.400000", "181432.890000", "181434.380000", "181435.870000", "181437.360000", "181438.850000", "181440.340000", "181441.830000", "181443.320000", "181444.810000", "181446.300000", "181447.790000", "181449.280000", "181450.770000", "181452.260000", "181453.750000", "181455.240000", "181456.730000", "181458.220000", "181459.710000", "181501.200000", "181502.690000", "181504.180000", "181505.670000", "181507.160000", "181508.650000", "181510.140000", "181511.630000", "181513.120000", "181514.610000", "181516.100000", "181517.590000", "181519.080000", "181520.570000", "181522.060000", "181523.550000", "181525.040000", "181526.530000", "181528.020000", "181529.510000", "181531.000000", "181532.490000", "181533.980000", "181535.470000", "181536.960000", "181538.450000", "181539.940000", "181541.430000", "181542.920000", "181544.410000", "181545.900000", "181547.390000", "181548.880000", "181550.370000", "181551.860000", "181553.350000", "181554.840000", "181556.330000", "181557.820000", "181559.310000", "181600.800000", "181602.290000", "181603.780000", "181605.270000", "181606.760000", "181608.250000", "181609.740000", "181611.230000", "181612.720000", "181614.210000", "181615.700000", "181617.190000", "181618.680000", "181620.170000", "181621.660000", "181623.150000", "181624.640000", "181626.130000", "181627.620000", "181629.110000", "181630.600000", "181632.090000", "181633.580000", "181635.070000", "181636.560000", "181638.050000", "181639.540000", "181641.030000", "181642.520000", "181644.010000", "181645.500000", "181646.990000", "181648.480000", "181649.970000", "181651.460000", "181652.950000", "181654.440000", "181655.930000", "181657.420000", "181658.910000", "181700.400000", "181701.890000", "181703.380000", "181704.870000", "181706.360000", "181707.850000", "181709.340000", "181710.830000", "181712.320000", "181713.810000", "181715.300000", "181716.790000", "181718.280000", "181719.770000", "181721.260000", "181722.750000", "181724.240000", "181725.730000", "181727.220000", "181728.710000", "181730.200000", "181731.690000", "181733.180000", "181734.670000", "181736.160000", "181737.650000", "181739.140000", "181740.630000", "181742.120000", "181743.610000", "181745.100000", "181746.590000", "181748.080000", "181749.570000", "181751.060000", "181752.550000", "181754.040000", "181755.530000", "181757.020000", "181758.510000", "181800.000000", "181801.490000", "181802.980000", "181804.470000", "181805.960000", "181807.450000", "181808.940000", "181810.430000", "181811.920000", "181813.410000", "181814.900000", "181816.390000", "181817.880000", "181819.370000", "181820.860000", "181822.350000", "181823.840000", "181825.330000", "181826.820000", "181828.310000", "181829.800000", "181831.290000", "181832.780000", "181834.270000"],
      "ContentTime": ["180854.540000", "180854.610000", "180854.613000", "180854.616000", "180854.626000", "180854.629000", "180854.632000", "180854.635000", "180854.638000", "180854.641000", "180914.508000", "180914.511000", "180914.521000", "180914.524000", "180914.527000", "180914.530000", "180914.533000", "180914.535000", "180914.543000", "180914.546000", "180914.549000", "180914.551000", "180914.554000", "180914.557000", "180914.560000", "180914.563000", "180914.566000", "180914.569000", "180914.572000", "180914.575000", "180934.508000", "180934.511000", "180934.514000", "180934.517000", "180934.520000", "180934.522000", "180934.525000", "180934.528000", "180934.531000", "180934.534000", "180934.537000", "180934.540000", "180934.543000", "180934.545000", "180934.548000", "180934.551000", "180934.554000", "180934.557000", "180934.560000", "180934.563000", "180954.508000", "180954.511000", "180954.514000", "180954.517000", "180954.520000", "180954.522000", "180954.525000", "180954.528000", "180954.531000", "180954.534000", "180954.537000", "180954.540000", "180954.543000", "180954.546000", "180954.549000", "180954.552000", "180954.555000", "180954.558000", "180954.561000", "180954.564000", "181014.508000", "181014.511000", "181014.514000", "181014.523000", "181014.525000", "181014.528000", "181014.531000", "181014.534000", "181014.537000", "181014.540000", "181014.543000", "181014.545000", "181014.549000", "181014.553000", "181014.555000", "181014.558000", "181014.561000", "181014.564000", "181014.567000", "181014.570000", "181014.573000", "181054.508000", "181054.511000", "181054.514000", "181054.517000", "181054.520000", "181054.523000", "181054.525000", "181054.528000", "181054.531000", "181054.534000", "181054.537000", "181054.540000", "181054.542000", "181054.545000", "181054.548000", "181054.551000", "181054.554000", "181054.557000", "181054.560000", "181054.563000", "181054.566000", "181054.569000", "181054.572000", "181054.575000", "181054.578000", "181054.580000", "181054.583000", "181054.586000", "181054.589000", "181134.508000", "181134.511000", "181134.514000", "181134.517000", "181134.520000", "181134.523000", "181134.525000", "181134.537000", "181134.539000", "181134.542000", "181134.545000", "181134.548000", "181134.551000", "181134.554000", "181134.557000", "181134.560000", "181134.563000", "181134.566000", "181134.569000", "181134.572000", "181134.575000", "181134.578000", "181134.581000", "181134.584000", "181134.587000", "181134.590000", "181134.593000", "181214.508000", "181214.511000", "181214.521000", "181214.524000", "181214.527000", "181214.530000", "181214.541000", "181214.544000", "181214.547000", "181214.550000", "181214.553000", "181214.556000", "181214.558000", "181214.562000", "181214.565000", "181214.568000", "181214.571000", "181214.573000", "181214.576000", "181214.579000", "181214.582000", "181214.585000", "181214.588000", "181214.599000", "181214.602000", "181214.605000", "181214.608000", "181254.508000", "181254.511000", "181254.514000", "181254.517000", "181254.519000", "181254.522000", "181254.525000", "181254.528000", "181254.531000", "181254.534000", "181254.537000", "181254.540000", "181254.543000", "181254.546000", "181254.549000", "181254.552000", "181254.554000", "181254.557000", "181254.560000", "181254.563000", "181254.566000", "181254.569000", "181254.572000", "181254.575000", "181254.578000", "181254.581000", "181254.584000", "181334.507000", "181334.510000", "181334.513000", "181334.516000", "181334.519000", "181334.521000", "181334.524000", "181334.527000", "181334.530000", "181334.533000", "181334.536000", "181334.539000", "181334.555000", "181334.558000", "181334.561000", "181334.564000", "181334.567000", "181334.570000", "181334.573000", "181334.576000", "181334.579000", "181334.581000", "181334.584000", "181334.587000", "181334.590000", "181334.593000", "181334.596000", "181414.508000", "181414.511000", "181414.514000", "181414.517000", "181414.520000", "181414.523000", "181414.536000", "181414.539000", "181414.542000", "181414.545000", "181414.548000", "181414.552000", "181414.556000", "181414.563000", "181414.566000", "181414.569000", "181414.572000", "181414.575000", "181414.578000", "181414.581000", "181414.584000", "181414.587000", "181414.590000", "181414.593000", "181414.596000", "181414.599000", "181454.508000", "181454.511000", "181454.514000", "181454.517000", "181454.520000", "181454.523000", "181454.526000", "181454.529000", "181454.532000", "181454.535000", "181454.538000", "181454.540000", "181454.543000", "181454.547000", "181454.549000", "181454.552000", "181454.556000", "181454.559000", "181454.561000", "181454.564000", "181454.567000", "181454.570000", "181454.573000", "181454.576000", "181454.579000", "181454.582000", "181454.585000", "181534.508000", "181534.511000", "181534.514000", "181534.517000", "181534.520000", "181534.523000", "181534.526000", "181534.529000", "181534.536000", "181534.539000", "181534.542000", "181534.545000", "181534.548000", "181534.551000", "181534.554000", "181534.557000", "181534.560000", "181534.563000", "181534.566000", "181534.569000", "181534.572000", "181534.575000", "181534.578000", "181534.581000", "181534.584000", "181534.586000", "181534.589000", "181614.508000", "181614.511000", "181614.514000", "181614.517000", "181614.520000", "181614.523000", "181614.526000", "181614.529000", "181614.532000", "181614.535000", "181614.537000", "181614.540000", "181614.543000", "181614.546000", "181614.549000", "181614.552000", "181614.555000", "181614.558000", "181614.561000", "181614.564000", "181614.567000", "181614.570000", "181614.573000", "181614.576000", "181614.579000", "181614.588000", "181614.591000", "181654.508000", "181654.511000", "181654.514000", "181654.517000", "181654.520000", "181654.523000", "181654.526000", "181654.529000", "181654.532000", "181654.535000", "181654.538000", "181654.540000", "181654.543000", "181654.546000", "181654.549000", "181654.552000", "181654.555000", "181654.558000", "181654.561000", "181654.564000", "181654.567000", "181654.570000", "181654.573000", "181654.576000", "181654.579000", "181654.582000", "181654.584000", "181714.508000", "181714.511000", "181714.514000", "181714.517000", "181714.520000", "181714.523000", "181714.526000", "181714.529000", "181714.532000", "181714.535000", "181714.538000", "181714.540000", "181714.543000", "181754.508000", "181754.511000", "181754.514000", "181754.517000", "181754.520000", "181754.523000", "181754.526000", "181754.529000", "181754.532000", "181754.535000", "181754.538000", "181754.541000", "181754.544000", "181754.547000", "181754.550000", "181754.553000", "181754.556000", "181754.559000", "181754.562000", "181754.565000", "181754.567000", "181754.570000", "181754.573000", "181754.576000", "181754.579000", "181754.582000", "181754.585000", "181834.508000", "181834.511000", "181834.514000", "181834.517000", "181834.520000", "181834.523000", "181834.526000", "181834.529000", "181834.532000", "181834.534000", "181834.537000", "181834.540000", "181834.543000", "181834.546000", "181834.549000", "181834.552000", "181834.555000", "181834.558000", "181834.561000", "181834.564000", "181834.566000", "181834.569000", "181834.572000", "181834.575000", "181834.578000", "181834.581000", "181834.584000", "181836.846000", "181836.849000"],
      "InstanceCreationTime": ["180854.540000", "180854.610000", "180854.613000", "180854.616000", "180854.626000", "180854.629000", "180854.632000", "180854.635000", "180854.638000", "180854.641000", "180914.508000", "180914.511000", "180914.521000", "180914.524000", "180914.527000", "180914.530000", "180914.533000", "180914.535000", "180914.543000", "180914.546000", "180914.549000", "180914.551000", "180914.554000", "180914.557000", "180914.560000", "180914.563000", "180914.566000", "180914.569000", "180914.572000", "180914.575000", "180934.508000", "180934.511000", "180934.514000", "180934.517000", "180934.520000", "180934.522000", "180934.525000", "180934.528000", "180934.531000", "180934.534000", "180934.537000", "180934.540000", "180934.543000", "180934.545000", "180934.548000", "180934.551000", "180934.554000", "180934.557000", "180934.560000", "180934.563000", "180954.508000", "180954.511000", "180954.514000", "180954.517000", "180954.520000", "180954.522000", "180954.525000", "180954.528000", "180954.531000", "180954.534000", "180954.537000", "180954.540000", "180954.543000", "180954.546000", "180954.549000", "180954.552000", "180954.555000", "180954.558000", "180954.561000", "180954.564000", "181014.508000", "181014.511000", "181014.514000", "181014.523000", "181014.525000", "181014.528000", "181014.531000", "181014.534000", "181014.537000", "181014.540000", "181014.543000", "181014.545000", "181014.549000", "181014.553000", "181014.555000", "181014.558000", "181014.561000", "181014.564000", "181014.567000", "181014.570000", "181014.573000", "181054.508000", "181054.511000", "181054.514000", "181054.517000", "181054.520000", "181054.523000", "181054.525000", "181054.528000", "181054.531000", "181054.534000", "181054.537000", "181054.540000", "181054.542000", "181054.545000", "181054.548000", "181054.551000", "181054.554000", "181054.557000", "181054.560000", "181054.563000", "181054.566000", "181054.569000", "181054.572000", "181054.575000", "181054.578000", "181054.580000", "181054.583000", "181054.586000", "181054.589000", "181134.508000", "181134.511000", "181134.514000", "181134.517000", "181134.520000", "181134.523000", "181134.525000", "181134.537000", "181134.539000", "181134.542000", "181134.545000", "181134.548000", "181134.551000", "181134.554000", "181134.557000", "181134.560000", "181134.563000", "181134.566000", "181134.569000", "181134.572000", "181134.575000", "181134.578000", "181134.581000", "181134.584000", "181134.587000", "181134.590000", "181134.593000", "181214.508000", "181214.511000", "181214.521000", "181214.524000", "181214.527000", "181214.530000", "181214.541000", "181214.544000", "181214.547000", "181214.550000", "181214.553000", "181214.556000", "181214.558000", "181214.562000", "181214.565000", "181214.568000", "181214.571000", "181214.573000", "181214.576000", "181214.579000", "181214.582000", "181214.585000", "181214.588000", "181214.599000", "181214.602000", "181214.605000", "181214.608000", "181254.508000", "181254.511000", "181254.514000", "181254.517000", "181254.519000", "181254.522000", "181254.525000", "181254.528000", "181254.531000", "181254.534000", "181254.537000", "181254.540000", "181254.543000", "181254.546000", "181254.549000", "181254.552000", "181254.554000", "181254.557000", "181254.560000", "181254.563000", "181254.566000", "181254.569000", "181254.572000", "181254.575000", "181254.578000", "181254.581000", "181254.584000", "181334.507000", "181334.510000", "181334.513000", "181334.516000", "181334.519000", "181334.521000", "181334.524000", "181334.527000", "181334.530000", "181334.533000", "181334.536000", "181334.539000", "181334.555000", "181334.558000", "181334.561000", "181334.564000", "181334.567000", "181334.570000", "181334.573000", "181334.576000", "181334.579000", "181334.581000", "181334.584000", "181334.587000", "181334.590000", "181334.593000", "181334.596000", "181414.508000", "181414.511000", "181414.514000", "181414.517000", "181414.520000", "181414.523000", "181414.536000", "181414.539000", "181414.542000", "181414.545000", "181414.548000", "181414.552000", "181414.556000", "181414.563000", "181414.566000", "181414.569000", "181414.572000", "181414.575000", "181414.578000", "181414.581000", "181414.584000", "181414.587000", "181414.590000", "181414.593000", "181414.596000", "181414.599000", "181454.508000", "181454.511000", "181454.514000", "181454.517000", "181454.520000", "181454.523000", "181454.526000", "181454.529000", "181454.532000", "181454.535000", "181454.538000", "181454.540000", "181454.543000", "181454.547000", "181454.549000", "181454.552000", "181454.556000", "181454.559000", "181454.561000", "181454.564000", "181454.567000", "181454.570000", "181454.573000", "181454.576000", "181454.579000", "181454.582000", "181454.585000", "181534.508000", "181534.511000", "181534.514000", "181534.517000", "181534.520000", "181534.523000", "181534.526000", "181534.529000", "181534.536000", "181534.539000", "181534.542000", "181534.545000", "181534.548000", "181534.551000", "181534.554000", "181534.557000", "181534.560000", "181534.563000", "181534.566000", "181534.569000", "181534.572000", "181534.575000", "181534.578000", "181534.581000", "181534.584000", "181534.586000", "181534.589000", "181614.508000", "181614.511000", "181614.514000", "181614.517000", "181614.520000", "181614.523000", "181614.526000", "181614.529000", "181614.532000", "181614.535000", "181614.537000", "181614.540000", "181614.543000", "181614.546000", "181614.549000", "181614.552000", "181614.555000", "181614.558000", "181614.561000", "181614.564000", "181614.567000", "181614.570000", "181614.573000", "181614.576000", "181614.579000", "181614.588000", "181614.591000", "181654.508000", "181654.511000", "181654.514000", "181654.517000", "181654.520000", "181654.523000", "181654.526000", "181654.529000", "181654.532000", "181654.535000", "181654.538000", "181654.540000", "181654.543000", "181654.546000", "181654.549000", "181654.552000", "181654.555000", "181654.558000", "181654.561000", "181654.564000", "181654.567000", "181654.570000", "181654.573000", "181654.576000", "181654.579000", "181654.582000", "181654.584000", "181714.508000", "181714.511000", "181714.514000", "181714.517000", "181714.520000", "181714.523000", "181714.526000", "181714.529000", "181714.532000", "181714.535000", "181714.538000", "181714.540000", "181714.543000", "181754.508000", "181754.511000", "181754.514000", "181754.517000", "181754.520000", "181754.523000", "181754.526000", "181754.529000", "181754.532000", "181754.535000", "181754.538000", "181754.541000", "181754.544000", "181754.547000", "181754.550000", "181754.553000", "181754.556000", "181754.559000", "181754.562000", "181754.565000", "181754.567000", "181754.570000", "181754.573000", "181754.576000", "181754.579000", "181754.582000", "181754.585000", "181834.508000", "181834.511000", "181834.514000", "181834.517000", "181834.520000", "181834.523000", "181834.526000", "181834.529000", "181834.532000", "181834.534000", "181834.537000", "181834.540000", "181834.543000", "181834.546000", "181834.549000", "181834.552000", "181834.555000", "181834.558000", "181834.561000", "181834.564000", "181834.566000", "181834.569000", "181834.572000", "181834.575000", "181834.578000", "181834.581000", "181834.584000", "181836.846000", "181836.849000"],
