{
  "AcquisitionMatrixPE": 104,
  "AcquisitionNumber": 1,
  "AcquisitionTime": "18:31:16.967500",
  "BandwidthPerPixelPhaseEncode": 17.17,
  "BaseResolution": 104,
  "BodyPartExamined": "BRAIN",
  "CoilCombinationMethod": "Sum of Squares",
  "ConsistencyInfo": "N4_VE11C_LATEST_20160120",
  "ConversionSoftware": "dcm2niix",
  "ConversionSoftwareVersion": "v1.0.20211006",
  "DerivedVendorReportedEchoSpacing": 0.000560011,
  "DeviceSerialNumber": "167006",
  "DwellTime": 2.1e-06,
  "EchoTime": 0.037,
  "EchoTrainLength": 104,
  "EffectiveEchoSpacing": 0.000560011,
  "FlipAngle": 52,
  "HeudiconvVersion": "0.11.3.post9+gc939bf8",
  "ImageComments": "Unaliased MB4/PE3/LB",
  "ImageOrientationPatientDICOM": [0.999284, 0.0377496, -0.00254051, -0.0364674, 0.9431, -0.330504],
  "ImageOrientationText": "Tra>Cor(-19.3)>Sag(0.6)",
  "ImageType": [
    "ORIGINAL",
    "PRIMARY",
    "M",
    "MB",
    "ND",
    "MOSAIC"
],
  "ImagingFrequency": 123.259,
  "InPlanePhaseEncodingDirectionDICOM": "COL",
  "InstitutionAddress": "Chemin Queen-Mary 4565,Montreal,District,CA,H3W 1W5",
  "InstitutionName": "IUGM",
  "InstitutionalDepartmentName": "Department",
  "MRAcquisitionType": "2D",
  "MagneticFieldStrength": 3,
  "Manufacturer": "Siemens",
  "ManufacturersModelName": "Prisma_fit",
  "MatrixCoilMode": "SENSE",
  "Modality": "MR",
  "MultibandAccelerationFactor": 4,
  "PartialFourier": 1,
  "PatientPosition": "HFS",
  "PercentPhaseFOV": 100,
  "PercentSampling": 100,
  "PhaseEncodingDirection": "j",
  "PhaseEncodingSteps": 104,
  "PhaseResolution": 1,
  "PixelBandwidth": 2290,
  "ProcedureStepDescription": "video^friends",
  "ProtocolName": "func_task-friends-s06e21a",
  "PulseSequenceDetails": "%CustomerSeq%\\cmrr_mbep2d_bold",
  "ReceiveCoilActiveElements": "HC1-7;NC1,2",
  "ReceiveCoilName": "HeadNeck_64",
  "ReconMatrixPE": 104,
  "RepetitionTime": 1.49,
  "SAR": 0.0686476,
  "ScanOptions": "FS",
  "ScanningSequence": "EP",
  "SequenceName": "epfid2d1_104",
  "SequenceVariant": "SK\\SS",
  "SeriesDescription": "func_task-friends-s06e21a",
  "SeriesNumber": 16,
  "ShimSetting": [624, -7196, -8790, 688, 88, -21, -8, -13],
  "SliceThickness": 2,
  "SliceTiming": [0, 0.785, 0.0975, 0.8825, 0.1975, 0.98, 0.295, 1.0775, 0.3925, 1.1775, 0.49, 1.275, 0.5875, 1.3725, 0.6875, 0, 0.785, 0.0975, 0.8825, 0.1975, 0.98, 0.295, 1.0775, 0.3925, 1.1775, 0.49, 1.275, 0.5875, 1.3725, 0.6875, 0, 0.785, 0.0975, 0.8825, 0.1975, 0.98, 0.295, 1.0775, 0.3925, 1.1775, 0.49, 1.275, 0.5875, 1.3725, 0.6875, 0, 0.785, 0.0975, 0.8825, 0.1975, 0.98, 0.295, 1.0775, 0.3925, 1.1775, 0.49, 1.275, 0.5875, 1.3725, 0.6875],
  "SoftwareVersions": "syngo MR E11",
  "SpacingBetweenSlices": 2,
  "StationName": "MRC35049",
  "TaskName": "s06e21a",
  "TotalReadoutTime": 0.0576811,
  "TxRefAmp": 280.911,
  "WipMemBlock": "a34de3ea-b2ae-4067-a73a-68e7ce2b8450||Sequence: R017 ve11c/master r/75a17815+; Jun 28 2022 16:32:11 by eja",
  "dcmmeta_affine": [
    [-1.9985679388046265, -0.07293486595153809, 0.020160887390375137, 105.83870697021484],
    [-0.0754992663860321, 1.886199712753296, -0.6607197523117065, -67.26606750488281],
    [-0.005081021226942539, 0.6610077023506165, 1.88760244846344, -55.50469970703125],
    [0.0, 0.0, 0.0, 1.0]
],
  "dcmmeta_reorient_transform": [
    [0.0, -1.0, 0.0, 103.0],
    [1.0, 0.0, 0.0, 0.0],
    [0.0, 0.0, 1.0, 0.0],
    [0.0, 0.0, 0.0, 1.0]
],
  "dcmmeta_shape": [104, 104, 60, 460],
  "dcmmeta_slice_dim": 2,
  "dcmmeta_version": 0.6,
  "global": {
    "const": {
      "AcquisitionMatrix": [104, 0, 0, 104],
      "AngioFlag": "N",
      "BitsAllocated": 16,
      "BitsStored": 16,
      "BodyPartExamined": "BRAIN",
      "Columns": 832,
      "EchoNumbers": 1,
      "EchoTime": 37.0,
      "EchoTrainLength": 104,
      "FlipAngle": 52.0,
      "HighBit": 15,
      "ImageOrientationPatient": [0.99928399919229, 0.03774963263214, -0.0025405106578, -0.036467432118, 0.94309984880961, -0.3305038601439],
      "ImagePositionPatient": [-799.25687419182, -841.07092467221, 255.03539850165],
      "ImageType": [
        "ORIGINAL",
        "PRIMARY",
        "M",
        "MB",
        "ND",
        "MOSAIC"
],
      "ImagedNucleus": "1H",
      "ImagingFrequency": 123.258806,
      "InPlanePhaseEncodingDirection": "COL",
      "MRAcquisitionType": "2D",
      "MagneticFieldStrength": 3.0,
      "Manufacturer": "SIEMENS",
      "ManufacturerModelName": "Prisma_fit",
      "Modality": "MR",
      "NumberOfAverages": 1.0,
      "NumberOfPhaseEncodingSteps": 104,
      "PercentPhaseFieldOfView": 100.0,
      "PercentSampling": 100.0,
      "PerformedProcedureStepStartTime": "174801.747000",
      "PhotometricInterpretation": "MONOCHROME2",
      "PixelBandwidth": 2290.0,
      "PixelRepresentation": 0,
      "PixelSpacing": [2.0, 2.0],
      "ProtocolName": "func_task-friends-s06e21a",
      "RepetitionTime": 1490.0,
      "Rows": 832,
      "SAR": 0.06864759014756,
      "SamplesPerPixel": 1,
      "ScanOptions": "FS",
      "ScanningSequence": "EP",
      "SequenceName": "epfid2d1_104",
      "SequenceVariant": [
        "SK",
        "SS"
],
      "SeriesDescription": "func_task-friends-s06e21a",
      "SeriesNumber": 16,
      "SeriesTime": "183246.104000",
      "SliceLocation": -29.09649247686,
      "SliceThickness": 2.0,
      "SmallestImagePixelValue": 0,
      "SoftwareVersions": "syngo MR E11",
      "SpacingBetweenSlices": 2.0000000117122,
      "SpecificCharacterSet": "ISO_IR 100",
      "StudyID": "1",
      "StudyTime": "174801.671000",
      "TransmitCoilName": "Body",
      "VariableFlipAngleFlag": "N",
      "WindowCenterWidthExplanation": "Algo1",
      "dBdt": 0.0},
    "slices": {}
  },
  "time": {
    "samples": {
      "AcquisitionNumber": [1, 2, 3, 4, 5, 6, 7, 8, 9, 10, 11, 12, 13, 14, 15, 16, 17, 18, 19, 20, 21, 22, 23, 24, 25, 26, 27, 28, 29, 30, 31, 32, 33, 34, 35, 36, 37, 38, 39, 40, 41, 42, 43, 44, 45, 46, 47, 48, 49, 50, 51, 52, 53, 54, 55, 56, 57, 58, 59, 60, 61, 62, 63, 64, 65, 66, 67, 68, 69, 70, 71, 72, 73, 74, 75, 76, 77, 78, 79, 80, 81, 82, 83, 84, 85, 86, 87, 88, 89, 90, 91, 92, 93, 94, 95, 96, 97, 98, 99, 100, 101, 102, 103, 104, 105, 106, 107, 108, 109, 110, 111, 112, 113, 114, 115, 116, 117, 118, 119, 120, 121, 122, 123, 124, 125, 126, 127, 128, 129, 130, 131, 132, 133, 134, 135, 136, 137, 138, 139, 140, 141, 142, 143, 144, 145, 146, 147, 148, 149, 150, 151, 152, 153, 154, 155, 156, 157, 158, 159, 160, 161, 162, 163, 164, 165, 166, 167, 168, 169, 170, 171, 172, 173, 174, 175, 176, 177, 178, 179, 180, 181, 182, 183, 184, 185, 186, 187, 188, 189, 190, 191, 192, 193, 194, 195, 196, 197, 198, 199, 200, 201, 202, 203, 204, 205, 206, 207, 208, 209, 210, 211, 212, 213, 214, 215, 216, 217, 218, 219, 220, 221, 222, 223, 224, 225, 226, 227, 228, 229, 230, 231, 232, 233, 234, 235, 236, 237, 238, 239, 240, 241, 242, 243, 244, 245, 246, 247, 248, 249, 250, 251, 252, 253, 254, 255, 256, 257, 258, 259, 260, 261, 262, 263, 264, 265, 266, 267, 268, 269, 270, 271, 272, 273, 274, 275, 276, 277, 278, 279, 280, 281, 282, 283, 284, 285, 286, 287, 288, 289, 290, 291, 292, 293, 294, 295, 296, 297, 298, 299, 300, 301, 302, 303, 304, 305, 306, 307, 308, 309, 310, 311, 312, 313, 314, 315, 316, 317, 318, 319, 320, 321, 322, 323, 324, 325, 326, 327, 328, 329, 330, 331, 332, 333, 334, 335, 336, 337, 338, 339, 340, 341, 342, 343, 344, 345, 346, 347, 348, 349, 350, 351, 352, 353, 354, 355, 356, 357, 358, 359, 360, 361, 362, 363, 364, 365, 366, 367, 368, 369, 370, 371, 372, 373, 374, 375, 376, 377, 378, 379, 380, 381, 382, 383, 384, 385, 386, 387, 388, 389, 390, 391, 392, 393, 394, 395, 396, 397, 398, 399, 400, 401, 402, 403, 404, 405, 406, 407, 408, 409, 410, 411, 412, 413, 414, 415, 416, 417, 418, 419, 420, 421, 422, 423, 424, 425, 426, 427, 428, 429, 430, 431, 432, 433, 434, 435, 436, 437, 438, 439, 440, 441, 442, 443, 444, 445, 446, 447, 448, 449, 450, 451, 452, 453, 454, 455, 456, 457, 458, 459, 460],
      "AcquisitionTime": ["183116.967500", "183118.457500", "183119.947500", "183121.437500", "183122.927500", "183124.417500", "183125.907500", "183127.397500", "183128.887500", "183130.377500", "183131.867500", "183133.357500", "183134.847500", "183136.337500", "183137.827500", "183139.317500", "183140.807500", "183142.297500", "183143.787500", "183145.277500", "183146.767500", "183148.257500", "183149.747500", "183151.237500", "183152.727500", "183154.217500", "183155.707500", "183157.197500", "183158.687500", "183200.177500", "183201.667500", "183203.157500", "183204.647500", "183206.137500", "183207.627500", "183209.117500", "183210.607500", "183212.097500", "183213.587500", "183215.077500", "183216.567500", "183218.057500", "183219.547500", "183221.037500", "183222.527500", "183224.017500", "183225.507500", "183226.997500", "183228.487500", "183229.977500", "183231.467500", "183232.957500", "183234.447500", "183235.937500", "183237.427500", "183238.917500", "183240.407500", "183241.897500", "183243.387500", "183244.877500", "183246.367500", "183247.857500", "183249.347500", "183250.837500", "183252.327500", "183253.817500", "183255.307500", "183256.797500", "183258.287500", "183259.777500", "183301.267500", "183302.757500", "183304.247500", "183305.737500", "183307.227500", "183308.717500", "183310.207500", "183311.697500", "183313.187500", "183314.677500", "183316.167500", "183317.657500", "183319.147500", "183320.637500", "183322.127500", "183323.617500", "183325.107500", "183326.597500", "183328.087500", "183329.577500", "183331.067500", "183332.557500", "183334.047500", "183335.537500", "183337.027500", "183338.517500", "183340.007500", "183341.497500", "183342.987500", "183344.477500", "183345.967500", "183347.457500", "183348.947500", "183350.437500", "183351.927500", "183353.417500", "183354.907500", "183356.397500", "183357.887500", "183359.377500", "183400.867500", "183402.357500", "183403.847500", "183405.337500", "183406.827500", "183408.317500", "183409.807500", "183411.297500", "183412.787500", "183414.277500", "183415.767500", "183417.257500", "183418.747500", "183420.237500", "183421.727500", "183423.217500", "183424.707500", "183426.197500", "183427.687500", "183429.177500", "183430.667500", "183432.157500", "183433.647500", "183435.137500", "183436.627500", "183438.117500", "183439.607500", "183441.097500", "183442.587500", "183444.077500", "183445.567500", "183447.057500", "183448.547500", "183450.037500", "183451.527500", "183453.017500", "183454.507500", "183455.997500", "183457.487500", "183458.977500", "183500.467500", "183501.957500", "183503.447500", "183504.937500", "183506.427500", "183507.917500", "183509.407500", "183510.897500", "183512.387500", "183513.877500", "183515.367500", "183516.857500", "183518.347500", "183519.837500", "183521.327500", "183522.817500", "183524.307500", "183525.797500", "183527.287500", "183528.777500", "183530.267500", "183531.757500", "183533.247500", "183534.737500", "183536.227500", "183537.717500", "183539.207500", "183540.697500", "183542.187500", "183543.677500", "183545.167500", "183546.657500", "183548.147500", "183549.637500", "183551.127500", "183552.617500", "183554.107500", "183555.597500", "183557.087500", "183558.577500", "183600.067500", "183601.557500", "183603.047500", "183604.537500", "183606.027500", "183607.517500", "183609.007500", "183610.497500", "183611.987500", "183613.477500", "183614.967500", "183616.457500", "183617.947500", "183619.437500", "183620.927500", "183622.417500", "183623.907500", "183625.397500", "183626.887500", "183628.377500", "183629.867500", "183631.357500", "183632.847500", "183634.337500", "183635.827500", "183637.317500", "183638.807500", "183640.297500", "183641.787500", "183643.277500", "183644.767500", "183646.257500", "183647.747500", "183649.237500", "183650.727500", "183652.217500", "183653.707500", "183655.197500", "183656.687500", "183658.177500", "183659.667500", "183701.157500", "183702.647500", "183704.137500", "183705.627500", "183707.117500", "183708.607500", "183710.097500", "183711.587500", "183713.077500", "183714.567500", "183716.057500", "183717.547500", "183719.037500", "183720.527500", "183722.017500", "183723.507500", "183724.997500", "183726.487500", "183727.977500", "183729.467500", "183730.957500", "183732.447500", "183733.937500", "183735.427500", "183736.917500", "183738.407500", "183739.897500", "183741.387500", "183742.877500", "183744.367500", "183745.857500", "183747.347500", "183748.837500", "183750.327500", "183751.817500", "183753.307500", "183754.797500", "183756.287500", "183757.777500", "183759.267500", "183800.757500", "183802.247500", "183803.737500", "183805.227500", "183806.717500", "183808.207500", "183809.697500", "183811.187500", "183812.677500", "183814.167500", "183815.657500", "183817.147500", "183818.637500", "183820.127500", "183821.617500", "183823.107500", "183824.597500", "183826.087500", "183827.577500", "183829.067500", "183830.557500", "183832.047500", "183833.537500", "183835.027500", "183836.517500", "183838.007500", "183839.497500", "183840.987500", "183842.477500", "183843.967500", "183845.457500", "183846.947500", "183848.437500", "183849.927500", "183851.417500", "183852.907500", "183854.397500", "183855.887500", "183857.377500", "183858.867500", "183900.357500", "183901.847500", "183903.337500", "183904.827500", "183906.317500", "183907.807500", "183909.297500", "183910.787500", "183912.277500", "183913.767500", "183915.257500", "183916.747500", "183918.237500", "183919.727500", "183921.217500", "183922.707500", "183924.197500", "183925.687500", "183927.177500", "183928.667500", "183930.157500", "183931.647500", "183933.137500", "183934.627500", "183936.117500", "183937.607500", "183939.097500", "183940.587500", "183942.077500", "183943.567500", "183945.057500", "183946.547500", "183948.037500", "183949.527500", "183951.017500", "183952.507500", "183953.997500", "183955.487500", "183956.977500", "183958.467500", "183959.957500", "184001.447500", "184002.937500", "184004.427500", "184005.917500", "184007.407500", "184008.897500", "184010.387500", "184011.877500", "184013.367500", "184014.857500", "184016.347500", "184017.837500", "184019.327500", "184020.817500", "184022.307500", "184023.797500", "184025.287500", "184026.777500", "184028.267500", "184029.757500", "184031.247500", "184032.737500", "184034.227500", "184035.717500", "184037.207500", "184038.697500", "184040.187500", "184041.677500", "184043.167500", "184044.657500", "184046.147500", "184047.637500", "184049.127500", "184050.617500", "184052.107500", "184053.597500", "184055.087500", "184056.577500", "184058.067500", "184059.557500", "184101.047500", "184102.537500", "184104.027500", "184105.517500", "184107.007500", "184108.497500", "184109.987500", "184111.477500", "184112.967500", "184114.457500", "184115.947500", "184117.437500", "184118.927500", "184120.417500", "184121.907500", "184123.397500", "184124.887500", "184126.377500", "184127.867500", "184129.357500", "184130.847500", "184132.337500", "184133.827500", "184135.317500", "184136.807500", "184138.297500", "184139.787500", "184141.277500", "184142.767500", "184144.257500", "184145.747500", "184147.237500", "184148.727500", "184150.217500", "184151.707500", "184153.197500", "184154.687500", "184156.177500", "184157.667500", "184159.157500", "184200.647500", "184202.137500", "184203.627500", "184205.117500", "184206.607500", "184208.097500", "184209.587500", "184211.077500", "184212.567500", "184214.057500", "184215.547500", "184217.037500", "184218.527500", "184220.017500", "184221.507500", "184222.997500", "184224.487500", "184225.977500", "184227.467500", "184228.957500", "184230.447500", "184231.937500", "184233.427500", "184234.917500", "184236.407500", "184237.897500", "184239.387500", "184240.877500"],
      "ContentTime": ["183246.107000", "183246.110000", "183246.113000", "183246.116000", "183246.119000", "183246.122000", "183246.125000", "183246.128000", "183246.130000", "183246.133000", "183246.136000", "183246.144000", "183246.146000", "183246.149000", "183246.152000", "183246.155000", "183246.158000", "183246.161000", "183246.164000", "183246.167000", "183246.170000", "183246.172000", "183246.175000", "183246.178000", "183246.181000", "183246.184000", "183246.187000", "183246.190000", "183246.193000", "183246.196000", "183246.198000", "183246.201000", "183246.211000", "183246.214000", "183246.216000", "183246.219000", "183246.222000", "183246.225000", "183246.228000", "183246.231000", "183306.074000", "183306.077000", "183306.080000", "183306.083000", "183306.085000", "183306.088000", "183306.091000", "183306.094000", "183306.097000", "183306.100000", "183306.102000", "183306.105000", "183306.123000", "183306.126000", "183306.128000", "183306.131000", "183306.134000", "183306.137000", "183306.140000", "183306.143000", "183326.075000", "183326.078000", "183326.081000", "183326.083000", "183326.086000", "183326.089000", "183326.092000", "183326.095000", "183326.098000", "183326.110000", "183326.113000", "183326.115000", "183326.118000", "183326.121000", "183326.124000", "183326.127000", "183326.137000", "183326.140000", "183326.142000", "183326.145000", "183406.075000", "183406.078000", "183406.081000", "183406.084000", "183406.086000", "183406.101000", "183406.103000", "183406.106000", "183406.109000", "183406.112000", "183406.115000", "183406.118000", "183406.121000", "183406.124000", "183406.126000", "183406.129000", "183406.132000", "183406.135000", "183406.138000", "183406.141000", "183406.144000", "183406.146000", "183406.159000", "183406.162000", "183406.165000", "183406.168000", "183406.170000", "183406.173000", "183406.176000", "183406.179000", "183406.182000", "183406.185000", "183406.188000", "183446.074000", "183446.077000", "183446.080000", "183446.083000", "183446.086000", "183446.089000", "183446.092000", "183446.095000", "183446.097000", "183446.100000", "183446.103000", "183446.106000", "183446.115000", "183446.118000", "183446.121000", "183446.124000", "183446.127000", "183446.130000", "183446.134000", "183446.137000", "183446.140000", "183446.143000", "183446.146000", "183446.149000", "183446.152000", "183446.155000", "183526.074000", "183526.077000", "183526.080000", "183526.083000", "183526.086000", "183526.089000", "183526.091000", "183526.094000", "183526.097000", "183526.100000", "183526.103000", "183526.106000", "183526.109000", "183526.112000", "183526.115000", "183526.118000", "183526.121000", "183526.124000", "183526.126000", "183526.129000", "183526.132000", "183526.135000", "183526.138000", "183526.141000", "183526.144000", "183526.147000", "183526.150000", "183606.075000", "183606.078000", "183606.081000", "183606.084000", "183606.086000", "183606.089000", "183606.092000", "183606.095000", "183606.098000", "183606.101000", "183606.104000", "183606.107000", "183606.110000", "183606.112000", "183606.115000", "183606.118000", "183606.121000", "183606.124000", "183606.127000", "183606.130000", "183606.133000", "183606.136000", "183606.139000", "183606.142000", "183606.145000", "183606.148000", "183606.150000", "183646.074000", "183646.077000", "183646.080000", "183646.083000", "183646.086000", "183646.089000", "183646.092000", "183646.094000", "183646.097000", "183646.100000", "183646.103000", "183646.106000", "183646.109000", "183646.112000", "183646.115000", "183646.118000", "183646.121000", "183646.123000", "183646.127000", "183646.129000", "183646.132000", "183646.135000", "183646.138000", "183646.141000", "183646.144000", "183646.147000", "183646.150000", "183726.074000", "183726.077000", "183726.080000", "183726.083000", "183726.086000", "183726.089000", "183726.100000", "183726.103000", "183726.105000", "183726.108000", "183726.111000", "183726.114000", "183726.117000", "183726.120000", "183726.123000", "183726.126000", "183726.129000", "183726.132000", "183726.134000", "183726.137000", "183726.140000", "183726.143000", "183726.146000", "183726.149000", "183726.152000", "183726.155000", "183726.158000", "183806.075000", "183806.078000", "183806.081000", "183806.084000", "183806.087000", "183806.089000", "183806.092000", "183806.109000", "183806.112000", "183806.115000", "183806.117000", "183806.120000", "183806.123000", "183806.126000", "183806.129000", "183806.132000", "183806.135000", "183806.138000", "183806.141000", "183806.144000", "183806.147000", "183806.150000", "183806.153000", "183806.155000", "183806.158000", "183806.161000", "183806.164000", "183846.074000", "183846.077000", "183846.080000", "183846.083000", "183846.086000", "183846.089000", "183846.091000", "183846.094000", "183846.097000", "183846.100000", "183846.103000", "183846.106000", "183846.109000", "183846.112000", "183846.115000", "183846.118000", "183846.132000", "183846.135000", "183846.138000", "183846.141000", "183846.144000", "183846.147000", "183846.150000", "183846.153000", "183846.156000", "183846.159000", "183926.074000", "183926.077000", "183926.080000", "183926.083000", "183926.086000", "183926.089000", "183926.092000", "183926.095000", "183926.098000", "183926.101000", "183926.103000", "183926.106000", "183926.109000", "183926.112000", "183926.115000", "183926.118000", "183926.121000", "183926.124000", "183926.127000", "183926.130000", "183926.133000", "183926.136000", "183926.139000", "183926.142000", "183926.144000", "183926.147000", "183926.150000", "184006.074000", "184006.077000", "184006.080000", "184006.083000", "184006.086000", "184006.088000", "184006.091000", "184006.094000", "184006.097000", "184006.100000", "184006.103000", "184006.106000", "184006.109000", "184006.112000", "184006.115000", "184006.118000", "184006.120000", "184006.123000", "184006.126000", "184006.129000", "184006.132000", "184006.135000", "184006.138000", "184006.141000", "184006.144000", "184006.147000", "184006.149000", "184046.075000", "184046.078000", "184046.081000", "184046.084000", "184046.087000", "184046.090000", "184046.093000", "184046.095000", "184046.098000", "184046.101000", "184046.104000", "184046.107000", "184046.110000", "184046.113000", "184046.116000", "184046.119000", "184046.121000", "184046.124000", "184046.127000", "184046.130000", "184046.133000", "184046.136000", "184046.139000", "184046.142000", "184046.145000", "184046.148000", "184046.151000", "184126.074000", "184126.077000", "184126.080000", "184126.083000", "184126.086000", "184126.089000", "184126.092000", "184126.095000", "184126.097000", "184126.100000", "184126.103000", "184126.106000", "184126.109000", "184126.112000", "184126.115000", "184126.118000", "184126.121000", "184126.123000", "184126.126000", "184126.129000", "184126.138000", "184126.141000", "184126.144000", "184126.147000", "184126.150000", "184126.153000", "184126.156000", "184206.074000", "184206.077000", "184206.080000", "184206.083000", "184206.086000", "184206.088000", "184206.091000", "184206.094000", "184206.097000", "184206.100000", "184206.103000", "184206.106000", "184206.109000", "184206.112000", "184206.115000", "184206.117000", "184206.120000", "184206.123000", "184206.126000", "184206.129000", "184206.132000", "184206.135000", "184206.142000", "184206.145000", "184206.148000", "184206.151000", "184206.154000", "184243.089000", "184243.092000", "184243.095000", "184243.098000", "184243.101000", "184243.104000", "184243.107000", "184243.138000", "184243.141000", "184243.143000", "184243.146000", "184243.149000", "184243.152000", "184243.155000", "184243.158000", "184243.161000", "184243.164000", "184243.167000", "184243.170000", "184243.172000", "184243.175000", "184243.178000", "184243.181000", "184243.184000", "184243.187000"],
