{
  "AcquisitionMatrixPE": 104,
  "AcquisitionNumber": 1,
  "AcquisitionTime": "10:18:39.035000",
  "BandwidthPerPixelPhaseEncode": 17.17,
  "BaseResolution": 104,
  "BodyPartExamined": "BRAIN",
  "CoilCombinationMethod": "Sum of Squares",
  "ConsistencyInfo": "N4_VE11C_LATEST_20160120",
  "ConversionSoftware": "dcm2niix",
  "ConversionSoftwareVersion": "v1.0.20230411",
  "DerivedVendorReportedEchoSpacing": 0.000560011,
  "DeviceSerialNumber": "167006",
  "DwellTime": 2.1e-06,
  "EchoTime": 0.037,
  "EchoTrainLength": 104,
  "EffectiveEchoSpacing": 0.000560011,
  "FlipAngle": 52,
  "HeudiconvVersion": "0.5.3.post861+ge7d3c7f",
  "ImageComments": "Unaliased MB4/PE3/LB",
  "ImageOrientationPatientDICOM": [0.997308, 0.0725117, 0.0108831, -0.0648427, 0.941477, -0.330783],
  "ImageOrientationText": "Tra>Cor(-19.2)>Sag(2.0)",
  "ImageType": [
    "ORIGINAL",
    "PRIMARY",
    "M",
    "MB",
    "ND",
    "MOSAIC"
],
  "ImagingFrequency": 123.24959,
  "InPlanePhaseEncodingDirectionDICOM": "COL",
  "InstitutionAddress": "Chemin Queen-Mary 4565,Montreal,District,CA,H3W 1W5",
  "InstitutionName": "IUGM",
  "InstitutionalDepartmentName": "Department",
  "MRAcquisitionType": "2D",
  "MagneticFieldStrength": 3,
  "Manufacturer": "Siemens",
  "ManufacturersModelName": "Prisma_fit",
  "MatrixCoilMode": "SENSE",
  "Modality": "MR",
  "MultibandAccelerationFactor": 4,
  "NonlinearGradientCorrection": false,
  "PartialFourier": 1,
  "PatientPosition": "HFS",
  "PercentPhaseFOV": 100,
  "PercentSampling": 100,
  "PhaseEncodingDirection": "j",
  "PhaseEncodingSteps": 104,
  "PhaseResolution": 1,
  "PixelBandwidth": 2290,
  "ProcedureStepDescription": "video^friends",
  "ProtocolName": "func_task-friends-s07e09a",
  "PulseSequenceDetails": "%CustomerSeq%\\cmrr_mbep2d_bold",
  "ReceiveCoilActiveElements": "HC1-7;NC1,2",
  "ReceiveCoilName": "HeadNeck_64",
  "ReconMatrixPE": 104,
  "RepetitionTime": 1.49,
  "SAR": 0.0528923,
  "ScanOptions": "FS",
  "ScanningSequence": "EP",
  "SequenceName": "epfid2d1_104",
  "SequenceVariant": "SK\\SS",
  "SeriesDescription": "func_task-friends-s07e09a",
  "SeriesNumber": 10,
  "ShimSetting": [615, -7226, -8805, 609, 140, -59, -73, 63],
  "SliceThickness": 2,
  "SliceTiming": [0, 0.785, 0.1, 0.8825, 0.1975, 0.98, 0.295, 1.0775, 0.3925, 1.1775, 0.49, 1.275, 0.59, 1.3725, 0.6875, 0, 0.785, 0.1, 0.8825, 0.1975, 0.98, 0.295, 1.0775, 0.3925, 1.1775, 0.49, 1.275, 0.59, 1.3725, 0.6875, 0, 0.785, 0.1, 0.8825, 0.1975, 0.98, 0.295, 1.0775, 0.3925, 1.1775, 0.49, 1.275, 0.59, 1.3725, 0.6875, 0, 0.785, 0.1, 0.8825, 0.1975, 0.98, 0.295, 1.0775, 0.3925, 1.1775, 0.49, 1.275, 0.59, 1.3725, 0.6875],
  "SoftwareVersions": "syngo MR E11",
  "SpacingBetweenSlices": 2,
  "StationName": "MRC35049",
  "TaskName": "s07e09a",
  "TotalReadoutTime": 0.0576811,
  "TxRefAmp": 258.476,
  "WipMemBlock": "7f7a7922-07bb-425f-9105-81deb63833a2||Sequence: R017 ve11c/master r/75a17815+; Jun 28 2022 16:32:11 by eja",
  "dcmmeta_affine": [
    [-1.9946163892745972, -0.12968532741069794, 0.0684635192155838, 107.94509887695312],
    [-0.14502336084842682, 1.88295316696167, -0.6583733558654785, -62.73698806762695],
    [0.021766116842627525, 0.6615655422210693, 1.8872883319854736, -55.167728424072266],
    [0.0, 0.0, 0.0, 1.0]
],
  "dcmmeta_reorient_transform": [
    [0.0, -1.0, 0.0, 103.0],
    [1.0, 0.0, 0.0, 0.0],
    [0.0, 0.0, 1.0, 0.0],
    [0.0, 0.0, 0.0, 1.0]
],
  "dcmmeta_shape": [104, 104, 60, 450],
  "dcmmeta_slice_dim": 2,
  "dcmmeta_version": 0.6,
  "global": {
    "const": {
      "AcquisitionMatrix": [104, 0, 0, 104],
      "AngioFlag": "N",
      "BitsAllocated": 16,
      "BitsStored": 16,
      "BodyPartExamined": "BRAIN",
      "Columns": 832,
      "EchoNumbers": 1,
      "EchoTime": 37.0,
      "EchoTrainLength": 104,
      "FlipAngle": 52.0,
      "HighBit": 15,
      "ImageOrientationPatient": [0.99730818485732, 0.07251167809237, 0.0108830582477, -0.0648426642856, 0.94147659822357, -0.3307827744694],
      "ImagePositionPatient": [-773.42240902096, -869.39065678353, 245.86051477846],
      "ImageType": [
        "ORIGINAL",
        "PRIMARY",
        "M",
        "MB",
        "ND",
        "MOSAIC"
],
      "ImagedNucleus": "1H",
      "ImagingFrequency": 123.24959,
      "InPlanePhaseEncodingDirection": "COL",
      "MRAcquisitionType": "2D",
      "MagneticFieldStrength": 3.0,
      "Manufacturer": "SIEMENS",
      "ManufacturerModelName": "Prisma_fit",
      "Modality": "MR",
      "NumberOfAverages": 1.0,
      "NumberOfPhaseEncodingSteps": 104,
      "PercentPhaseFieldOfView": 100.0,
      "PercentSampling": 100.0,
      "PerformedProcedureStepStartTime": "101458.744000",
      "PhotometricInterpretation": "MONOCHROME2",
      "PixelBandwidth": 2290.0,
      "PixelRepresentation": 0,
      "PixelSpacing": [2.0, 2.0],
      "ProtocolName": "func_task-friends-s07e09a",
      "RepetitionTime": 1490.0,
      "Rows": 832,
      "SAR": 0.05289227640651,
      "SamplesPerPixel": 1,
      "ScanOptions": "FS",
      "ScanningSequence": "EP",
      "SequenceName": "epfid2d1_104",
      "SequenceVariant": [
        "SK",
        "SS"
],
      "SeriesDescription": "func_task-friends-s07e09a",
      "SeriesNumber": 10,
      "SeriesTime": "102001.561000",
      "SliceLocation": -27.711375456598,
      "SliceThickness": 2.0,
      "SmallestImagePixelValue": 0,
      "SoftwareVersions": "syngo MR E11",
      "SpacingBetweenSlices": 2.0000000009271,
      "SpecificCharacterSet": "ISO_IR 100",
      "StudyID": "1",
      "StudyTime": "101458.666000",
      "TransmitCoilName": "Body",
      "VariableFlipAngleFlag": "N",
      "WindowCenterWidthExplanation": "Algo1",
      "dBdt": 0.0},
    "slices": {}
  },
  "time": {
    "samples": {
      "AcquisitionNumber": [1, 2, 3, 4, 5, 6, 7, 8, 9, 10, 11, 12, 13, 14, 15, 16, 17, 18, 19, 20, 21, 22, 23, 24, 25, 26, 27, 28, 29, 30, 31, 32, 33, 34, 35, 36, 37, 38, 39, 40, 41, 42, 43, 44, 45, 46, 47, 48, 49, 50, 51, 52, 53, 54, 55, 56, 57, 58, 59, 60, 61, 62, 63, 64, 65, 66, 67, 68, 69, 70, 71, 72, 73, 74, 75, 76, 77, 78, 79, 80, 81, 82, 83, 84, 85, 86, 87, 88, 89, 90, 91, 92, 93, 94, 95, 96, 97, 98, 99, 100, 101, 102, 103, 104, 105, 106, 107, 108, 109, 110, 111, 112, 113, 114, 115, 116, 117, 118, 119, 120, 121, 122, 123, 124, 125, 126, 127, 128, 129, 130, 131, 132, 133, 134, 135, 136, 137, 138, 139, 140, 141, 142, 143, 144, 145, 146, 147, 148, 149, 150, 151, 152, 153, 154, 155, 156, 157, 158, 159, 160, 161, 162, 163, 164, 165, 166, 167, 168, 169, 170, 171, 172, 173, 174, 175, 176, 177, 178, 179, 180, 181, 182, 183, 184, 185, 186, 187, 188, 189, 190, 191, 192, 193, 194, 195, 196, 197, 198, 199, 200, 201, 202, 203, 204, 205, 206, 207, 208, 209, 210, 211, 212, 213, 214, 215, 216, 217, 218, 219, 220, 221, 222, 223, 224, 225, 226, 227, 228, 229, 230, 231, 232, 233, 234, 235, 236, 237, 238, 239, 240, 241, 242, 243, 244, 245, 246, 247, 248, 249, 250, 251, 252, 253, 254, 255, 256, 257, 258, 259, 260, 261, 262, 263, 264, 265, 266, 267, 268, 269, 270, 271, 272, 273, 274, 275, 276, 277, 278, 279, 280, 281, 282, 283, 284, 285, 286, 287, 288, 289, 290, 291, 292, 293, 294, 295, 296, 297, 298, 299, 300, 301, 302, 303, 304, 305, 306, 307, 308, 309, 310, 311, 312, 313, 314, 315, 316, 317, 318, 319, 320, 321, 322, 323, 324, 325, 326, 327, 328, 329, 330, 331, 332, 333, 334, 335, 336, 337, 338, 339, 340, 341, 342, 343, 344, 345, 346, 347, 348, 349, 350, 351, 352, 353, 354, 355, 356, 357, 358, 359, 360, 361, 362, 363, 364, 365, 366, 367, 368, 369, 370, 371, 372, 373, 374, 375, 376, 377, 378, 379, 380, 381, 382, 383, 384, 385, 386, 387, 388, 389, 390, 391, 392, 393, 394, 395, 396, 397, 398, 399, 400, 401, 402, 403, 404, 405, 406, 407, 408, 409, 410, 411, 412, 413, 414, 415, 416, 417, 418, 419, 420, 421, 422, 423, 424, 425, 426, 427, 428, 429, 430, 431, 432, 433, 434, 435, 436, 437, 438, 439, 440, 441, 442, 443, 444, 445, 446, 447, 448, 449, 450],
      "AcquisitionTime": ["101839.035000", "101840.525000", "101842.015000", "101843.505000", "101844.995000", "101846.485000", "101847.975000", "101849.465000", "101850.955000", "101852.445000", "101853.935000", "101855.425000", "101856.915000", "101858.405000", "101859.895000", "101901.385000", "101902.875000", "101904.365000", "101905.855000", "101907.345000", "101908.835000", "101910.325000", "101911.815000", "101913.305000", "101914.795000", "101916.285000", "101917.775000", "101919.265000", "101920.755000", "101922.245000", "101923.735000", "101925.225000", "101926.715000", "101928.205000", "101929.695000", "101931.185000", "101932.675000", "101934.165000", "101935.655000", "101937.145000", "101938.635000", "101940.125000", "101941.615000", "101943.105000", "101944.595000", "101946.085000", "101947.575000", "101949.065000", "101950.555000", "101952.045000", "101953.535000", "101955.025000", "101956.515000", "101958.005000", "101959.495000", "102000.985000", "102002.475000", "102003.965000", "102005.455000", "102006.945000", "102008.435000", "102009.925000", "102011.415000", "102012.905000", "102014.395000", "102015.885000", "102017.375000", "102018.865000", "102020.355000", "102021.845000", "102023.335000", "102024.825000", "102026.315000", "102027.805000", "102029.295000", "102030.785000", "102032.275000", "102033.765000", "102035.255000", "102036.745000", "102038.235000", "102039.725000", "102041.215000", "102042.705000", "102044.195000", "102045.685000", "102047.175000", "102048.665000", "102050.155000", "102051.645000", "102053.135000", "102054.625000", "102056.115000", "102057.605000", "102059.095000", "102100.585000", "102102.075000", "102103.565000", "102105.055000", "102106.545000", "102108.035000", "102109.525000", "102111.015000", "102112.505000", "102113.995000", "102115.485000", "102116.975000", "102118.465000", "102119.955000", "102121.445000", "102122.935000", "102124.425000", "102125.915000", "102127.405000", "102128.895000", "102130.385000", "102131.875000", "102133.365000", "102134.855000", "102136.345000", "102137.835000", "102139.325000", "102140.815000", "102142.305000", "102143.795000", "102145.285000", "102146.775000", "102148.265000", "102149.755000", "102151.245000", "102152.735000", "102154.225000", "102155.715000", "102157.205000", "102158.695000", "102200.185000", "102201.675000", "102203.165000", "102204.655000", "102206.145000", "102207.635000", "102209.125000", "102210.615000", "102212.105000", "102213.595000", "102215.085000", "102216.575000", "102218.065000", "102219.555000", "102221.045000", "102222.535000", "102224.025000", "102225.515000", "102227.005000", "102228.495000", "102229.985000", "102231.475000", "102232.965000", "102234.455000", "102235.945000", "102237.435000", "102238.925000", "102240.415000", "102241.905000", "102243.395000", "102244.885000", "102246.375000", "102247.865000", "102249.355000", "102250.845000", "102252.335000", "102253.825000", "102255.315000", "102256.805000", "102258.295000", "102259.785000", "102301.275000", "102302.765000", "102304.255000", "102305.745000", "102307.235000", "102308.725000", "102310.215000", "102311.705000", "102313.195000", "102314.685000", "102316.175000", "102317.665000", "102319.155000", "102320.645000", "102322.135000", "102323.625000", "102325.115000", "102326.605000", "102328.095000", "102329.585000", "102331.075000", "102332.565000", "102334.055000", "102335.545000", "102337.035000", "102338.525000", "102340.015000", "102341.505000", "102342.995000", "102344.485000", "102345.975000", "102347.465000", "102348.955000", "102350.445000", "102351.935000", "102353.425000", "102354.915000", "102356.405000", "102357.895000", "102359.385000", "102400.875000", "102402.365000", "102403.855000", "102405.345000", "102406.835000", "102408.325000", "102409.815000", "102411.305000", "102412.795000", "102414.285000", "102415.775000", "102417.265000", "102418.755000", "102420.245000", "102421.735000", "102423.225000", "102424.715000", "102426.205000", "102427.695000", "102429.185000", "102430.675000", "102432.165000", "102433.655000", "102435.145000", "102436.635000", "102438.125000", "102439.615000", "102441.105000", "102442.595000", "102444.085000", "102445.575000", "102447.065000", "102448.555000", "102450.045000", "102451.535000", "102453.025000", "102454.515000", "102456.005000", "102457.495000", "102458.985000", "102500.475000", "102501.965000", "102503.455000", "102504.945000", "102506.435000", "102507.925000", "102509.415000", "102510.905000", "102512.395000", "102513.885000", "102515.375000", "102516.865000", "102518.355000", "102519.845000", "102521.335000", "102522.825000", "102524.315000", "102525.805000", "102527.295000", "102528.785000", "102530.275000", "102531.765000", "102533.255000", "102534.745000", "102536.235000", "102537.725000", "102539.215000", "102540.705000", "102542.195000", "102543.685000", "102545.175000", "102546.665000", "102548.155000", "102549.645000", "102551.135000", "102552.625000", "102554.115000", "102555.605000", "102557.095000", "102558.585000", "102600.075000", "102601.565000", "102603.055000", "102604.545000", "102606.035000", "102607.525000", "102609.015000", "102610.505000", "102611.995000", "102613.485000", "102614.975000", "102616.465000", "102617.955000", "102619.445000", "102620.935000", "102622.425000", "102623.915000", "102625.405000", "102626.895000", "102628.385000", "102629.875000", "102631.365000", "102632.855000", "102634.345000", "102635.835000", "102637.325000", "102638.815000", "102640.305000", "102641.795000", "102643.285000", "102644.775000", "102646.265000", "102647.755000", "102649.245000", "102650.735000", "102652.225000", "102653.715000", "102655.205000", "102656.695000", "102658.185000", "102659.675000", "102701.165000", "102702.655000", "102704.145000", "102705.635000", "102707.125000", "102708.615000", "102710.105000", "102711.595000", "102713.085000", "102714.575000", "102716.065000", "102717.555000", "102719.045000", "102720.535000", "102722.025000", "102723.515000", "102725.005000", "102726.495000", "102727.985000", "102729.475000", "102730.965000", "102732.455000", "102733.945000", "102735.435000", "102736.925000", "102738.415000", "102739.905000", "102741.395000", "102742.885000", "102744.375000", "102745.865000", "102747.355000", "102748.845000", "102750.335000", "102751.825000", "102753.315000", "102754.805000", "102756.295000", "102757.785000", "102759.275000", "102800.765000", "102802.255000", "102803.745000", "102805.235000", "102806.725000", "102808.215000", "102809.705000", "102811.195000", "102812.685000", "102814.175000", "102815.665000", "102817.155000", "102818.645000", "102820.135000", "102821.625000", "102823.115000", "102824.605000", "102826.095000", "102827.585000", "102829.075000", "102830.565000", "102832.055000", "102833.545000", "102835.035000", "102836.525000", "102838.015000", "102839.505000", "102840.995000", "102842.485000", "102843.975000", "102845.465000", "102846.955000", "102848.445000", "102849.935000", "102851.425000", "102852.915000", "102854.405000", "102855.895000", "102857.385000", "102858.875000", "102900.365000", "102901.855000", "102903.345000", "102904.835000", "102906.325000", "102907.815000", "102909.305000", "102910.795000", "102912.285000", "102913.775000", "102915.265000", "102916.755000", "102918.245000", "102919.735000", "102921.225000", "102922.715000", "102924.205000", "102925.695000", "102927.185000", "102928.675000", "102930.165000", "102931.655000", "102933.145000", "102934.635000", "102936.125000", "102937.615000", "102939.105000", "102940.595000", "102942.085000", "102943.575000", "102945.065000", "102946.555000", "102948.045000"],
      "ContentTime": ["102001.563000", "102001.567000", "102001.570000", "102001.572000", "102001.575000", "102001.578000", "102001.581000", "102001.584000", "102001.587000", "102001.590000", "102001.593000", "102001.600000", "102001.603000", "102001.606000", "102001.609000", "102001.612000", "102001.615000", "102001.618000", "102001.621000", "102001.624000", "102001.627000", "102001.630000", "102001.633000", "102001.636000", "102001.639000", "102001.646000", "102001.649000", "102001.652000", "102001.655000", "102001.658000", "102021.535000", "102021.538000", "102021.541000", "102021.544000", "102021.547000", "102021.550000", "102021.553000", "102021.556000", "102021.575000", "102021.578000", "102021.581000", "102021.584000", "102021.587000", "102021.590000", "102021.593000", "102021.596000", "102021.599000", "102021.602000", "102021.605000", "102021.607000", "102041.535000", "102041.538000", "102041.541000", "102041.544000", "102041.547000", "102041.550000", "102041.553000", "102041.556000", "102041.559000", "102041.562000", "102041.565000", "102041.568000", "102041.571000", "102041.574000", "102041.577000", "102041.580000", "102041.583000", "102041.586000", "102041.589000", "102041.592000", "102101.535000", "102101.538000", "102101.541000", "102101.544000", "102101.547000", "102101.550000", "102101.553000", "102101.556000", "102101.559000", "102101.562000", "102101.565000", "102101.568000", "102101.571000", "102101.574000", "102101.577000", "102101.580000", "102101.583000", "102101.586000", "102101.588000", "102101.591000", "102141.535000", "102141.538000", "102141.541000", "102141.544000", "102141.547000", "102141.550000", "102141.553000", "102141.556000", "102141.559000", "102141.562000", "102141.565000", "102141.568000", "102141.571000", "102141.574000", "102141.577000", "102141.580000", "102141.583000", "102141.586000", "102141.589000", "102141.592000", "102141.595000", "102141.598000", "102141.601000", "102141.604000", "102141.607000", "102141.610000", "102141.613000", "102141.616000", "102141.619000", "102221.535000", "102221.538000", "102221.541000", "102221.544000", "102221.547000", "102221.550000", "102221.553000", "102221.556000", "102221.559000", "102221.562000", "102221.565000", "102221.568000", "102221.571000", "102221.574000", "102221.577000", "102221.580000", "102221.583000", "102221.586000", "102221.589000", "102221.592000", "102221.595000", "102221.598000", "102221.601000", "102221.604000", "102221.607000", "102221.610000", "102221.613000", "102301.535000", "102301.538000", "102301.541000", "102301.544000", "102301.547000", "102301.550000", "102301.553000", "102301.556000", "102301.559000", "102301.562000", "102301.573000", "102301.576000", "102301.579000", "102301.581000", "102301.584000", "102301.587000", "102301.590000", "102301.593000", "102301.596000", "102301.599000", "102301.602000", "102301.606000", "102301.609000", "102301.612000", "102301.615000", "102301.618000", "102341.535000", "102341.538000", "102341.541000", "102341.544000", "102341.547000", "102341.550000", "102341.553000", "102341.556000", "102341.559000", "102341.562000", "102341.565000", "102341.568000", "102341.571000", "102341.574000", "102341.577000", "102341.580000", "102341.583000", "102341.586000", "102341.589000", "102341.592000", "102341.595000", "102341.598000", "102341.601000", "102341.604000", "102341.607000", "102341.610000", "102341.613000", "102421.535000", "102421.538000", "102421.541000", "102421.544000", "102421.547000", "102421.550000", "102421.554000", "102421.556000", "102421.559000", "102421.562000", "102421.566000", "102421.569000", "102421.572000", "102421.575000", "102421.578000", "102421.581000", "102421.584000", "102421.587000", "102421.590000", "102421.593000", "102421.596000", "102421.599000", "102421.602000", "102421.605000", "102421.608000", "102421.611000", "102421.614000", "102501.535000", "102501.538000", "102501.541000", "102501.544000", "102501.547000", "102501.550000", "102501.553000", "102501.556000", "102501.574000", "102501.577000", "102501.580000", "102501.583000", "102501.586000", "102501.589000", "102501.592000", "102501.595000", "102501.598000", "102501.601000", "102501.604000", "102501.607000", "102501.610000", "102501.613000", "102501.616000", "102501.619000", "102501.622000", "102501.625000", "102501.628000", "102521.535000", "102521.538000", "102521.541000", "102521.544000", "102521.547000", "102521.551000", "102521.554000", "102521.557000", "102521.560000", "102521.563000", "102521.566000", "102521.569000", "102521.572000", "102601.535000", "102601.538000", "102601.541000", "102601.544000", "102601.547000", "102601.550000", "102601.553000", "102601.556000", "102601.559000", "102601.562000", "102601.565000", "102601.568000", "102601.571000", "102601.574000", "102601.577000", "102601.580000", "102601.583000", "102601.586000", "102601.589000", "102601.592000", "102601.595000", "102601.598000", "102601.601000", "102601.604000", "102601.607000", "102601.610000", "102601.613000", "102641.535000", "102641.538000", "102641.541000", "102641.544000", "102641.547000", "102641.550000", "102641.553000", "102641.556000", "102641.559000", "102641.562000", "102641.565000", "102641.568000", "102641.571000", "102641.574000", "102641.578000", "102641.581000", "102641.584000", "102641.587000", "102641.590000", "102641.593000", "102641.596000", "102641.599000", "102641.602000", "102641.605000", "102641.608000", "102641.611000", "102641.614000", "102721.535000", "102721.538000", "102721.541000", "102721.544000", "102721.547000", "102721.550000", "102721.553000", "102721.557000", "102721.560000", "102721.563000", "102721.566000", "102721.569000", "102721.572000", "102721.575000", "102721.578000", "102721.581000", "102721.584000", "102721.587000", "102721.590000", "102721.593000", "102721.596000", "102721.599000", "102721.602000", "102721.605000", "102721.608000", "102721.611000", "102721.614000", "102801.535000", "102801.538000", "102801.548000", "102801.551000", "102801.554000", "102801.557000", "102801.560000", "102801.563000", "102801.566000", "102801.569000", "102801.572000", "102801.575000", "102801.578000", "102801.581000", "102801.584000", "102801.587000", "102801.590000", "102801.593000", "102801.597000", "102801.600000", "102801.603000", "102801.606000", "102801.609000", "102801.612000", "102801.615000", "102801.618000", "102801.621000", "102841.535000", "102841.538000", "102841.541000", "102841.544000", "102841.547000", "102841.550000", "102841.553000", "102841.556000", "102841.559000", "102841.563000", "102841.566000", "102841.569000", "102841.572000", "102841.575000", "102841.578000", "102841.581000", "102841.584000", "102841.587000", "102841.590000", "102841.593000", "102841.596000", "102841.599000", "102841.602000", "102841.605000", "102841.608000", "102841.611000", "102841.614000", "102921.535000", "102921.538000", "102921.541000", "102921.544000", "102921.547000", "102921.550000", "102921.553000", "102921.556000", "102921.559000", "102921.562000", "102921.565000", "102921.568000", "102921.571000", "102921.574000", "102921.577000", "102921.580000", "102921.583000", "102921.599000", "102921.602000", "102921.605000", "102921.608000", "102921.611000", "102921.614000", "102921.617000", "102921.620000", "102921.623000", "102954.395000", "102954.398000", "102954.401000", "102954.405000", "102954.408000", "102954.411000", "102954.414000", "102954.417000", "102954.420000", "102954.423000", "102954.426000", "102954.429000", "102954.432000", "102954.435000", "102954.438000", "102954.441000", "102954.445000", "102954.448000", "102954.451000", "102954.454000", "102954.457000", "102954.460000", "102954.463000"],
