{
  "AcquisitionMatrixPE": 104,
  "AcquisitionNumber": 1,
  "AcquisitionTime": "15:25:58.522500",
  "BandwidthPerPixelPhaseEncode": 17.17,
  "BaseResolution": 104,
  "BodyPartExamined": "BRAIN",
  "CoilString": "HC1-7;NC1_2",
  "ConsistencyInfo": "N4_VE11C_LATEST_20160120",
  "ConversionSoftware": "dcm2niix",
  "ConversionSoftwareVersion": "v1.0.20190720  (JP2:OpenJPEG) GCC7.3.0",
  "DerivedVendorReportedEchoSpacing": 0.000560011,
  "DeviceSerialNumber": "167006",
  "DwellTime": 2.1e-06,
  "EchoTime": 0.037,
  "EchoTrainLength": 104,
  "EffectiveEchoSpacing": 0.000560011,
  "FlipAngle": 52,
  "ImageComments": "Unaliased_MB4_PE3_LB",
  "ImageOrientationPatientDICOM": [0.997823, -0.0590498, 0.0293762, 0.0657506, 0.925528, -0.372926],
  "ImageType": [
    "ORIGINAL",
    "PRIMARY",
    "M",
    "MB",
    "ND",
    "MOSAIC"
],
  "ImagingFrequency": 123.259,
  "InPlanePhaseEncodingDirectionDICOM": "COL",
  "InstitutionAddress": "Chemin_Queen-Mary_4565_Montreal_District_CA_H3W_1W5",
  "InstitutionName": "IUGM",
  "InstitutionalDepartmentName": "Department",
  "MRAcquisitionType": "2D",
  "MagneticFieldStrength": 3,
  "Manufacturer": "Siemens",
  "ManufacturersModelName": "Prisma_fit",
  "Modality": "MR",
  "MultibandAccelerationFactor": 4,
  "PartialFourier": 1,
  "PatientPosition": "HFS",
  "PercentPhaseFOV": 100,
  "PhaseEncodingDirection": "j",
  "PhaseEncodingSteps": 104,
  "PhaseResolution": 1,
  "PixelBandwidth": 2290,
  "ProcedureStepDescription": "video_friends",
  "ProtocolName": "func_task-s02e23a",
  "PulseSequenceDetails": "%CustomerSeq%_cmrr_mbep2d_bold",
  "ReceiveCoilActiveElements": "HC1-7;NC1,2",
  "ReceiveCoilName": "HeadNeck_64",
  "ReconMatrixPE": 104,
  "RepetitionTime": 1.49,
  "SAR": 0.0278275,
  "ScanOptions": "FS",
  "ScanningSequence": "EP",
  "SequenceName": "epfid2d1_104",
  "SequenceVariant": "SK_SS",
  "SeriesDescription": "func_task-s02e23a",
  "SeriesNumber": 14,
  "ShimSetting": [642, -7254, -8850, 580, 22, -251, -107, 6],
  "SliceThickness": 2,
  "SliceTiming": [0, 0.7825, 0.0975, 0.88, 0.195, 0.98, 0.2925, 1.0775, 0.39, 1.175, 0.49, 1.2725, 0.5875, 1.37, 0.685, 0, 0.7825, 0.0975, 0.88, 0.195, 0.98, 0.2925, 1.0775, 0.39, 1.175, 0.49, 1.2725, 0.5875, 1.37, 0.685, 0, 0.7825, 0.0975, 0.88, 0.195, 0.98, 0.2925, 1.0775, 0.39, 1.175, 0.49, 1.2725, 0.5875, 1.37, 0.685, 0, 0.7825, 0.0975, 0.88, 0.195, 0.98, 0.2925, 1.0775, 0.39, 1.175, 0.49, 1.2725, 0.5875, 1.37, 0.685],
  "SoftwareVersions": "syngo_MR_E11",
  "SpacingBetweenSlices": 2,
  "StationName": "MRC35049",
  "TaskName": "friends",
  "TotalReadoutTime": 0.0576811,
  "TxRefAmp": 215.732,
  "WipMemBlock": "398a60bf-3465-46ce-8c95-5e7bc4e0d231||Sequence: R016 ve11c/master r/e634e98; Dec 19 2017 11:00:25 by eja",
  "dcmmeta_affine": [
    [-1.9956454038619995, 0.13150115311145782, 0.010334538295865059, 94.87631225585938],
    [0.11809960007667542, 1.8510569334030151, -0.7480915188789368, -76.68777465820312],
    [0.058752357959747314, 0.7458524703979492, 1.8547916412353516, -75.71700286865234],
    [0.0, 0.0, 0.0, 1.0]
],
  "dcmmeta_reorient_transform": [
    [0.0, -1.0, 0.0, 103.0],
    [1.0, 0.0, 0.0, 0.0],
    [0.0, 0.0, 1.0, 0.0],
    [0.0, 0.0, 0.0, 1.0]
],
  "dcmmeta_shape": [104, 104, 60, 456],
  "dcmmeta_slice_dim": 2,
  "dcmmeta_version": 0.6,
  "global": {
    "const": {
      "AcquisitionMatrix": [104, 0, 0, 104],
      "AngioFlag": "N",
      "BitsAllocated": 16,
      "BitsStored": 16,
      "BodyPartExamined": "BRAIN",
      "Columns": 832,
      "EchoNumbers": 1,
      "EchoTime": 37.0,
      "EchoTrainLength": 104,
      "FlipAngle": 52.0,
      "HighBit": 15,
      "ImageOrientationPatient": [0.99782271027806, -0.0590498011221, 0.02937617811745, 0.0657505755306, 0.92552844131752, -0.3729262207592],
      "ImagePositionPatient": [-882.70228494431, -744.76753416936, 251.2102300214],
      "ImageType": [
        "ORIGINAL",
        "PRIMARY",
        "M",
        "MB",
        "ND",
        "MOSAIC"
],
      "ImagedNucleus": "1H",
      "ImagingFrequency": 123.259113,
      "InPlanePhaseEncodingDirection": "COL",
      "MRAcquisitionType": "2D",
      "MagneticFieldStrength": 3.0,
      "Manufacturer": "SIEMENS",
      "ManufacturerModelName": "Prisma_fit",
      "Modality": "MR",
      "NumberOfAverages": 1.0,
      "NumberOfPhaseEncodingSteps": 104,
      "PercentPhaseFieldOfView": 100.0,
      "PercentSampling": 100.0,
      "PerformedProcedureStepStartTime": "144815.164000",
      "PhotometricInterpretation": "MONOCHROME2",
      "PixelBandwidth": 2290.0,
      "PixelRepresentation": 0,
      "PixelSpacing": [2.0, 2.0],
      "ProtocolName": "func_task-s02e23a",
      "RepetitionTime": 1490.0,
      "Rows": 832,
      "SAR": 0.02782746097174,
      "SamplesPerPixel": 1,
      "ScanOptions": "FS",
      "ScanningSequence": "EP",
      "SequenceName": "epfid2d1_104",
      "SequenceVariant": [
        "SK",
        "SS"
],
      "SeriesDescription": "func_task-s02e23a",
      "SeriesNumber": 14,
      "SeriesTime": "152721.330000",
      "SliceLocation": -41.044646434733,
      "SliceThickness": 2.0,
      "SmallestImagePixelValue": 0,
      "SoftwareVersions": "syngo MR E11",
      "SpacingBetweenSlices": 1.9999999693451,
      "SpecificCharacterSet": "ISO_IR 100",
      "StudyID": "1",
      "StudyTime": "144815.104000",
      "TransmitCoilName": "Body",
      "VariableFlipAngleFlag": "N",
      "WindowCenterWidthExplanation": "Algo1",
      "dBdt": 0.0},
    "slices": {}
  },
  "time": {
    "samples": {
      "AcquisitionNumber": [1, 2, 3, 4, 5, 6, 7, 8, 9, 10, 11, 12, 13, 14, 15, 16, 17, 18, 19, 20, 21, 22, 23, 24, 25, 26, 27, 28, 29, 30, 31, 32, 33, 34, 35, 36, 37, 38, 39, 40, 41, 42, 43, 44, 45, 46, 47, 48, 49, 50, 51, 52, 53, 54, 55, 56, 57, 58, 59, 60, 61, 62, 63, 64, 65, 66, 67, 68, 69, 70, 71, 72, 73, 74, 75, 76, 77, 78, 79, 80, 81, 82, 83, 84, 85, 86, 87, 88, 89, 90, 91, 92, 93, 94, 95, 96, 97, 98, 99, 100, 101, 102, 103, 104, 105, 106, 107, 108, 109, 110, 111, 112, 113, 114, 115, 116, 117, 118, 119, 120, 121, 122, 123, 124, 125, 126, 127, 128, 129, 130, 131, 132, 133, 134, 135, 136, 137, 138, 139, 140, 141, 142, 143, 144, 145, 146, 147, 148, 149, 150, 151, 152, 153, 154, 155, 156, 157, 158, 159, 160, 161, 162, 163, 164, 165, 166, 167, 168, 169, 170, 171, 172, 173, 174, 175, 176, 177, 178, 179, 180, 181, 182, 183, 184, 185, 186, 187, 188, 189, 190, 191, 192, 193, 194, 195, 196, 197, 198, 199, 200, 201, 202, 203, 204, 205, 206, 207, 208, 209, 210, 211, 212, 213, 214, 215, 216, 217, 218, 219, 220, 221, 222, 223, 224, 225, 226, 227, 228, 229, 230, 231, 232, 233, 234, 235, 236, 237, 238, 239, 240, 241, 242, 243, 244, 245, 246, 247, 248, 249, 250, 251, 252, 253, 254, 255, 256, 257, 258, 259, 260, 261, 262, 263, 264, 265, 266, 267, 268, 269, 270, 271, 272, 273, 274, 275, 276, 277, 278, 279, 280, 281, 282, 283, 284, 285, 286, 287, 288, 289, 290, 291, 292, 293, 294, 295, 296, 297, 298, 299, 300, 301, 302, 303, 304, 305, 306, 307, 308, 309, 310, 311, 312, 313, 314, 315, 316, 317, 318, 319, 320, 321, 322, 323, 324, 325, 326, 327, 328, 329, 330, 331, 332, 333, 334, 335, 336, 337, 338, 339, 340, 341, 342, 343, 344, 345, 346, 347, 348, 349, 350, 351, 352, 353, 354, 355, 356, 357, 358, 359, 360, 361, 362, 363, 364, 365, 366, 367, 368, 369, 370, 371, 372, 373, 374, 375, 376, 377, 378, 379, 380, 381, 382, 383, 384, 385, 386, 387, 388, 389, 390, 391, 392, 393, 394, 395, 396, 397, 398, 399, 400, 401, 402, 403, 404, 405, 406, 407, 408, 409, 410, 411, 412, 413, 414, 415, 416, 417, 418, 419, 420, 421, 422, 423, 424, 425, 426, 427, 428, 429, 430, 431, 432, 433, 434, 435, 436, 437, 438, 439, 440, 441, 442, 443, 444, 445, 446, 447, 448, 449, 450, 451, 452, 453, 454, 455, 456],
      "AcquisitionTime": ["152558.522500", "152600.012500", "152601.502500", "152602.992500", "152604.482500", "152605.972500", "152607.462500", "152608.952500", "152610.442500", "152611.932500", "152613.422500", "152614.912500", "152616.402500", "152617.892500", "152619.382500", "152620.872500", "152622.362500", "152623.852500", "152625.342500", "152626.832500", "152628.322500", "152629.812500", "152631.302500", "152632.792500", "152634.282500", "152635.772500", "152637.262500", "152638.752500", "152640.242500", "152641.732500", "152643.222500", "152644.712500", "152646.202500", "152647.692500", "152649.182500", "152650.672500", "152652.162500", "152653.652500", "152655.142500", "152656.632500", "152658.122500", "152659.612500", "152701.102500", "152702.592500", "152704.082500", "152705.572500", "152707.062500", "152708.552500", "152710.042500", "152711.532500", "152713.022500", "152714.512500", "152716.002500", "152717.492500", "152718.982500", "152720.472500", "152721.962500", "152723.452500", "152724.942500", "152726.432500", "152727.922500", "152729.412500", "152730.902500", "152732.392500", "152733.882500", "152735.372500", "152736.862500", "152738.352500", "152739.842500", "152741.332500", "152742.822500", "152744.312500", "152745.802500", "152747.292500", "152748.782500", "152750.272500", "152751.762500", "152753.252500", "152754.742500", "152756.232500", "152757.722500", "152759.212500", "152800.702500", "152802.192500", "152803.682500", "152805.172500", "152806.662500", "152808.152500", "152809.642500", "152811.132500", "152812.622500", "152814.112500", "152815.602500", "152817.092500", "152818.582500", "152820.072500", "152821.562500", "152823.052500", "152824.542500", "152826.032500", "152827.522500", "152829.012500", "152830.502500", "152831.992500", "152833.482500", "152834.972500", "152836.462500", "152837.952500", "152839.442500", "152840.932500", "152842.422500", "152843.912500", "152845.402500", "152846.892500", "152848.382500", "152849.872500", "152851.362500", "152852.852500", "152854.342500", "152855.832500", "152857.322500", "152858.812500", "152900.302500", "152901.792500", "152903.282500", "152904.772500", "152906.262500", "152907.752500", "152909.242500", "152910.732500", "152912.222500", "152913.712500", "152915.202500", "152916.692500", "152918.182500", "152919.672500", "152921.162500", "152922.652500", "152924.142500", "152925.632500", "152927.122500", "152928.612500", "152930.102500", "152931.592500", "152933.082500", "152934.572500", "152936.062500", "152937.552500", "152939.042500", "152940.532500", "152942.022500", "152943.512500", "152945.002500", "152946.492500", "152947.982500", "152949.472500", "152950.962500", "152952.452500", "152953.942500", "152955.432500", "152956.922500", "152958.412500", "152959.902500", "153001.392500", "153002.882500", "153004.372500", "153005.862500", "153007.352500", "153008.842500", "153010.332500", "153011.822500", "153013.312500", "153014.802500", "153016.292500", "153017.782500", "153019.272500", "153020.762500", "153022.252500", "153023.742500", "153025.232500", "153026.722500", "153028.212500", "153029.702500", "153031.192500", "153032.682500", "153034.172500", "153035.662500", "153037.152500", "153038.642500", "153040.132500", "153041.622500", "153043.112500", "153044.602500", "153046.092500", "153047.582500", "153049.072500", "153050.562500", "153052.052500", "153053.542500", "153055.032500", "153056.522500", "153058.012500", "153059.502500", "153100.992500", "153102.482500", "153103.972500", "153105.462500", "153106.952500", "153108.442500", "153109.932500", "153111.422500", "153112.912500", "153114.402500", "153115.892500", "153117.382500", "153118.872500", "153120.362500", "153121.852500", "153123.342500", "153124.832500", "153126.322500", "153127.812500", "153129.302500", "153130.792500", "153132.282500", "153133.772500", "153135.262500", "153136.752500", "153138.242500", "153139.732500", "153141.222500", "153142.712500", "153144.202500", "153145.692500", "153147.182500", "153148.672500", "153150.162500", "153151.652500", "153153.142500", "153154.632500", "153156.122500", "153157.612500", "153159.102500", "153200.592500", "153202.082500", "153203.572500", "153205.062500", "153206.552500", "153208.042500", "153209.532500", "153211.022500", "153212.512500", "153214.002500", "153215.492500", "153216.982500", "153218.472500", "153219.962500", "153221.452500", "153222.942500", "153224.432500", "153225.922500", "153227.412500", "153228.902500", "153230.392500", "153231.882500", "153233.372500", "153234.862500", "153236.352500", "153237.842500", "153239.332500", "153240.822500", "153242.312500", "153243.802500", "153245.292500", "153246.782500", "153248.272500", "153249.762500", "153251.252500", "153252.742500", "153254.232500", "153255.722500", "153257.212500", "153258.702500", "153300.192500", "153301.682500", "153303.172500", "153304.662500", "153306.152500", "153307.642500", "153309.132500", "153310.622500", "153312.112500", "153313.602500", "153315.092500", "153316.582500", "153318.072500", "153319.562500", "153321.052500", "153322.542500", "153324.032500", "153325.522500", "153327.012500", "153328.502500", "153329.992500", "153331.482500", "153332.972500", "153334.462500", "153335.952500", "153337.442500", "153338.932500", "153340.422500", "153341.912500", "153343.402500", "153344.892500", "153346.382500", "153347.872500", "153349.362500", "153350.852500", "153352.342500", "153353.832500", "153355.322500", "153356.812500", "153358.302500", "153359.792500", "153401.282500", "153402.772500", "153404.262500", "153405.752500", "153407.242500", "153408.732500", "153410.222500", "153411.712500", "153413.202500", "153414.692500", "153416.182500", "153417.672500", "153419.162500", "153420.652500", "153422.142500", "153423.632500", "153425.122500", "153426.612500", "153428.102500", "153429.592500", "153431.082500", "153432.572500", "153434.062500", "153435.552500", "153437.042500", "153438.532500", "153440.022500", "153441.512500", "153443.002500", "153444.492500", "153445.982500", "153447.472500", "153448.962500", "153450.452500", "153451.942500", "153453.432500", "153454.922500", "153456.412500", "153457.902500", "153459.392500", "153500.882500", "153502.372500", "153503.862500", "153505.352500", "153506.842500", "153508.332500", "153509.822500", "153511.312500", "153512.802500", "153514.292500", "153515.782500", "153517.272500", "153518.762500", "153520.252500", "153521.742500", "153523.232500", "153524.722500", "153526.212500", "153527.702500", "153529.192500", "153530.682500", "153532.172500", "153533.662500", "153535.152500", "153536.642500", "153538.132500", "153539.622500", "153541.112500", "153542.602500", "153544.092500", "153545.582500", "153547.072500", "153548.562500", "153550.052500", "153551.542500", "153553.032500", "153554.522500", "153556.012500", "153557.502500", "153558.992500", "153600.482500", "153601.972500", "153603.462500", "153604.952500", "153606.442500", "153607.932500", "153609.422500", "153610.912500", "153612.402500", "153613.892500", "153615.382500", "153616.872500", "153618.362500", "153619.852500", "153621.342500", "153622.832500", "153624.322500", "153625.812500", "153627.302500", "153628.792500", "153630.282500", "153631.772500", "153633.262500", "153634.752500", "153636.242500", "153637.732500", "153639.222500", "153640.712500", "153642.202500", "153643.692500", "153645.182500", "153646.672500", "153648.162500", "153649.652500", "153651.142500", "153652.632500", "153654.122500", "153655.612500", "153657.102500", "153658.592500", "153700.082500", "153701.572500", "153703.062500", "153704.552500", "153706.042500", "153707.532500", "153709.022500", "153710.512500", "153712.002500", "153713.492500", "153714.982500", "153716.472500"],
      "ContentTime": ["152721.332000", "152721.336000", "152721.339000", "152721.342000", "152721.345000", "152721.348000", "152721.351000", "152721.353000", "152721.357000", "152721.359000", "152721.362000", "152721.365000", "152721.368000", "152721.371000", "152721.374000", "152721.377000", "152721.380000", "152721.391000", "152721.394000", "152721.397000", "152721.400000", "152721.403000", "152721.405000", "152721.408000", "152721.411000", "152721.414000", "152721.417000", "152721.420000", "152741.304000", "152741.307000", "152741.310000", "152741.313000", "152741.316000", "152741.319000", "152741.322000", "152741.325000", "152741.328000", "152741.331000", "152741.334000", "152741.336000", "152741.339000", "152741.342000", "152741.345000", "152741.348000", "152741.351000", "152741.361000", "152741.364000", "152741.367000", "152741.370000", "152801.304000", "152801.307000", "152801.310000", "152801.313000", "152801.316000", "152801.319000", "152801.322000", "152801.324000", "152801.327000", "152801.330000", "152801.333000", "152801.336000", "152801.339000", "152801.342000", "152801.344000", "152801.347000", "152801.350000", "152801.370000", "152801.373000", "152801.376000", "152821.305000", "152821.308000", "152821.311000", "152821.314000", "152821.317000", "152821.319000", "152821.322000", "152821.325000", "152821.328000", "152821.331000", "152821.334000", "152821.337000", "152821.340000", "152821.343000", "152821.346000", "152821.348000", "152821.351000", "152821.354000", "152821.357000", "152821.373000", "152901.304000", "152901.307000", "152901.310000", "152901.313000", "152901.316000", "152901.319000", "152901.322000", "152901.325000", "152901.327000", "152901.330000", "152901.333000", "152901.336000", "152901.339000", "152901.342000", "152901.345000", "152901.348000", "152901.351000", "152901.353000", "152901.356000", "152901.359000", "152901.362000", "152901.365000", "152901.368000", "152901.371000", "152901.374000", "152901.376000", "152901.379000", "152901.382000", "152901.385000", "152901.388000", "152901.391000", "152901.394000", "152901.397000", "152941.304000", "152941.307000", "152941.310000", "152941.313000", "152941.316000", "152941.319000", "152941.322000", "152941.325000", "152941.328000", "152941.330000", "152941.333000", "152941.337000", "152941.340000", "152941.343000", "152941.347000", "152941.350000", "152941.353000", "152941.356000", "152941.358000", "152941.361000", "152941.364000", "152941.367000", "152941.370000", "152941.373000", "152941.376000", "152941.379000", "153021.304000", "153021.307000", "153021.310000", "153021.313000", "153021.316000", "153021.319000", "153021.321000", "153021.324000", "153021.327000", "153021.330000", "153021.333000", "153021.336000", "153021.339000", "153021.342000", "153021.345000", "153021.348000", "153021.351000", "153021.353000", "153021.356000", "153021.359000", "153021.362000", "153021.365000", "153021.368000", "153021.371000", "153021.374000", "153021.377000", "153021.380000", "153101.304000", "153101.307000", "153101.310000", "153101.313000", "153101.316000", "153101.319000", "153101.321000", "153101.324000", "153101.327000", "153101.330000", "153101.333000", "153101.336000", "153101.339000", "153101.342000", "153101.345000", "153101.347000", "153101.350000", "153101.353000", "153101.356000", "153101.359000", "153101.362000", "153101.365000", "153101.368000", "153101.371000", "153101.374000", "153101.377000", "153101.379000", "153141.304000", "153141.307000", "153141.310000", "153141.313000", "153141.316000", "153141.319000", "153141.322000", "153141.324000", "153141.327000", "153141.330000", "153141.333000", "153141.336000", "153141.339000", "153141.342000", "153141.345000", "153141.348000", "153141.351000", "153141.354000", "153141.357000", "153141.359000", "153141.362000", "153141.365000", "153141.368000", "153141.371000", "153141.374000", "153141.377000", "153141.380000", "153221.304000", "153221.307000", "153221.310000", "153221.313000", "153221.316000", "153221.319000", "153221.322000", "153221.325000", "153221.328000", "153221.331000", "153221.333000", "153221.345000", "153221.348000", "153221.351000", "153221.354000", "153221.357000", "153221.360000", "153221.362000", "153221.365000", "153221.368000", "153221.371000", "153221.374000", "153221.377000", "153221.380000", "153221.382000", "153221.385000", "153221.388000", "153301.305000", "153301.315000", "153301.318000", "153301.320000", "153301.323000", "153301.326000", "153301.329000", "153301.332000", "153301.335000", "153301.338000", "153301.341000", "153301.344000", "153301.347000", "153301.350000", "153301.353000", "153301.356000", "153301.359000", "153301.362000", "153301.365000", "153301.368000", "153301.370000", "153301.373000", "153301.376000", "153301.379000", "153301.382000", "153301.399000", "153301.402000", "153341.304000", "153341.307000", "153341.310000", "153341.313000", "153341.316000", "153341.319000", "153341.322000", "153341.325000", "153341.327000", "153341.330000", "153341.333000", "153341.336000", "153341.339000", "153341.342000", "153341.345000", "153341.348000", "153341.351000", "153341.354000", "153341.357000", "153341.360000", "153341.362000", "153341.365000", "153341.368000", "153341.371000", "153341.374000", "153341.377000", "153341.380000", "153401.304000", "153401.307000", "153401.310000", "153401.313000", "153401.316000", "153401.319000", "153401.322000", "153401.325000", "153401.328000", "153401.331000", "153401.333000", "153401.336000", "153401.339000", "153441.304000", "153441.307000", "153441.310000", "153441.313000", "153441.316000", "153441.319000", "153441.322000", "153441.324000", "153441.327000", "153441.330000", "153441.333000", "153441.336000", "153441.339000", "153441.342000", "153441.345000", "153441.348000", "153441.351000", "153441.354000", "153441.357000", "153441.359000", "153441.362000", "153441.365000", "153441.368000", "153441.371000", "153441.374000", "153441.377000", "153441.380000", "153521.305000", "153521.308000", "153521.311000", "153521.314000", "153521.317000", "153521.320000", "153521.322000", "153521.325000", "153521.328000", "153521.331000", "153521.334000", "153521.337000", "153521.340000", "153521.343000", "153521.346000", "153521.349000", "153521.352000", "153521.355000", "153521.358000", "153521.360000", "153521.363000", "153521.366000", "153521.369000", "153521.372000", "153521.375000", "153521.378000", "153521.381000", "153601.304000", "153601.307000", "153601.310000", "153601.313000", "153601.316000", "153601.319000", "153601.322000", "153601.325000", "153601.327000", "153601.336000", "153601.339000", "153601.342000", "153601.344000", "153601.347000", "153601.350000", "153601.353000", "153601.356000", "153601.359000", "153601.362000", "153601.365000", "153601.368000", "153601.370000", "153601.373000", "153601.376000", "153601.379000", "153601.382000", "153601.385000", "153641.304000", "153641.307000", "153641.310000", "153641.313000", "153641.316000", "153641.319000", "153641.322000", "153641.325000", "153641.327000", "153641.330000", "153641.333000", "153641.336000", "153641.339000", "153641.342000", "153641.345000", "153641.348000", "153641.351000", "153641.354000", "153641.357000", "153641.360000", "153641.362000", "153641.365000", "153641.368000", "153641.371000", "153641.374000", "153641.377000", "153718.815000", "153718.819000", "153718.822000", "153718.824000", "153718.827000", "153718.830000", "153718.833000", "153718.836000", "153718.839000", "153718.842000", "153718.845000", "153718.848000", "153718.851000", "153718.854000", "153718.857000", "153718.867000", "153718.871000", "153718.874000", "153718.877000", "153718.881000", "153718.884000", "153718.888000", "153718.891000", "153718.893000", "153718.897000", "153718.900000"],
