{
  "AcquisitionMatrixPE": 104,
  "AcquisitionNumber": 1,
  "AcquisitionTime": "15:49:34.707500",
  "BandwidthPerPixelPhaseEncode": 17.17,
  "BaseResolution": 104,
  "BodyPartExamined": "BRAIN",
  "CoilString": "HC1-7;NC1_2",
  "ConsistencyInfo": "N4_VE11C_LATEST_20160120",
  "ConversionSoftware": "dcm2niix",
  "ConversionSoftwareVersion": "v1.0.20190720  (JP2:OpenJPEG) GCC7.3.0",
  "DerivedVendorReportedEchoSpacing": 0.000560011,
  "DeviceSerialNumber": "167006",
  "DwellTime": 2.1e-06,
  "EchoTime": 0.037,
  "EchoTrainLength": 104,
  "EffectiveEchoSpacing": 0.000560011,
  "FlipAngle": 52,
  "ImageComments": "Unaliased_MB4_PE3_LB",
  "ImageOrientationPatientDICOM": [0.997823, -0.0590498, 0.0293762, 0.0657506, 0.925528, -0.372926],
  "ImageType": [
    "ORIGINAL",
    "PRIMARY",
    "M",
    "MB",
    "ND",
    "MOSAIC"
],
  "ImagingFrequency": 123.259,
  "InPlanePhaseEncodingDirectionDICOM": "COL",
  "InstitutionAddress": "Chemin_Queen-Mary_4565_Montreal_District_CA_H3W_1W5",
  "InstitutionName": "IUGM",
  "InstitutionalDepartmentName": "Department",
  "MRAcquisitionType": "2D",
  "MagneticFieldStrength": 3,
  "Manufacturer": "Siemens",
  "ManufacturersModelName": "Prisma_fit",
  "Modality": "MR",
  "MultibandAccelerationFactor": 4,
  "PartialFourier": 1,
  "PatientPosition": "HFS",
  "PercentPhaseFOV": 100,
  "PhaseEncodingDirection": "j",
  "PhaseEncodingSteps": 104,
  "PhaseResolution": 1,
  "PixelBandwidth": 2290,
  "ProcedureStepDescription": "video_friends",
  "ProtocolName": "func_task-s02e24a",
  "PulseSequenceDetails": "%CustomerSeq%_cmrr_mbep2d_bold",
  "ReceiveCoilActiveElements": "HC1-7;NC1,2",
  "ReceiveCoilName": "HeadNeck_64",
  "ReconMatrixPE": 104,
  "RepetitionTime": 1.49,
  "SAR": 0.0278308,
  "ScanOptions": "FS",
  "ScanningSequence": "EP",
  "SequenceName": "epfid2d1_104",
  "SequenceVariant": "SK_SS",
  "SeriesDescription": "func_task-s02e24a",
  "SeriesNumber": 18,
  "ShimSetting": [642, -7254, -8850, 580, 22, -251, -107, 6],
  "SliceThickness": 2,
  "SliceTiming": [0, 0.7825, 0.0975, 0.88, 0.195, 0.98, 0.2925, 1.0775, 0.39, 1.175, 0.49, 1.2725, 0.5875, 1.37, 0.685, 0, 0.7825, 0.0975, 0.88, 0.195, 0.98, 0.2925, 1.0775, 0.39, 1.175, 0.49, 1.2725, 0.5875, 1.37, 0.685, 0, 0.7825, 0.0975, 0.88, 0.195, 0.98, 0.2925, 1.0775, 0.39, 1.175, 0.49, 1.2725, 0.5875, 1.37, 0.685, 0, 0.7825, 0.0975, 0.88, 0.195, 0.98, 0.2925, 1.0775, 0.39, 1.175, 0.49, 1.2725, 0.5875, 1.37, 0.685],
  "SoftwareVersions": "syngo_MR_E11",
  "SpacingBetweenSlices": 2,
  "StationName": "MRC35049",
  "TaskName": "friends",
  "TotalReadoutTime": 0.0576811,
  "TxRefAmp": 215.732,
  "WipMemBlock": "890f603b-ddb1-40eb-86e4-786878ce31d6||Sequence: R016 ve11c/master r/e634e98; Dec 19 2017 11:00:25 by eja",
  "dcmmeta_affine": [
    [-1.9956454038619995, 0.13150115311145782, 0.010334538295865059, 94.87631225585938],
    [0.11809960007667542, 1.8510569334030151, -0.7480915188789368, -76.68777465820312],
    [0.058752357959747314, 0.7458524703979492, 1.8547916412353516, -75.71700286865234],
    [0.0, 0.0, 0.0, 1.0]
],
  "dcmmeta_reorient_transform": [
    [0.0, -1.0, 0.0, 103.0],
    [1.0, 0.0, 0.0, 0.0],
    [0.0, 0.0, 1.0, 0.0],
    [0.0, 0.0, 0.0, 1.0]
],
  "dcmmeta_shape": [104, 104, 60, 469],
  "dcmmeta_slice_dim": 2,
  "dcmmeta_version": 0.6,
  "global": {
    "const": {
      "AcquisitionMatrix": [104, 0, 0, 104],
      "AngioFlag": "N",
      "BitsAllocated": 16,
      "BitsStored": 16,
      "BodyPartExamined": "BRAIN",
      "Columns": 832,
      "EchoNumbers": 1,
      "EchoTime": 37.0,
      "EchoTrainLength": 104,
      "FlipAngle": 52.0,
      "HighBit": 15,
      "ImageOrientationPatient": [0.99782271027806, -0.0590498011221, 0.02937617811745, 0.0657505755306, 0.92552844131752, -0.3729262207592],
      "ImagePositionPatient": [-882.70228494431, -744.76753416936, 251.2102300214],
      "ImageType": [
        "ORIGINAL",
        "PRIMARY",
        "M",
        "MB",
        "ND",
        "MOSAIC"
],
      "ImagedNucleus": "1H",
      "ImagingFrequency": 123.259132,
      "InPlanePhaseEncodingDirection": "COL",
      "MRAcquisitionType": "2D",
      "MagneticFieldStrength": 3.0,
      "Manufacturer": "SIEMENS",
      "ManufacturerModelName": "Prisma_fit",
      "Modality": "MR",
      "NumberOfAverages": 1.0,
      "NumberOfPhaseEncodingSteps": 104,
      "PercentPhaseFieldOfView": 100.0,
      "PercentSampling": 100.0,
      "PerformedProcedureStepStartTime": "144815.164000",
      "PhotometricInterpretation": "MONOCHROME2",
      "PixelBandwidth": 2290.0,
      "PixelRepresentation": 0,
      "PixelSpacing": [2.0, 2.0],
      "ProtocolName": "func_task-s02e24a",
      "RepetitionTime": 1490.0,
      "Rows": 832,
      "SAR": 0.02783080015835,
      "SamplesPerPixel": 1,
      "ScanOptions": "FS",
      "ScanningSequence": "EP",
      "SequenceName": "epfid2d1_104",
      "SequenceVariant": [
        "SK",
        "SS"
],
      "SeriesDescription": "func_task-s02e24a",
      "SeriesNumber": 18,
      "SeriesTime": "155101.223000",
      "SliceLocation": -41.044646434733,
      "SliceThickness": 2.0,
      "SmallestImagePixelValue": 0,
      "SoftwareVersions": "syngo MR E11",
      "SpacingBetweenSlices": 1.9999999693451,
      "SpecificCharacterSet": "ISO_IR 100",
      "StudyID": "1",
      "StudyTime": "144815.104000",
      "TransmitCoilName": "Body",
      "VariableFlipAngleFlag": "N",
      "WindowCenterWidthExplanation": "Algo1",
      "dBdt": 0.0},
    "slices": {}
  },
  "time": {
    "samples": {
      "AcquisitionNumber": [1, 2, 3, 4, 5, 6, 7, 8, 9, 10, 11, 12, 13, 14, 15, 16, 17, 18, 19, 20, 21, 22, 23, 24, 25, 26, 27, 28, 29, 30, 31, 32, 33, 34, 35, 36, 37, 38, 39, 40, 41, 42, 43, 44, 45, 46, 47, 48, 49, 50, 51, 52, 53, 54, 55, 56, 57, 58, 59, 60, 61, 62, 63, 64, 65, 66, 67, 68, 69, 70, 71, 72, 73, 74, 75, 76, 77, 78, 79, 80, 81, 82, 83, 84, 85, 86, 87, 88, 89, 90, 91, 92, 93, 94, 95, 96, 97, 98, 99, 100, 101, 102, 103, 104, 105, 106, 107, 108, 109, 110, 111, 112, 113, 114, 115, 116, 117, 118, 119, 120, 121, 122, 123, 124, 125, 126, 127, 128, 129, 130, 131, 132, 133, 134, 135, 136, 137, 138, 139, 140, 141, 142, 143, 144, 145, 146, 147, 148, 149, 150, 151, 152, 153, 154, 155, 156, 157, 158, 159, 160, 161, 162, 163, 164, 165, 166, 167, 168, 169, 170, 171, 172, 173, 174, 175, 176, 177, 178, 179, 180, 181, 182, 183, 184, 185, 186, 187, 188, 189, 190, 191, 192, 193, 194, 195, 196, 197, 198, 199, 200, 201, 202, 203, 204, 205, 206, 207, 208, 209, 210, 211, 212, 213, 214, 215, 216, 217, 218, 219, 220, 221, 222, 223, 224, 225, 226, 227, 228, 229, 230, 231, 232, 233, 234, 235, 236, 237, 238, 239, 240, 241, 242, 243, 244, 245, 246, 247, 248, 249, 250, 251, 252, 253, 254, 255, 256, 257, 258, 259, 260, 261, 262, 263, 264, 265, 266, 267, 268, 269, 270, 271, 272, 273, 274, 275, 276, 277, 278, 279, 280, 281, 282, 283, 284, 285, 286, 287, 288, 289, 290, 291, 292, 293, 294, 295, 296, 297, 298, 299, 300, 301, 302, 303, 304, 305, 306, 307, 308, 309, 310, 311, 312, 313, 314, 315, 316, 317, 318, 319, 320, 321, 322, 323, 324, 325, 326, 327, 328, 329, 330, 331, 332, 333, 334, 335, 336, 337, 338, 339, 340, 341, 342, 343, 344, 345, 346, 347, 348, 349, 350, 351, 352, 353, 354, 355, 356, 357, 358, 359, 360, 361, 362, 363, 364, 365, 366, 367, 368, 369, 370, 371, 372, 373, 374, 375, 376, 377, 378, 379, 380, 381, 382, 383, 384, 385, 386, 387, 388, 389, 390, 391, 392, 393, 394, 395, 396, 397, 398, 399, 400, 401, 402, 403, 404, 405, 406, 407, 408, 409, 410, 411, 412, 413, 414, 415, 416, 417, 418, 419, 420, 421, 422, 423, 424, 425, 426, 427, 428, 429, 430, 431, 432, 433, 434, 435, 436, 437, 438, 439, 440, 441, 442, 443, 444, 445, 446, 447, 448, 449, 450, 451, 452, 453, 454, 455, 456, 457, 458, 459, 460, 461, 462, 463, 464, 465, 466, 467, 468, 469],
      "AcquisitionTime": ["154934.707500", "154936.197500", "154937.687500", "154939.177500", "154940.667500", "154942.157500", "154943.647500", "154945.137500", "154946.627500", "154948.117500", "154949.607500", "154951.097500", "154952.587500", "154954.077500", "154955.567500", "154957.057500", "154958.547500", "155000.037500", "155001.527500", "155003.017500", "155004.507500", "155005.997500", "155007.487500", "155008.977500", "155010.467500", "155011.957500", "155013.447500", "155014.937500", "155016.427500", "155017.917500", "155019.407500", "155020.897500", "155022.387500", "155023.877500", "155025.367500", "155026.857500", "155028.347500", "155029.837500", "155031.327500", "155032.817500", "155034.307500", "155035.797500", "155037.287500", "155038.777500", "155040.267500", "155041.757500", "155043.247500", "155044.737500", "155046.227500", "155047.717500", "155049.207500", "155050.697500", "155052.187500", "155053.677500", "155055.167500", "155056.657500", "155058.147500", "155059.637500", "155101.127500", "155102.617500", "155104.107500", "155105.597500", "155107.087500", "155108.577500", "155110.067500", "155111.557500", "155113.047500", "155114.537500", "155116.027500", "155117.517500", "155119.007500", "155120.497500", "155121.987500", "155123.477500", "155124.967500", "155126.457500", "155127.947500", "155129.437500", "155130.927500", "155132.417500", "155133.907500", "155135.397500", "155136.887500", "155138.377500", "155139.867500", "155141.357500", "155142.847500", "155144.337500", "155145.827500", "155147.317500", "155148.807500", "155150.297500", "155151.787500", "155153.277500", "155154.767500", "155156.257500", "155157.747500", "155159.237500", "155200.727500", "155202.217500", "155203.707500", "155205.197500", "155206.687500", "155208.177500", "155209.667500", "155211.157500", "155212.647500", "155214.137500", "155215.627500", "155217.117500", "155218.607500", "155220.097500", "155221.587500", "155223.077500", "155224.567500", "155226.057500", "155227.547500", "155229.037500", "155230.527500", "155232.017500", "155233.507500", "155234.997500", "155236.487500", "155237.977500", "155239.467500", "155240.957500", "155242.447500", "155243.937500", "155245.427500", "155246.917500", "155248.407500", "155249.897500", "155251.387500", "155252.877500", "155254.367500", "155255.857500", "155257.347500", "155258.837500", "155300.327500", "155301.817500", "155303.307500", "155304.797500", "155306.287500", "155307.777500", "155309.267500", "155310.757500", "155312.247500", "155313.737500", "155315.227500", "155316.717500", "155318.207500", "155319.697500", "155321.187500", "155322.677500", "155324.167500", "155325.657500", "155327.147500", "155328.637500", "155330.127500", "155331.617500", "155333.107500", "155334.597500", "155336.087500", "155337.577500", "155339.067500", "155340.557500", "155342.047500", "155343.537500", "155345.027500", "155346.517500", "155348.007500", "155349.497500", "155350.987500", "155352.477500", "155353.967500", "155355.457500", "155356.947500", "155358.437500", "155359.927500", "155401.417500", "155402.907500", "155404.397500", "155405.887500", "155407.377500", "155408.867500", "155410.357500", "155411.847500", "155413.337500", "155414.827500", "155416.317500", "155417.807500", "155419.297500", "155420.787500", "155422.277500", "155423.767500", "155425.257500", "155426.747500", "155428.237500", "155429.727500", "155431.217500", "155432.707500", "155434.197500", "155435.687500", "155437.177500", "155438.667500", "155440.157500", "155441.647500", "155443.137500", "155444.627500", "155446.117500", "155447.607500", "155449.097500", "155450.587500", "155452.077500", "155453.567500", "155455.057500", "155456.547500", "155458.037500", "155459.527500", "155501.017500", "155502.507500", "155503.997500", "155505.487500", "155506.977500", "155508.467500", "155509.957500", "155511.447500", "155512.937500", "155514.427500", "155515.917500", "155517.407500", "155518.897500", "155520.387500", "155521.877500", "155523.367500", "155524.857500", "155526.347500", "155527.837500", "155529.327500", "155530.817500", "155532.307500", "155533.797500", "155535.287500", "155536.777500", "155538.267500", "155539.757500", "155541.247500", "155542.737500", "155544.227500", "155545.717500", "155547.207500", "155548.697500", "155550.187500", "155551.677500", "155553.167500", "155554.657500", "155556.147500", "155557.637500", "155559.127500", "155600.617500", "155602.107500", "155603.597500", "155605.087500", "155606.577500", "155608.067500", "155609.557500", "155611.047500", "155612.537500", "155614.027500", "155615.517500", "155617.007500", "155618.497500", "155619.987500", "155621.477500", "155622.967500", "155624.457500", "155625.947500", "155627.437500", "155628.927500", "155630.417500", "155631.907500", "155633.397500", "155634.887500", "155636.377500", "155637.867500", "155639.357500", "155640.847500", "155642.337500", "155643.827500", "155645.317500", "155646.807500", "155648.297500", "155649.787500", "155651.277500", "155652.767500", "155654.257500", "155655.747500", "155657.237500", "155658.727500", "155700.217500", "155701.707500", "155703.197500", "155704.687500", "155706.177500", "155707.667500", "155709.157500", "155710.647500", "155712.137500", "155713.627500", "155715.117500", "155716.607500", "155718.097500", "155719.587500", "155721.077500", "155722.567500", "155724.057500", "155725.547500", "155727.037500", "155728.527500", "155730.017500", "155731.507500", "155732.997500", "155734.487500", "155735.977500", "155737.467500", "155738.957500", "155740.447500", "155741.937500", "155743.427500", "155744.917500", "155746.407500", "155747.897500", "155749.387500", "155750.877500", "155752.367500", "155753.857500", "155755.347500", "155756.837500", "155758.327500", "155759.817500", "155801.307500", "155802.797500", "155804.287500", "155805.777500", "155807.267500", "155808.757500", "155810.247500", "155811.737500", "155813.227500", "155814.717500", "155816.207500", "155817.697500", "155819.187500", "155820.677500", "155822.167500", "155823.657500", "155825.147500", "155826.637500", "155828.127500", "155829.617500", "155831.107500", "155832.597500", "155834.087500", "155835.577500", "155837.067500", "155838.557500", "155840.047500", "155841.537500", "155843.027500", "155844.517500", "155846.007500", "155847.497500", "155848.987500", "155850.477500", "155851.967500", "155853.457500", "155854.947500", "155856.437500", "155857.927500", "155859.417500", "155900.907500", "155902.397500", "155903.887500", "155905.377500", "155906.867500", "155908.357500", "155909.847500", "155911.337500", "155912.827500", "155914.317500", "155915.807500", "155917.297500", "155918.787500", "155920.277500", "155921.767500", "155923.257500", "155924.747500", "155926.237500", "155927.727500", "155929.217500", "155930.707500", "155932.197500", "155933.687500", "155935.177500", "155936.667500", "155938.157500", "155939.647500", "155941.137500", "155942.627500", "155944.117500", "155945.607500", "155947.097500", "155948.587500", "155950.077500", "155951.567500", "155953.057500", "155954.547500", "155956.037500", "155957.527500", "155959.017500", "160000.507500", "160001.997500", "160003.487500", "160004.977500", "160006.467500", "160007.957500", "160009.447500", "160010.937500", "160012.427500", "160013.917500", "160015.407500", "160016.897500", "160018.387500", "160019.877500", "160021.367500", "160022.857500", "160024.347500", "160025.837500", "160027.327500", "160028.817500", "160030.307500", "160031.797500", "160033.287500", "160034.777500", "160036.267500", "160037.757500", "160039.247500", "160040.737500", "160042.227500", "160043.717500", "160045.207500", "160046.697500", "160048.187500", "160049.677500", "160051.167500", "160052.657500", "160054.147500", "160055.637500", "160057.127500", "160058.617500", "160100.107500", "160101.597500", "160103.087500", "160104.577500", "160106.067500", "160107.557500", "160109.047500", "160110.537500", "160112.027500"],
      "ContentTime": ["155101.226000", "155101.229000", "155101.232000", "155101.239000", "155101.242000", "155101.245000", "155101.248000", "155101.251000", "155101.254000", "155101.257000", "155101.259000", "155101.262000", "155101.265000", "155101.268000", "155101.277000", "155101.280000", "155101.282000", "155101.285000", "155101.296000", "155101.299000", "155101.302000", "155101.305000", "155101.308000", "155101.311000", "155101.314000", "155101.317000", "155101.320000", "155101.323000", "155101.326000", "155121.189000", "155121.192000", "155121.195000", "155121.198000", "155121.200000", "155121.203000", "155121.206000", "155121.209000", "155121.212000", "155121.215000", "155121.218000", "155121.221000", "155121.224000", "155121.227000", "155121.229000", "155121.232000", "155121.235000", "155121.238000", "155121.241000", "155121.244000", "155121.248000", "155141.190000", "155141.193000", "155141.196000", "155141.202000", "155141.205000", "155141.208000", "155141.211000", "155141.214000", "155141.217000", "155141.220000", "155141.223000", "155141.225000", "155141.228000", "155141.231000", "155141.234000", "155141.237000", "155141.253000", "155141.255000", "155141.258000", "155141.261000", "155201.190000", "155201.193000", "155201.196000", "155201.199000", "155201.202000", "155201.205000", "155201.207000", "155201.210000", "155201.213000", "155201.216000", "155201.219000", "155201.222000", "155201.225000", "155201.228000", "155201.238000", "155201.241000", "155201.244000", "155201.247000", "155201.250000", "155201.253000", "155221.190000", "155221.193000", "155221.196000", "155221.199000", "155221.202000", "155221.211000", "155221.214000", "155221.217000", "155221.220000", "155221.222000", "155221.225000", "155221.228000", "155221.231000", "155221.234000", "155221.237000", "155221.240000", "155221.243000", "155221.246000", "155221.249000", "155221.252000", "155301.190000", "155301.193000", "155301.196000", "155301.199000", "155301.202000", "155301.205000", "155301.208000", "155301.211000", "155301.214000", "155301.217000", "155301.220000", "155301.223000", "155301.226000", "155301.229000", "155301.232000", "155301.235000", "155301.238000", "155301.241000", "155301.244000", "155301.247000", "155301.249000", "155301.252000", "155301.255000", "155301.258000", "155301.261000", "155301.264000", "155301.267000", "155341.189000", "155341.192000", "155341.195000", "155341.198000", "155341.201000", "155341.204000", "155341.206000", "155341.209000", "155341.212000", "155341.215000", "155341.218000", "155341.221000", "155341.224000", "155341.227000", "155341.230000", "155341.233000", "155341.236000", "155341.238000", "155341.241000", "155341.244000", "155341.247000", "155341.250000", "155341.253000", "155341.256000", "155341.259000", "155341.262000", "155341.265000", "155401.190000", "155401.194000", "155401.197000", "155401.200000", "155401.204000", "155401.207000", "155401.210000", "155401.212000", "155401.215000", "155401.218000", "155401.221000", "155401.224000", "155401.227000", "155401.230000", "155441.190000", "155441.193000", "155441.196000", "155441.199000", "155441.202000", "155441.205000", "155441.207000", "155441.210000", "155441.213000", "155441.216000", "155441.219000", "155441.222000", "155441.225000", "155441.228000", "155441.231000", "155441.233000", "155441.236000", "155441.239000", "155441.242000", "155441.245000", "155441.248000", "155441.251000", "155441.254000", "155441.257000", "155441.259000", "155441.262000", "155441.265000", "155521.190000", "155521.193000", "155521.196000", "155521.199000", "155521.202000", "155521.205000", "155521.208000", "155521.210000", "155521.213000", "155521.216000", "155521.219000", "155521.222000", "155521.225000", "155521.228000", "155521.231000", "155521.234000", "155521.237000", "155521.240000", "155521.252000", "155521.255000", "155521.258000", "155521.261000", "155521.264000", "155521.267000", "155521.270000", "155521.273000", "155601.189000", "155601.192000", "155601.195000", "155601.198000", "155601.201000", "155601.204000", "155601.206000", "155601.209000", "155601.212000", "155601.215000", "155601.218000", "155601.221000", "155601.224000", "155601.227000", "155601.230000", "155601.233000", "155601.236000", "155601.239000", "155601.241000", "155601.244000", "155601.247000", "155601.250000", "155601.253000", "155601.256000", "155601.259000", "155601.262000", "155601.265000", "155641.190000", "155641.193000", "155641.196000", "155641.199000", "155641.202000", "155641.205000", "155641.207000", "155641.210000", "155641.213000", "155641.229000", "155641.232000", "155641.235000", "155641.238000", "155641.241000", "155641.244000", "155641.247000", "155641.250000", "155641.253000", "155641.255000", "155641.258000", "155641.261000", "155641.264000", "155641.267000", "155641.270000", "155641.273000", "155641.276000", "155641.279000", "155721.190000", "155721.193000", "155721.196000", "155721.199000", "155721.202000", "155721.205000", "155721.208000", "155721.211000", "155721.214000", "155721.217000", "155721.219000", "155721.222000", "155721.225000", "155721.228000", "155721.231000", "155721.234000", "155721.237000", "155721.240000", "155721.242000", "155721.245000", "155721.248000", "155721.251000", "155721.254000", "155721.257000", "155721.260000", "155721.263000", "155721.266000", "155801.189000", "155801.192000", "155801.195000", "155801.198000", "155801.201000", "155801.204000", "155801.207000", "155801.209000", "155801.212000", "155801.215000", "155801.218000", "155801.221000", "155801.224000", "155801.227000", "155801.230000", "155801.233000", "155801.236000", "155801.239000", "155801.242000", "155801.245000", "155801.247000", "155801.250000", "155801.258000", "155801.261000", "155801.264000", "155801.267000", "155801.270000", "155841.190000", "155841.193000", "155841.196000", "155841.199000", "155841.202000", "155841.205000", "155841.207000", "155841.210000", "155841.213000", "155841.216000", "155841.219000", "155841.222000", "155841.225000", "155841.228000", "155841.230000", "155841.233000", "155841.236000", "155841.239000", "155841.242000", "155841.245000", "155841.248000", "155841.251000", "155841.254000", "155841.257000", "155841.259000", "155841.262000", "155841.265000", "155921.190000", "155921.193000", "155921.196000", "155921.199000", "155921.202000", "155921.205000", "155921.208000", "155921.210000", "155921.213000", "155921.216000", "155921.219000", "155921.222000", "155921.225000", "155921.228000", "155921.231000", "155921.234000", "155921.237000", "155921.240000", "155921.243000", "155921.245000", "155921.248000", "155921.251000", "155921.254000", "155921.257000", "155921.260000", "155921.263000", "155921.266000", "160001.190000", "160001.193000", "160001.196000", "160001.199000", "160001.202000", "160001.205000", "160001.208000", "160001.211000", "160001.214000", "160001.217000", "160001.220000", "160001.222000", "160001.225000", "160001.228000", "160001.231000", "160001.234000", "160001.237000", "160001.240000", "160001.243000", "160001.246000", "160001.249000", "160001.253000", "160001.255000", "160001.258000", "160001.261000", "160001.264000", "160041.189000", "160041.192000", "160041.195000", "160041.198000", "160041.201000", "160041.204000", "160041.207000", "160041.210000", "160041.212000", "160041.215000", "160041.218000", "160041.221000", "160041.224000", "160041.227000", "160041.230000", "160041.233000", "160041.236000", "160041.239000", "160041.242000", "160041.244000", "160041.247000", "160041.250000", "160041.253000", "160041.256000", "160041.259000", "160041.262000", "160041.265000", "160114.440000", "160114.443000", "160114.446000", "160114.449000", "160114.452000", "160114.455000", "160114.458000", "160114.461000", "160114.464000", "160114.467000", "160114.478000", "160114.481000", "160114.484000", "160114.487000", "160114.490000", "160114.493000", "160114.496000", "160114.499000", "160114.501000", "160114.505000", "160114.507000", "160114.511000", "160114.514000"],
