{
  "AcquisitionMatrixPE": 104,
  "AcquisitionNumber": 1,
  "AcquisitionTime": "11:56:23.535000",
  "BandwidthPerPixelPhaseEncode": 17.17,
  "BaseResolution": 104,
  "BodyPartExamined": "BRAIN",
  "CoilString": "HC1-7;NC1_2",
  "ConsistencyInfo": "N4_VE11C_LATEST_20160120",
  "ConversionSoftware": "dcm2niix",
  "ConversionSoftwareVersion": "v1.0.20190902",
  "DerivedVendorReportedEchoSpacing": 0.000560011,
  "DeviceSerialNumber": "167006",
  "DwellTime": 2.1e-06,
  "EchoTime": 0.037,
  "EchoTrainLength": 104,
  "EffectiveEchoSpacing": 0.000560011,
  "FlipAngle": 52,
  "HeudiconvVersion": "0.10.0",
  "ImageComments": "Unaliased_MB4_PE3_LB",
  "ImageOrientationPatientDICOM": [0.999863, 0.00746628, 0.0147802, -0.00349026, 0.967551, -0.252651],
  "ImageType": [
    "ORIGINAL",
    "PRIMARY",
    "M",
    "MB",
    "ND",
    "MOSAIC"
],
  "ImagingFrequency": 123.259,
  "InPlanePhaseEncodingDirectionDICOM": "COL",
  "InstitutionAddress": "Chemin_Queen-Mary_4565_Montreal_District_CA_H3W_1W5",
  "InstitutionName": "IUGM",
  "InstitutionalDepartmentName": "Department",
  "MRAcquisitionType": "2D",
  "MagneticFieldStrength": 3,
  "Manufacturer": "Siemens",
  "ManufacturersModelName": "Prisma_fit",
  "Modality": "MR",
  "MultibandAccelerationFactor": 4,
  "PartialFourier": 1,
  "PatientPosition": "HFS",
  "PercentPhaseFOV": 100,
  "PhaseEncodingDirection": "j",
  "PhaseEncodingSteps": 104,
  "PhaseResolution": 1,
  "PixelBandwidth": 2290,
  "ProcedureStepDescription": "video_friends",
  "ProtocolName": "func_task-friends-s06e02a",
  "PulseSequenceDetails": "%CustomerSeq%_cmrr_mbep2d_bold",
  "ReceiveCoilActiveElements": "HC1-7;NC1,2",
  "ReceiveCoilName": "HeadNeck_64",
  "ReconMatrixPE": 104,
  "RepetitionTime": 1.49,
  "SAR": 0.0772613,
  "ScanOptions": "FS",
  "ScanningSequence": "EP",
  "SequenceName": "epfid2d1_104",
  "SequenceVariant": "SK_SS",
  "SeriesDescription": "func_task-friends-s06e02a",
  "SeriesNumber": 13,
  "ShimSetting": [634, -7211, -8791, 729, 22, -10, 76, 3],
  "SliceThickness": 2,
  "SliceTiming": [0, 0.785, 0.0975, 0.8825, 0.1975, 0.98, 0.295, 1.0775, 0.3925, 1.1775, 0.49, 1.275, 0.5875, 1.3725, 0.6875, 0, 0.785, 0.0975, 0.8825, 0.1975, 0.98, 0.295, 1.0775, 0.3925, 1.1775, 0.49, 1.275, 0.5875, 1.3725, 0.6875, 0, 0.785, 0.0975, 0.8825, 0.1975, 0.98, 0.295, 1.0775, 0.3925, 1.1775, 0.49, 1.275, 0.5875, 1.3725, 0.6875, 0, 0.785, 0.0975, 0.8825, 0.1975, 0.98, 0.295, 1.0775, 0.3925, 1.1775, 0.49, 1.275, 0.5875, 1.3725, 0.6875],
  "SoftwareVersions": "syngo_MR_E11",
  "SpacingBetweenSlices": 2,
  "StationName": "MRC35049",
  "TaskName": "s06e02a",
  "TotalReadoutTime": 0.0576811,
  "TxRefAmp": 280.275,
  "WipMemBlock": "728f8abe-a7bf-4975-91af-9f5257cb3b7c||Sequence: R016 ve11c/master r/e634e98; Dec 19 2017 11:00:25 by eja",
  "dcmmeta_affine": [
    [-1.9997258186340332, -0.006980514619499445, 0.03237391263246536, 104.48530578613281],
    [-0.014932560734450817, 1.9351024627685547, -0.5051293969154358, -82.47798919677734],
    [0.029560387134552002, 0.505301833152771, 1.9348891973495483, -64.193359375],
    [0.0, 0.0, 0.0, 1.0]
],
  "dcmmeta_reorient_transform": [
    [0.0, -1.0, 0.0, 103.0],
    [1.0, 0.0, 0.0, 0.0],
    [0.0, 0.0, 1.0, 0.0],
    [0.0, 0.0, 0.0, 1.0]
],
  "dcmmeta_shape": [104, 104, 60, 453],
  "dcmmeta_slice_dim": 2,
  "dcmmeta_version": 0.6,
  "global": {
    "const": {
      "AcquisitionMatrix": [104, 0, 0, 104],
      "AngioFlag": "N",
      "BitsAllocated": 16,
      "BitsStored": 16,
      "BodyPartExamined": "BRAIN",
      "Columns": 832,
      "EchoNumbers": 1,
      "EchoTime": 37.0,
      "EchoTrainLength": 104,
      "FlipAngle": 52.0,
      "HighBit": 15,
      "ImageOrientationPatient": [0.99986289087053, 0.00746628015498, 0.01478019352628, -0.0034902573173, 0.96755120184901, -0.2526509250021],
      "ImagePositionPatient": [-829.12558647433, -826.65028263719, 161.0226262917],
      "ImageType": [
        "ORIGINAL",
        "PRIMARY",
        "M",
        "MB",
        "ND",
        "MOSAIC"
],
      "ImagedNucleus": "1H",
      "ImagingFrequency": 123.25888,
      "InPlanePhaseEncodingDirection": "COL",
      "MRAcquisitionType": "2D",
      "MagneticFieldStrength": 3.0,
      "Manufacturer": "SIEMENS",
      "ManufacturerModelName": "Prisma_fit",
      "Modality": "MR",
      "NumberOfAverages": 1.0,
      "NumberOfPhaseEncodingSteps": 104,
      "PercentPhaseFieldOfView": 100.0,
      "PercentSampling": 100.0,
      "PerformedProcedureStepStartTime": "105018.221000",
      "PhotometricInterpretation": "MONOCHROME2",
      "PixelBandwidth": 2290.0,
      "PixelRepresentation": 0,
      "PixelSpacing": [2.0, 2.0],
      "ProtocolName": "func_task-friends-s06e02a",
      "RepetitionTime": 1490.0,
      "Rows": 832,
      "SAR": 0.07726125920078,
      "SamplesPerPixel": 1,
      "ScanOptions": "FS",
      "ScanningSequence": "EP",
      "SequenceName": "epfid2d1_104",
      "SequenceVariant": [
        "SK",
        "SS"
],
      "SeriesDescription": "func_task-friends-s06e02a",
      "SeriesNumber": 13,
      "SeriesTime": "115735.387000",
      "SliceLocation": -39.581188310226,
      "SliceThickness": 2.0,
      "SmallestImagePixelValue": 0,
      "SoftwareVersions": "syngo MR E11",
      "SpacingBetweenSlices": 1.9999999345389,
      "SpecificCharacterSet": "ISO_IR 100",
      "StudyID": "1",
      "StudyTime": "105018.134000",
      "TransmitCoilName": "Body",
      "VariableFlipAngleFlag": "N",
      "WindowCenterWidthExplanation": "Algo1",
      "dBdt": 0.0},
    "slices": {}
  },
  "time": {
    "samples": {
      "AcquisitionNumber": [1, 2, 3, 4, 5, 6, 7, 8, 9, 10, 11, 12, 13, 14, 15, 16, 17, 18, 19, 20, 21, 22, 23, 24, 25, 26, 27, 28, 29, 30, 31, 32, 33, 34, 35, 36, 37, 38, 39, 40, 41, 42, 43, 44, 45, 46, 47, 48, 49, 50, 51, 52, 53, 54, 55, 56, 57, 58, 59, 60, 61, 62, 63, 64, 65, 66, 67, 68, 69, 70, 71, 72, 73, 74, 75, 76, 77, 78, 79, 80, 81, 82, 83, 84, 85, 86, 87, 88, 89, 90, 91, 92, 93, 94, 95, 96, 97, 98, 99, 100, 101, 102, 103, 104, 105, 106, 107, 108, 109, 110, 111, 112, 113, 114, 115, 116, 117, 118, 119, 120, 121, 122, 123, 124, 125, 126, 127, 128, 129, 130, 131, 132, 133, 134, 135, 136, 137, 138, 139, 140, 141, 142, 143, 144, 145, 146, 147, 148, 149, 150, 151, 152, 153, 154, 155, 156, 157, 158, 159, 160, 161, 162, 163, 164, 165, 166, 167, 168, 169, 170, 171, 172, 173, 174, 175, 176, 177, 178, 179, 180, 181, 182, 183, 184, 185, 186, 187, 188, 189, 190, 191, 192, 193, 194, 195, 196, 197, 198, 199, 200, 201, 202, 203, 204, 205, 206, 207, 208, 209, 210, 211, 212, 213, 214, 215, 216, 217, 218, 219, 220, 221, 222, 223, 224, 225, 226, 227, 228, 229, 230, 231, 232, 233, 234, 235, 236, 237, 238, 239, 240, 241, 242, 243, 244, 245, 246, 247, 248, 249, 250, 251, 252, 253, 254, 255, 256, 257, 258, 259, 260, 261, 262, 263, 264, 265, 266, 267, 268, 269, 270, 271, 272, 273, 274, 275, 276, 277, 278, 279, 280, 281, 282, 283, 284, 285, 286, 287, 288, 289, 290, 291, 292, 293, 294, 295, 296, 297, 298, 299, 300, 301, 302, 303, 304, 305, 306, 307, 308, 309, 310, 311, 312, 313, 314, 315, 316, 317, 318, 319, 320, 321, 322, 323, 324, 325, 326, 327, 328, 329, 330, 331, 332, 333, 334, 335, 336, 337, 338, 339, 340, 341, 342, 343, 344, 345, 346, 347, 348, 349, 350, 351, 352, 353, 354, 355, 356, 357, 358, 359, 360, 361, 362, 363, 364, 365, 366, 367, 368, 369, 370, 371, 372, 373, 374, 375, 376, 377, 378, 379, 380, 381, 382, 383, 384, 385, 386, 387, 388, 389, 390, 391, 392, 393, 394, 395, 396, 397, 398, 399, 400, 401, 402, 403, 404, 405, 406, 407, 408, 409, 410, 411, 412, 413, 414, 415, 416, 417, 418, 419, 420, 421, 422, 423, 424, 425, 426, 427, 428, 429, 430, 431, 432, 433, 434, 435, 436, 437, 438, 439, 440, 441, 442, 443, 444, 445, 446, 447, 448, 449, 450, 451, 452, 453],
      "AcquisitionTime": ["115623.535000", "115625.025000", "115626.515000", "115628.005000", "115629.495000", "115630.985000", "115632.475000", "115633.965000", "115635.455000", "115636.945000", "115638.435000", "115639.925000", "115641.415000", "115642.905000", "115644.395000", "115645.885000", "115647.375000", "115648.865000", "115650.355000", "115651.845000", "115653.335000", "115654.825000", "115656.315000", "115657.805000", "115659.295000", "115700.785000", "115702.275000", "115703.765000", "115705.255000", "115706.745000", "115708.235000", "115709.725000", "115711.215000", "115712.705000", "115714.195000", "115715.685000", "115717.175000", "115718.665000", "115720.155000", "115721.645000", "115723.135000", "115724.625000", "115726.115000", "115727.605000", "115729.095000", "115730.585000", "115732.075000", "115733.565000", "115735.055000", "115736.545000", "115738.035000", "115739.525000", "115741.015000", "115742.505000", "115743.995000", "115745.485000", "115746.975000", "115748.465000", "115749.955000", "115751.445000", "115752.935000", "115754.425000", "115755.915000", "115757.405000", "115758.895000", "115800.385000", "115801.875000", "115803.365000", "115804.855000", "115806.345000", "115807.835000", "115809.325000", "115810.815000", "115812.305000", "115813.795000", "115815.285000", "115816.775000", "115818.265000", "115819.755000", "115821.245000", "115822.735000", "115824.225000", "115825.715000", "115827.205000", "115828.695000", "115830.185000", "115831.675000", "115833.165000", "115834.655000", "115836.145000", "115837.635000", "115839.125000", "115840.615000", "115842.105000", "115843.595000", "115845.085000", "115846.575000", "115848.065000", "115849.555000", "115851.045000", "115852.535000", "115854.025000", "115855.515000", "115857.005000", "115858.495000", "115859.985000", "115901.475000", "115902.965000", "115904.455000", "115905.945000", "115907.435000", "115908.925000", "115910.415000", "115911.905000", "115913.395000", "115914.885000", "115916.375000", "115917.865000", "115919.355000", "115920.845000", "115922.335000", "115923.825000", "115925.315000", "115926.805000", "115928.295000", "115929.785000", "115931.275000", "115932.765000", "115934.255000", "115935.745000", "115937.235000", "115938.725000", "115940.215000", "115941.705000", "115943.195000", "115944.685000", "115946.175000", "115947.665000", "115949.155000", "115950.645000", "115952.135000", "115953.625000", "115955.115000", "115956.605000", "115958.095000", "115959.585000", "120001.075000", "120002.565000", "120004.055000", "120005.545000", "120007.035000", "120008.525000", "120010.015000", "120011.505000", "120012.995000", "120014.485000", "120015.975000", "120017.465000", "120018.955000", "120020.445000", "120021.935000", "120023.425000", "120024.915000", "120026.405000", "120027.895000", "120029.385000", "120030.875000", "120032.365000", "120033.855000", "120035.345000", "120036.835000", "120038.325000", "120039.815000", "120041.305000", "120042.795000", "120044.285000", "120045.775000", "120047.265000", "120048.755000", "120050.245000", "120051.735000", "120053.225000", "120054.715000", "120056.205000", "120057.695000", "120059.185000", "120100.675000", "120102.165000", "120103.655000", "120105.145000", "120106.635000", "120108.125000", "120109.615000", "120111.105000", "120112.595000", "120114.085000", "120115.575000", "120117.065000", "120118.555000", "120120.045000", "120121.535000", "120123.025000", "120124.515000", "120126.005000", "120127.495000", "120128.985000", "120130.475000", "120131.965000", "120133.455000", "120134.945000", "120136.435000", "120137.925000", "120139.415000", "120140.905000", "120142.395000", "120143.885000", "120145.375000", "120146.865000", "120148.355000", "120149.845000", "120151.335000", "120152.825000", "120154.315000", "120155.805000", "120157.295000", "120158.785000", "120200.275000", "120201.765000", "120203.255000", "120204.745000", "120206.235000", "120207.725000", "120209.215000", "120210.705000", "120212.195000", "120213.685000", "120215.175000", "120216.665000", "120218.155000", "120219.645000", "120221.135000", "120222.625000", "120224.115000", "120225.605000", "120227.095000", "120228.585000", "120230.075000", "120231.565000", "120233.055000", "120234.545000", "120236.035000", "120237.525000", "120239.015000", "120240.505000", "120241.995000", "120243.485000", "120244.975000", "120246.465000", "120247.955000", "120249.445000", "120250.935000", "120252.425000", "120253.915000", "120255.405000", "120256.895000", "120258.385000", "120259.875000", "120301.365000", "120302.855000", "120304.345000", "120305.835000", "120307.325000", "120308.815000", "120310.305000", "120311.795000", "120313.285000", "120314.775000", "120316.265000", "120317.755000", "120319.245000", "120320.735000", "120322.225000", "120323.715000", "120325.205000", "120326.695000", "120328.185000", "120329.675000", "120331.165000", "120332.655000", "120334.145000", "120335.635000", "120337.125000", "120338.615000", "120340.105000", "120341.595000", "120343.085000", "120344.575000", "120346.065000", "120347.555000", "120349.045000", "120350.535000", "120352.025000", "120353.515000", "120355.005000", "120356.495000", "120357.985000", "120359.475000", "120400.965000", "120402.455000", "120403.945000", "120405.435000", "120406.925000", "120408.415000", "120409.905000", "120411.395000", "120412.885000", "120414.375000", "120415.865000", "120417.355000", "120418.845000", "120420.335000", "120421.825000", "120423.315000", "120424.805000", "120426.295000", "120427.785000", "120429.275000", "120430.765000", "120432.255000", "120433.745000", "120435.235000", "120436.725000", "120438.215000", "120439.705000", "120441.195000", "120442.685000", "120444.175000", "120445.665000", "120447.155000", "120448.645000", "120450.135000", "120451.625000", "120453.115000", "120454.605000", "120456.095000", "120457.585000", "120459.075000", "120500.565000", "120502.055000", "120503.545000", "120505.035000", "120506.525000", "120508.015000", "120509.505000", "120510.995000", "120512.485000", "120513.975000", "120515.465000", "120516.955000", "120518.445000", "120519.935000", "120521.425000", "120522.915000", "120524.405000", "120525.895000", "120527.385000", "120528.875000", "120530.365000", "120531.855000", "120533.345000", "120534.835000", "120536.325000", "120537.815000", "120539.305000", "120540.795000", "120542.285000", "120543.775000", "120545.265000", "120546.755000", "120548.245000", "120549.735000", "120551.225000", "120552.715000", "120554.205000", "120555.695000", "120557.185000", "120558.675000", "120600.165000", "120601.655000", "120603.145000", "120604.635000", "120606.125000", "120607.615000", "120609.105000", "120610.595000", "120612.085000", "120613.575000", "120615.065000", "120616.555000", "120618.045000", "120619.535000", "120621.025000", "120622.515000", "120624.005000", "120625.495000", "120626.985000", "120628.475000", "120629.965000", "120631.455000", "120632.945000", "120634.435000", "120635.925000", "120637.415000", "120638.905000", "120640.395000", "120641.885000", "120643.375000", "120644.865000", "120646.355000", "120647.845000", "120649.335000", "120650.825000", "120652.315000", "120653.805000", "120655.295000", "120656.785000", "120658.275000", "120659.765000", "120701.255000", "120702.745000", "120704.235000", "120705.725000", "120707.215000", "120708.705000", "120710.195000", "120711.685000", "120713.175000", "120714.665000", "120716.155000", "120717.645000", "120719.135000", "120720.625000", "120722.115000", "120723.605000", "120725.095000", "120726.585000", "120728.075000", "120729.565000", "120731.055000", "120732.545000", "120734.035000", "120735.525000", "120737.015000"],
      "ContentTime": ["115735.390000", "115735.394000", "115735.397000", "115735.399000", "115735.402000", "115735.405000", "115735.408000", "115735.411000", "115735.414000", "115735.420000", "115735.423000", "115735.426000", "115735.429000", "115735.432000", "115735.435000", "115735.437000", "115735.440000", "115735.444000", "115755.357000", "115755.360000", "115755.363000", "115755.365000", "115755.368000", "115755.371000", "115755.374000", "115755.378000", "115755.381000", "115755.383000", "115755.386000", "115755.389000", "115755.392000", "115755.395000", "115755.398000", "115755.401000", "115755.404000", "115755.406000", "115755.409000", "115755.412000", "115755.415000", "115815.357000", "115815.360000", "115815.363000", "115815.366000", "115815.368000", "115815.371000", "115815.374000", "115815.377000", "115815.380000", "115815.383000", "115815.385000", "115815.388000", "115815.391000", "115815.394000", "115815.398000", "115815.402000", "115815.404000", "115815.407000", "115815.410000", "115815.413000", "115835.357000", "115835.360000", "115835.363000", "115835.366000", "115835.368000", "115835.371000", "115835.374000", "115835.377000", "115835.380000", "115835.383000", "115835.385000", "115835.388000", "115835.391000", "115835.394000", "115835.397000", "115835.399000", "115835.402000", "115835.405000", "115835.408000", "115835.411000", "115855.357000", "115855.360000", "115855.362000", "115855.366000", "115855.368000", "115855.371000", "115855.374000", "115855.377000", "115855.380000", "115855.383000", "115855.385000", "115855.407000", "115855.410000", "115855.413000", "115855.416000", "115855.419000", "115855.421000", "115855.424000", "115855.427000", "115855.430000", "115935.356000", "115935.359000", "115935.362000", "115935.365000", "115935.368000", "115935.371000", "115935.381000", "115935.384000", "115935.387000", "115935.390000", "115935.393000", "115935.395000", "115935.398000", "115935.401000", "115935.404000", "115935.407000", "115935.410000", "115935.421000", "115935.424000", "115935.427000", "115935.430000", "115935.433000", "115935.436000", "115935.438000", "115935.441000", "115935.444000", "115935.447000", "115935.450000", "115935.453000", "120015.357000", "120015.360000", "120015.363000", "120015.366000", "120015.368000", "120015.371000", "120015.374000", "120015.377000", "120015.380000", "120015.382000", "120015.386000", "120015.388000", "120015.391000", "120015.394000", "120015.397000", "120015.400000", "120015.403000", "120015.405000", "120015.408000", "120015.411000", "120015.414000", "120015.417000", "120015.420000", "120015.423000", "120015.426000", "120015.428000", "120015.431000", "120055.357000", "120055.360000", "120055.363000", "120055.366000", "120055.369000", "120055.372000", "120055.375000", "120055.377000", "120055.380000", "120055.383000", "120055.386000", "120055.389000", "120055.392000", "120055.395000", "120055.398000", "120055.401000", "120055.404000", "120055.407000", "120055.409000", "120055.412000", "120055.415000", "120055.418000", "120055.421000", "120055.424000", "120055.427000", "120055.430000", "120055.433000", "120135.356000", "120135.359000", "120135.362000", "120135.365000", "120135.368000", "120135.370000", "120135.374000", "120135.377000", "120135.380000", "120135.383000", "120135.386000", "120135.396000", "120135.399000", "120135.402000", "120135.405000", "120135.408000", "120135.411000", "120135.413000", "120135.416000", "120135.419000", "120135.422000", "120135.425000", "120135.428000", "120135.431000", "120135.434000", "120135.436000", "120215.357000", "120215.365000", "120215.374000", "120215.377000", "120215.394000", "120215.397000", "120215.400000", "120215.403000", "120215.412000", "120215.420000", "120215.429000", "120215.432000", "120215.435000", "120215.438000", "120215.445000", "120215.448000", "120215.451000", "120215.468000", "120215.471000", "120215.474000", "120215.477000", "120215.480000", "120215.483000", "120215.486000", "120215.489000", "120215.492000", "120215.495000", "120255.357000", "120255.360000", "120255.363000", "120255.366000", "120255.369000", "120255.372000", "120255.374000", "120255.377000", "120255.380000", "120255.383000", "120255.386000", "120255.389000", "120255.392000", "120255.395000", "120255.399000", "120255.402000", "120255.404000", "120255.407000", "120255.410000", "120255.413000", "120255.416000", "120255.419000", "120255.422000", "120255.424000", "120255.427000", "120255.430000", "120255.433000", "120335.357000", "120335.360000", "120335.363000", "120335.365000", "120335.369000", "120335.371000", "120335.374000", "120335.377000", "120335.380000", "120335.383000", "120335.386000", "120335.389000", "120335.392000", "120335.395000", "120335.397000", "120335.400000", "120335.403000", "120335.406000", "120335.409000", "120335.412000", "120335.416000", "120335.419000", "120335.422000", "120335.425000", "120335.428000", "120335.446000", "120335.454000", "120415.356000", "120415.359000", "120415.362000", "120415.365000", "120415.367000", "120415.370000", "120415.373000", "120415.376000", "120415.379000", "120415.382000", "120415.385000", "120415.388000", "120415.391000", "120415.394000", "120415.397000", "120415.400000", "120415.403000", "120415.405000", "120415.408000", "120415.411000", "120415.414000", "120415.422000", "120415.424000", "120415.427000", "120415.430000", "120415.433000", "120415.436000", "120455.357000", "120455.360000", "120455.363000", "120455.366000", "120455.369000", "120455.371000", "120455.375000", "120455.377000", "120455.380000", "120455.383000", "120455.386000", "120455.389000", "120455.392000", "120455.395000", "120455.398000", "120455.400000", "120455.403000", "120455.406000", "120455.409000", "120455.412000", "120455.415000", "120455.418000", "120455.421000", "120455.423000", "120455.426000", "120455.429000", "120455.432000", "120535.357000", "120535.360000", "120535.363000", "120535.366000", "120535.369000", "120535.372000", "120535.375000", "120535.378000", "120535.381000", "120535.384000", "120535.387000", "120535.390000", "120535.394000", "120535.397000", "120535.400000", "120535.403000", "120535.406000", "120535.409000", "120535.412000", "120535.415000", "120535.417000", "120535.421000", "120535.423000", "120535.426000", "120535.429000", "120535.432000", "120615.356000", "120615.359000", "120615.362000", "120615.365000", "120615.368000", "120615.370000", "120615.373000", "120615.376000", "120615.379000", "120615.382000", "120615.385000", "120615.388000", "120615.391000", "120615.394000", "120615.396000", "120615.399000", "120615.402000", "120615.405000", "120615.408000", "120615.411000", "120615.414000", "120615.417000", "120615.419000", "120615.422000", "120615.425000", "120615.428000", "120615.431000", "120655.357000", "120655.360000", "120655.363000", "120655.366000", "120655.369000", "120655.371000", "120655.375000", "120655.377000", "120655.380000", "120655.383000", "120655.386000", "120655.389000", "120655.392000", "120655.395000", "120655.398000", "120655.400000", "120655.403000", "120655.406000", "120655.409000", "120655.412000", "120655.415000", "120655.418000", "120655.421000", "120655.424000", "120655.426000", "120655.429000", "120655.432000", "120715.357000", "120715.360000", "120715.363000", "120715.366000", "120715.369000", "120715.371000", "120715.374000", "120715.381000", "120715.386000", "120715.388000", "120715.391000", "120715.394000", "120715.397000", "120715.400000", "120739.225000", "120739.228000", "120739.231000", "120739.234000", "120739.237000", "120739.240000", "120739.243000", "120739.245000", "120739.248000", "120739.251000", "120739.254000", "120739.257000", "120739.260000", "120739.263000", "120739.266000", "120739.268000"],
