{
  "AcquisitionMatrixPE": 104,
  "AcquisitionNumber": 1,
  "AcquisitionTime": "17:55:28.417500",
  "BandwidthPerPixelPhaseEncode": 17.17,
  "BaseResolution": 104,
  "BodyPartExamined": "BRAIN",
  "CoilString": "HC1-7;NC1_2",
  "ConsistencyInfo": "N4_VE11C_LATEST_20160120",
  "ConversionSoftware": "dcm2niix",
  "ConversionSoftwareVersion": "v1.0.20190902",
  "DerivedVendorReportedEchoSpacing": 0.000560011,
  "DeviceSerialNumber": "167006",
  "DwellTime": 2.1e-06,
  "EchoTime": 0.037,
  "EchoTrainLength": 104,
  "EffectiveEchoSpacing": 0.000560011,
  "FlipAngle": 52,
  "ImageComments": "Unaliased_MB4_PE3_LB",
  "ImageOrientationPatientDICOM": [0.999892, 0.00717074, -0.0128076, -0.0099476, 0.972656, -0.232038],
  "ImageType": [
    "ORIGINAL",
    "PRIMARY",
    "M",
    "MB",
    "ND",
    "MOSAIC"
],
  "ImagingFrequency": 123.259,
  "InPlanePhaseEncodingDirectionDICOM": "COL",
  "InstitutionAddress": "Chemin_Queen-Mary_4565_Montreal_District_CA_H3W_1W5",
  "InstitutionName": "IUGM",
  "InstitutionalDepartmentName": "Department",
  "MRAcquisitionType": "2D",
  "MagneticFieldStrength": 3,
  "Manufacturer": "Siemens",
  "ManufacturersModelName": "Prisma_fit",
  "Modality": "MR",
  "MultibandAccelerationFactor": 4,
  "PartialFourier": 1,
  "PatientPosition": "HFS",
  "PercentPhaseFOV": 100,
  "PhaseEncodingDirection": "j",
  "PhaseEncodingSteps": 104,
  "PhaseResolution": 1,
  "PixelBandwidth": 2290,
  "ProcedureStepDescription": "video_friends",
  "ProtocolName": "func_task-friends-s04e14b",
  "PulseSequenceDetails": "%CustomerSeq%_cmrr_mbep2d_bold",
  "ReceiveCoilActiveElements": "HC1-7;NC1,2",
  "ReceiveCoilName": "HeadNeck_64",
  "ReconMatrixPE": 104,
  "RepetitionTime": 1.49,
  "SAR": 0.0290622,
  "ScanOptions": "FS",
  "ScanningSequence": "EP",
  "SequenceName": "epfid2d1_104",
  "SequenceVariant": "SK_SS",
  "SeriesDescription": "func_task-friends-s04e14b",
  "SeriesNumber": 13,
  "ShimSetting": [619, -7227, -8762, 719, -7, -17, 118, 2],
  "SliceThickness": 2,
  "SliceTiming": [0, 0.785, 0.0975, 0.8825, 0.195, 0.98, 0.295, 1.0775, 0.3925, 1.175, 0.49, 1.275, 0.5875, 1.3725, 0.685, 0, 0.785, 0.0975, 0.8825, 0.195, 0.98, 0.295, 1.0775, 0.3925, 1.175, 0.49, 1.275, 0.5875, 1.3725, 0.685, 0, 0.785, 0.0975, 0.8825, 0.195, 0.98, 0.295, 1.0775, 0.3925, 1.175, 0.49, 1.275, 0.5875, 1.3725, 0.685, 0, 0.785, 0.0975, 0.8825, 0.195, 0.98, 0.295, 1.0775, 0.3925, 1.175, 0.49, 1.275, 0.5875, 1.3725, 0.685],
  "SoftwareVersions": "syngo_MR_E11",
  "SpacingBetweenSlices": 2,
  "StationName": "MRC35049",
  "TaskName": "s04e14b",
  "TotalReadoutTime": 0.0576811,
  "TxRefAmp": 207.031,
  "WipMemBlock": "dee527d4-e9ed-415b-847e-bed2bc062ea2||Sequence: R016 ve11c/master r/e634e98; Dec 19 2017 11:00:25 by eja",
  "dcmmeta_affine": [
    [-1.9997845888137817, -0.019895190373063087, -0.02158706821501255, 106.43173217773438],
    [-0.014341482892632484, 1.9453116655349731, -0.46428120136260986, -84.76031494140625],
    [-0.025615269318223, 0.4640763998031616, 1.9452447891235352, -48.38368606567383],
    [0.0, 0.0, 0.0, 1.0]
],
  "dcmmeta_reorient_transform": [
    [0.0, -1.0, 0.0, 103.0],
    [1.0, 0.0, 0.0, 0.0],
    [0.0, 0.0, 1.0, 0.0],
    [0.0, 0.0, 0.0, 1.0]
],
  "dcmmeta_shape": [104, 104, 60, 447],
  "dcmmeta_slice_dim": 2,
  "dcmmeta_version": 0.6,
  "global": {
    "const": {
      "AcquisitionMatrix": [104, 0, 0, 104],
      "AngioFlag": "N",
      "BitsAllocated": 16,
      "BitsStored": 16,
      "BodyPartExamined": "BRAIN",
      "Columns": 832,
      "EchoNumbers": 1,
      "EchoTime": 37.0,
      "EchoTrainLength": 104,
      "FlipAngle": 52.0,
      "HighBit": 15,
      "ImageOrientationPatient": [0.99989226668384, 0.00717074138852, -0.0128076341997, -0.0099475952723, 0.9726558082596, -0.2320381951472],
      "ImagePositionPatient": [-825.06224470296, -828.92050612547, 177.66394711869],
      "ImageType": [
        "ORIGINAL",
        "PRIMARY",
        "M",
        "MB",
        "ND",
        "MOSAIC"
],
      "ImagedNucleus": "1H",
      "ImagingFrequency": 123.259022,
      "InPlanePhaseEncodingDirection": "COL",
      "MRAcquisitionType": "2D",
      "MagneticFieldStrength": 3.0,
      "Manufacturer": "SIEMENS",
      "ManufacturerModelName": "Prisma_fit",
      "Modality": "MR",
      "NumberOfAverages": 1.0,
      "NumberOfPhaseEncodingSteps": 104,
      "PercentPhaseFieldOfView": 100.0,
      "PercentSampling": 100.0,
      "PerformedProcedureStepStartTime": "173347.691000",
      "PhotometricInterpretation": "MONOCHROME2",
      "PixelBandwidth": 2290.0,
      "PixelRepresentation": 0,
      "PixelSpacing": [2.0, 2.0],
      "ProtocolName": "func_task-friends-s04e14b",
      "RepetitionTime": 1490.0,
      "Rows": 832,
      "SAR": 0.02906221722364,
      "SamplesPerPixel": 1,
      "ScanOptions": "FS",
      "ScanningSequence": "EP",
      "SequenceName": "epfid2d1_104",
      "SequenceVariant": [
        "SK",
        "SS"
],
      "SeriesDescription": "func_task-friends-s04e14b",
      "SeriesNumber": 13,
      "SeriesTime": "175653.275000",
      "SliceLocation": -28.531516473835,
      "SliceThickness": 2.0,
      "SmallestImagePixelValue": 0,
      "SoftwareVersions": "syngo MR E11",
      "SpacingBetweenSlices": 2.0000000326706,
      "SpecificCharacterSet": "ISO_IR 100",
      "StudyID": "1",
      "StudyTime": "173347.635000",
      "TransmitCoilName": "Body",
      "VariableFlipAngleFlag": "N",
      "WindowCenterWidthExplanation": "Algo1",
      "dBdt": 0.0},
    "slices": {}
  },
  "time": {
    "samples": {
      "AcquisitionNumber": [1, 2, 3, 4, 5, 6, 7, 8, 9, 10, 11, 12, 13, 14, 15, 16, 17, 18, 19, 20, 21, 22, 23, 24, 25, 26, 27, 28, 29, 30, 31, 32, 33, 34, 35, 36, 37, 38, 39, 40, 41, 42, 43, 44, 45, 46, 47, 48, 49, 50, 51, 52, 53, 54, 55, 56, 57, 58, 59, 60, 61, 62, 63, 64, 65, 66, 67, 68, 69, 70, 71, 72, 73, 74, 75, 76, 77, 78, 79, 80, 81, 82, 83, 84, 85, 86, 87, 88, 89, 90, 91, 92, 93, 94, 95, 96, 97, 98, 99, 100, 101, 102, 103, 104, 105, 106, 107, 108, 109, 110, 111, 112, 113, 114, 115, 116, 117, 118, 119, 120, 121, 122, 123, 124, 125, 126, 127, 128, 129, 130, 131, 132, 133, 134, 135, 136, 137, 138, 139, 140, 141, 142, 143, 144, 145, 146, 147, 148, 149, 150, 151, 152, 153, 154, 155, 156, 157, 158, 159, 160, 161, 162, 163, 164, 165, 166, 167, 168, 169, 170, 171, 172, 173, 174, 175, 176, 177, 178, 179, 180, 181, 182, 183, 184, 185, 186, 187, 188, 189, 190, 191, 192, 193, 194, 195, 196, 197, 198, 199, 200, 201, 202, 203, 204, 205, 206, 207, 208, 209, 210, 211, 212, 213, 214, 215, 216, 217, 218, 219, 220, 221, 222, 223, 224, 225, 226, 227, 228, 229, 230, 231, 232, 233, 234, 235, 236, 237, 238, 239, 240, 241, 242, 243, 244, 245, 246, 247, 248, 249, 250, 251, 252, 253, 254, 255, 256, 257, 258, 259, 260, 261, 262, 263, 264, 265, 266, 267, 268, 269, 270, 271, 272, 273, 274, 275, 276, 277, 278, 279, 280, 281, 282, 283, 284, 285, 286, 287, 288, 289, 290, 291, 292, 293, 294, 295, 296, 297, 298, 299, 300, 301, 302, 303, 304, 305, 306, 307, 308, 309, 310, 311, 312, 313, 314, 315, 316, 317, 318, 319, 320, 321, 322, 323, 324, 325, 326, 327, 328, 329, 330, 331, 332, 333, 334, 335, 336, 337, 338, 339, 340, 341, 342, 343, 344, 345, 346, 347, 348, 349, 350, 351, 352, 353, 354, 355, 356, 357, 358, 359, 360, 361, 362, 363, 364, 365, 366, 367, 368, 369, 370, 371, 372, 373, 374, 375, 376, 377, 378, 379, 380, 381, 382, 383, 384, 385, 386, 387, 388, 389, 390, 391, 392, 393, 394, 395, 396, 397, 398, 399, 400, 401, 402, 403, 404, 405, 406, 407, 408, 409, 410, 411, 412, 413, 414, 415, 416, 417, 418, 419, 420, 421, 422, 423, 424, 425, 426, 427, 428, 429, 430, 431, 432, 433, 434, 435, 436, 437, 438, 439, 440, 441, 442, 443, 444, 445, 446, 447],
      "AcquisitionTime": ["175528.417500", "175529.907500", "175531.397500", "175532.887500", "175534.377500", "175535.867500", "175537.357500", "175538.847500", "175540.337500", "175541.827500", "175543.317500", "175544.807500", "175546.297500", "175547.787500", "175549.277500", "175550.767500", "175552.257500", "175553.747500", "175555.237500", "175556.727500", "175558.217500", "175559.707500", "175601.197500", "175602.687500", "175604.177500", "175605.667500", "175607.157500", "175608.647500", "175610.137500", "175611.627500", "175613.117500", "175614.607500", "175616.097500", "175617.587500", "175619.077500", "175620.567500", "175622.057500", "175623.547500", "175625.037500", "175626.527500", "175628.017500", "175629.507500", "175630.997500", "175632.487500", "175633.977500", "175635.467500", "175636.957500", "175638.447500", "175639.937500", "175641.427500", "175642.917500", "175644.407500", "175645.897500", "175647.387500", "175648.877500", "175650.367500", "175651.857500", "175653.347500", "175654.837500", "175656.327500", "175657.817500", "175659.307500", "175700.797500", "175702.287500", "175703.777500", "175705.267500", "175706.757500", "175708.247500", "175709.737500", "175711.227500", "175712.717500", "175714.207500", "175715.697500", "175717.187500", "175718.677500", "175720.167500", "175721.657500", "175723.147500", "175724.637500", "175726.127500", "175727.617500", "175729.107500", "175730.597500", "175732.087500", "175733.577500", "175735.067500", "175736.557500", "175738.047500", "175739.537500", "175741.027500", "175742.517500", "175744.007500", "175745.497500", "175746.987500", "175748.477500", "175749.967500", "175751.457500", "175752.947500", "175754.437500", "175755.927500", "175757.417500", "175758.907500", "175800.397500", "175801.887500", "175803.377500", "175804.867500", "175806.357500", "175807.847500", "175809.337500", "175810.827500", "175812.317500", "175813.807500", "175815.297500", "175816.787500", "175818.277500", "175819.767500", "175821.257500", "175822.747500", "175824.237500", "175825.727500", "175827.217500", "175828.707500", "175830.197500", "175831.687500", "175833.177500", "175834.667500", "175836.157500", "175837.647500", "175839.137500", "175840.627500", "175842.117500", "175843.607500", "175845.097500", "175846.587500", "175848.077500", "175849.567500", "175851.057500", "175852.547500", "175854.037500", "175855.527500", "175857.017500", "175858.507500", "175859.997500", "175901.487500", "175902.977500", "175904.467500", "175905.957500", "175907.447500", "175908.937500", "175910.427500", "175911.917500", "175913.407500", "175914.897500", "175916.387500", "175917.877500", "175919.367500", "175920.857500", "175922.347500", "175923.837500", "175925.327500", "175926.817500", "175928.307500", "175929.797500", "175931.287500", "175932.777500", "175934.267500", "175935.757500", "175937.247500", "175938.737500", "175940.227500", "175941.717500", "175943.207500", "175944.697500", "175946.187500", "175947.677500", "175949.167500", "175950.657500", "175952.147500", "175953.637500", "175955.127500", "175956.617500", "175958.107500", "175959.597500", "180001.087500", "180002.577500", "180004.067500", "180005.557500", "180007.047500", "180008.537500", "180010.027500", "180011.517500", "180013.007500", "180014.497500", "180015.987500", "180017.477500", "180018.967500", "180020.457500", "180021.947500", "180023.437500", "180024.927500", "180026.417500", "180027.907500", "180029.397500", "180030.887500", "180032.377500", "180033.867500", "180035.357500", "180036.847500", "180038.337500", "180039.827500", "180041.317500", "180042.807500", "180044.297500", "180045.787500", "180047.277500", "180048.767500", "180050.257500", "180051.747500", "180053.237500", "180054.727500", "180056.217500", "180057.707500", "180059.197500", "180100.687500", "180102.177500", "180103.667500", "180105.157500", "180106.647500", "180108.137500", "180109.627500", "180111.117500", "180112.607500", "180114.097500", "180115.587500", "180117.077500", "180118.567500", "180120.057500", "180121.547500", "180123.037500", "180124.527500", "180126.017500", "180127.507500", "180128.997500", "180130.487500", "180131.977500", "180133.467500", "180134.957500", "180136.447500", "180137.937500", "180139.427500", "180140.917500", "180142.407500", "180143.897500", "180145.387500", "180146.877500", "180148.367500", "180149.857500", "180151.347500", "180152.837500", "180154.327500", "180155.817500", "180157.307500", "180158.797500", "180200.287500", "180201.777500", "180203.267500", "180204.757500", "180206.247500", "180207.737500", "180209.227500", "180210.717500", "180212.207500", "180213.697500", "180215.187500", "180216.677500", "180218.167500", "180219.657500", "180221.147500", "180222.637500", "180224.127500", "180225.617500", "180227.107500", "180228.597500", "180230.087500", "180231.577500", "180233.067500", "180234.557500", "180236.047500", "180237.537500", "180239.027500", "180240.517500", "180242.007500", "180243.497500", "180244.987500", "180246.477500", "180247.967500", "180249.457500", "180250.947500", "180252.437500", "180253.927500", "180255.417500", "180256.907500", "180258.397500", "180259.887500", "180301.377500", "180302.867500", "180304.357500", "180305.847500", "180307.337500", "180308.827500", "180310.317500", "180311.807500", "180313.297500", "180314.787500", "180316.277500", "180317.767500", "180319.257500", "180320.747500", "180322.237500", "180323.727500", "180325.217500", "180326.707500", "180328.197500", "180329.687500", "180331.177500", "180332.667500", "180334.157500", "180335.647500", "180337.137500", "180338.627500", "180340.117500", "180341.607500", "180343.097500", "180344.587500", "180346.077500", "180347.567500", "180349.057500", "180350.547500", "180352.037500", "180353.527500", "180355.017500", "180356.507500", "180357.997500", "180359.487500", "180400.977500", "180402.467500", "180403.957500", "180405.447500", "180406.937500", "180408.427500", "180409.917500", "180411.407500", "180412.897500", "180414.387500", "180415.877500", "180417.367500", "180418.857500", "180420.347500", "180421.837500", "180423.327500", "180424.817500", "180426.307500", "180427.797500", "180429.287500", "180430.777500", "180432.267500", "180433.757500", "180435.247500", "180436.737500", "180438.227500", "180439.717500", "180441.207500", "180442.697500", "180444.187500", "180445.677500", "180447.167500", "180448.657500", "180450.147500", "180451.637500", "180453.127500", "180454.617500", "180456.107500", "180457.597500", "180459.087500", "180500.577500", "180502.067500", "180503.557500", "180505.047500", "180506.537500", "180508.027500", "180509.517500", "180511.007500", "180512.497500", "180513.987500", "180515.477500", "180516.967500", "180518.457500", "180519.947500", "180521.437500", "180522.927500", "180524.417500", "180525.907500", "180527.397500", "180528.887500", "180530.377500", "180531.867500", "180533.357500", "180534.847500", "180536.337500", "180537.827500", "180539.317500", "180540.807500", "180542.297500", "180543.787500", "180545.277500", "180546.767500", "180548.257500", "180549.747500", "180551.237500", "180552.727500", "180554.217500", "180555.707500", "180557.197500", "180558.687500", "180600.177500", "180601.667500", "180603.157500", "180604.647500", "180606.137500", "180607.627500", "180609.117500", "180610.607500", "180612.097500", "180613.587500", "180615.077500", "180616.567500", "180618.057500", "180619.547500", "180621.037500", "180622.527500", "180624.017500", "180625.507500", "180626.997500", "180628.487500", "180629.977500", "180631.467500", "180632.957500"],
      "ContentTime": ["175653.277000", "175653.281000", "175653.284000", "175653.286000", "175653.289000", "175653.292000", "175653.302000", "175653.305000", "175653.308000", "175653.317000", "175653.320000", "175653.323000", "175653.326000", "175653.328000", "175653.331000", "175653.340000", "175653.343000", "175653.346000", "175653.349000", "175653.352000", "175653.355000", "175653.357000", "175653.360000", "175653.363000", "175653.366000", "175653.369000", "175653.372000", "175653.375000", "175653.378000", "175653.381000", "175713.235000", "175713.245000", "175713.248000", "175713.251000", "175713.254000", "175713.257000", "175713.259000", "175713.262000", "175713.265000", "175713.268000", "175713.271000", "175713.274000", "175713.277000", "175713.280000", "175713.283000", "175713.285000", "175713.288000", "175713.291000", "175713.294000", "175713.297000", "175733.235000", "175733.238000", "175733.246000", "175733.249000", "175733.252000", "175733.255000", "175733.257000", "175733.260000", "175733.263000", "175733.266000", "175733.269000", "175733.272000", "175733.275000", "175733.278000", "175733.280000", "175733.283000", "175733.287000", "175733.289000", "175733.292000", "175733.295000", "175753.236000", "175753.239000", "175753.242000", "175753.245000", "175753.248000", "175753.251000", "175753.254000", "175753.256000", "175753.259000", "175753.262000", "175753.272000", "175753.275000", "175753.278000", "175753.281000", "175753.283000", "175753.286000", "175753.289000", "175753.292000", "175753.295000", "175753.298000", "175813.236000", "175813.239000", "175813.242000", "175813.245000", "175813.248000", "175813.251000", "175813.254000", "175813.257000", "175813.259000", "175813.262000", "175813.265000", "175813.268000", "175813.271000", "175813.274000", "175813.277000", "175813.280000", "175813.283000", "175813.305000", "175813.308000", "175813.311000", "175853.236000", "175853.239000", "175853.246000", "175853.249000", "175853.252000", "175853.255000", "175853.258000", "175853.261000", "175853.264000", "175853.267000", "175853.270000", "175853.272000", "175853.275000", "175853.278000", "175853.281000", "175853.284000", "175853.287000", "175853.290000", "175853.293000", "175853.296000", "175853.299000", "175853.301000", "175853.304000", "175853.307000", "175853.310000", "175853.313000", "175853.316000", "175933.235000", "175933.238000", "175933.241000", "175933.244000", "175933.247000", "175933.250000", "175933.253000", "175933.256000", "175933.258000", "175933.261000", "175933.264000", "175933.267000", "175933.270000", "175933.273000", "175933.276000", "175933.279000", "175933.282000", "175933.285000", "175933.288000", "175933.291000", "175933.294000", "175933.297000", "175933.300000", "175933.303000", "175933.306000", "175933.309000", "175933.311000", "180013.236000", "180013.239000", "180013.242000", "180013.245000", "180013.248000", "180013.251000", "180013.254000", "180013.257000", "180013.260000", "180013.263000", "180013.266000", "180013.269000", "180013.272000", "180013.275000", "180013.278000", "180013.282000", "180013.285000", "180013.288000", "180013.291000", "180013.294000", "180013.297000", "180013.300000", "180013.303000", "180013.306000", "180013.309000", "180013.312000", "180053.236000", "180053.239000", "180053.242000", "180053.245000", "180053.248000", "180053.251000", "180053.254000", "180053.257000", "180053.260000", "180053.263000", "180053.278000", "180053.281000", "180053.284000", "180053.287000", "180053.290000", "180053.293000", "180053.296000", "180053.299000", "180053.302000", "180053.305000", "180053.308000", "180053.311000", "180053.314000", "180053.317000", "180053.320000", "180053.323000", "180053.326000", "180133.235000", "180133.238000", "180133.241000", "180133.244000", "180133.247000", "180133.251000", "180133.254000", "180133.257000", "180133.260000", "180133.262000", "180133.265000", "180133.268000", "180133.271000", "180133.274000", "180133.277000", "180133.280000", "180133.283000", "180133.286000", "180133.289000", "180133.292000", "180133.295000", "180133.298000", "180133.301000", "180133.304000", "180133.307000", "180133.310000", "180133.313000", "180213.235000", "180213.238000", "180213.241000", "180213.244000", "180213.247000", "180213.250000", "180213.253000", "180213.256000", "180213.259000", "180213.262000", "180213.265000", "180213.267000", "180213.270000", "180213.273000", "180213.276000", "180213.279000", "180213.282000", "180213.285000", "180213.288000", "180213.291000", "180213.294000", "180213.297000", "180213.300000", "180213.302000", "180213.305000", "180213.308000", "180213.311000", "180253.236000", "180253.239000", "180253.242000", "180253.245000", "180253.248000", "180253.251000", "180253.254000", "180253.257000", "180253.259000", "180253.262000", "180253.265000", "180253.268000", "180253.271000", "180253.274000", "180253.277000", "180253.280000", "180253.283000", "180253.286000", "180253.289000", "180253.292000", "180253.294000", "180253.297000", "180253.300000", "180253.303000", "180253.306000", "180253.309000", "180253.312000", "180333.236000", "180333.239000", "180333.242000", "180333.245000", "180333.248000", "180333.251000", "180333.254000", "180333.256000", "180333.259000", "180333.262000", "180333.265000", "180333.268000", "180333.271000", "180333.274000", "180333.277000", "180333.280000", "180333.283000", "180333.286000", "180333.289000", "180333.291000", "180333.294000", "180333.297000", "180333.300000", "180333.303000", "180333.306000", "180333.309000", "180333.312000", "180413.235000", "180413.238000", "180413.241000", "180413.244000", "180413.247000", "180413.250000", "180413.253000", "180413.256000", "180413.259000", "180413.262000", "180413.265000", "180413.267000", "180413.270000", "180413.273000", "180413.276000", "180413.279000", "180413.282000", "180413.285000", "180413.288000", "180413.291000", "180413.294000", "180413.297000", "180413.300000", "180413.303000", "180413.306000", "180413.309000", "180453.236000", "180453.239000", "180453.242000", "180453.245000", "180453.248000", "180453.251000", "180453.254000", "180453.257000", "180453.260000", "180453.263000", "180453.266000", "180453.269000", "180453.272000", "180453.275000", "180453.278000", "180453.281000", "180453.284000", "180453.287000", "180453.290000", "180453.293000", "180453.296000", "180453.298000", "180453.301000", "180453.304000", "180453.307000", "180453.310000", "180453.313000", "180533.236000", "180533.239000", "180533.242000", "180533.245000", "180533.248000", "180533.251000", "180533.254000", "180533.257000", "180533.260000", "180533.262000", "180533.288000", "180533.291000", "180533.294000", "180533.297000", "180533.300000", "180533.303000", "180533.306000", "180533.309000", "180533.312000", "180533.314000", "180533.317000", "180533.320000", "180533.323000", "180533.326000", "180533.329000", "180533.332000", "180533.335000", "180613.235000", "180613.238000", "180613.241000", "180613.244000", "180613.247000", "180613.250000", "180613.253000", "180613.256000", "180613.259000", "180613.261000", "180613.264000", "180613.267000", "180613.270000", "180613.273000", "180613.276000", "180613.279000", "180613.282000", "180613.285000", "180613.288000", "180613.291000", "180613.294000", "180613.297000", "180613.300000", "180613.302000", "180613.305000", "180613.308000", "180613.311000", "180634.892000", "180634.895000", "180634.898000", "180634.901000", "180634.904000", "180634.907000", "180634.910000", "180634.913000", "180634.916000", "180634.919000", "180634.922000", "180634.925000", "180634.928000", "180634.931000", "180634.934000"],
