{
  "AcquisitionMatrixPE": 104,
  "AcquisitionNumber": 1,
  "AcquisitionTime": "15:41:12.632500",
  "BandwidthPerPixelPhaseEncode": 17.17,
  "BaseResolution": 104,
  "BodyPartExamined": "BRAIN",
  "CoilCombinationMethod": "Sum of Squares",
  "ConsistencyInfo": "N4_VE11C_LATEST_20160120",
  "ConversionSoftware": "dcm2niix",
  "ConversionSoftwareVersion": "v1.0.20211006",
  "DerivedVendorReportedEchoSpacing": 0.000560011,
  "DeviceSerialNumber": "167006",
  "DwellTime": 2.1e-06,
  "EchoTime": 0.037,
  "EchoTrainLength": 104,
  "EffectiveEchoSpacing": 0.000560011,
  "FlipAngle": 52,
  "HeudiconvVersion": "0.11.3.post9+gc939bf8",
  "ImageComments": "Unaliased MB4/PE3/LB",
  "ImageOrientationPatientDICOM": [0.999228, -0.0369689, -0.0132983, 0.0303547, 0.941344, -0.336079],
  "ImageOrientationText": "Tra>Cor(-19.6)>Sag(-1.4)",
  "ImageType": [
    "ORIGINAL",
    "PRIMARY",
    "M",
    "MB",
    "ND",
    "MOSAIC"
],
  "ImagingFrequency": 123.259,
  "InPlanePhaseEncodingDirectionDICOM": "COL",
  "InstitutionAddress": "Chemin Queen-Mary 4565,Montreal,District,CA,H3W 1W5",
  "InstitutionName": "IUGM",
  "InstitutionalDepartmentName": "Department",
  "MRAcquisitionType": "2D",
  "MagneticFieldStrength": 3,
  "Manufacturer": "Siemens",
  "ManufacturersModelName": "Prisma_fit",
  "MatrixCoilMode": "SENSE",
  "Modality": "MR",
  "MultibandAccelerationFactor": 4,
  "PartialFourier": 1,
  "PatientPosition": "HFS",
  "PercentPhaseFOV": 100,
  "PercentSampling": 100,
  "PhaseEncodingDirection": "j",
  "PhaseEncodingSteps": 104,
  "PhaseResolution": 1,
  "PixelBandwidth": 2290,
  "ProcedureStepDescription": "video^friends",
  "ProtocolName": "func_task-friends-s06e15c",
  "PulseSequenceDetails": "%CustomerSeq%\\cmrr_mbep2d_bold",
  "ReceiveCoilActiveElements": "HC1-7;NC1,2",
  "ReceiveCoilName": "HeadNeck_64",
  "ReconMatrixPE": 104,
  "RepetitionTime": 1.49,
  "SAR": 0.0532807,
  "ScanOptions": "FS",
  "ScanningSequence": "EP",
  "SequenceName": "epfid2d1_104",
  "SequenceVariant": "SK\\SS",
  "SeriesDescription": "func_task-friends-s06e15c",
  "SeriesNumber": 14,
  "ShimSetting": [618, -7257, -8816, 573, 4, -222, -80, -23],
  "SliceThickness": 2,
  "SliceTiming": [0, 0.785, 0.0975, 0.8825, 0.195, 0.98, 0.295, 1.0775, 0.3925, 1.175, 0.49, 1.275, 0.5875, 1.3725, 0.685, 0, 0.785, 0.0975, 0.8825, 0.195, 0.98, 0.295, 1.0775, 0.3925, 1.175, 0.49, 1.275, 0.5875, 1.3725, 0.685, 0, 0.785, 0.0975, 0.8825, 0.195, 0.98, 0.295, 1.0775, 0.3925, 1.175, 0.49, 1.275, 0.5875, 1.3725, 0.685, 0, 0.785, 0.0975, 0.8825, 0.195, 0.98, 0.295, 1.0775, 0.3925, 1.175, 0.49, 1.275, 0.5875, 1.3725, 0.685],
  "SoftwareVersions": "syngo MR E11",
  "SpacingBetweenSlices": 2,
  "StationName": "MRC35049",
  "TaskName": "s06e15c",
  "TotalReadoutTime": 0.0576811,
  "TxRefAmp": 259.16,
  "WipMemBlock": "cfed92d6-fa3f-42c4-baca-c8bea8a3d7a4||Sequence: R016 ve11c/master r/e634e98; Dec 19 2017 11:00:25 by eja",
  "dcmmeta_affine": [
    [-1.9984558820724487, 0.06070931628346443, -0.04988553002476692, 100.5002212524414],
    [0.07393787056207657, 1.8826887607574463, -0.6708323955535889, -78.10164642333984],
    [-0.02659657411277294, 0.6721587181091309, 1.8834795951843262, -62.84730529785156],
    [0.0, 0.0, 0.0, 1.0]
],
  "dcmmeta_reorient_transform": [
    [0.0, -1.0, 0.0, 103.0],
    [1.0, 0.0, 0.0, 0.0],
    [0.0, 0.0, 1.0, 0.0],
    [0.0, 0.0, 0.0, 1.0]
],
  "dcmmeta_shape": [104, 104, 60, 460],
  "dcmmeta_slice_dim": 2,
  "dcmmeta_version": 0.6,
  "global": {
    "const": {
      "AcquisitionMatrix": [104, 0, 0, 104],
      "AngioFlag": "N",
      "BitsAllocated": 16,
      "BitsStored": 16,
      "BodyPartExamined": "BRAIN",
      "Columns": 832,
      "EchoNumbers": 1,
      "EchoTime": 37.0,
      "EchoTrainLength": 104,
      "FlipAngle": 52.0,
      "HighBit": 15,
      "ImageOrientationPatient": [0.99922792858214, -0.0369689368594, -0.0132982874439, 0.03035465752122, 0.94134439180343, -0.3360793519201],
      "ImagePositionPatient": [-856.28940421321, -774.20063051232, 260.73196439871],
      "ImageType": [
        "ORIGINAL",
        "PRIMARY",
        "M",
        "MB",
        "ND",
        "MOSAIC"
],
      "ImagedNucleus": "1H",
      "ImagingFrequency": 123.258792,
      "InPlanePhaseEncodingDirection": "COL",
      "MRAcquisitionType": "2D",
      "MagneticFieldStrength": 3.0,
      "Manufacturer": "SIEMENS",
      "ManufacturerModelName": "Prisma_fit",
      "Modality": "MR",
      "NumberOfAverages": 1.0,
      "NumberOfPhaseEncodingSteps": 104,
      "PercentPhaseFieldOfView": 100.0,
      "PercentSampling": 100.0,
      "PerformedProcedureStepStartTime": "145924.815000",
      "PhotometricInterpretation": "MONOCHROME2",
      "PixelBandwidth": 2290.0,
      "PixelRepresentation": 0,
      "PixelSpacing": [2.0, 2.0],
      "ProtocolName": "func_task-friends-s06e15c",
      "RepetitionTime": 1490.0,
      "Rows": 832,
      "SAR": 0.05328072526142,
      "SamplesPerPixel": 1,
      "ScanOptions": "FS",
      "ScanningSequence": "EP",
      "SequenceName": "epfid2d1_104",
      "SequenceVariant": [
        "SK",
        "SS"
],
      "SeriesDescription": "func_task-friends-s06e15c",
      "SeriesNumber": 14,
      "SeriesTime": "154234.620000",
      "SliceLocation": -35.49600172271,
      "SliceThickness": 2.0,
      "SmallestImagePixelValue": 0,
      "SoftwareVersions": "syngo MR E11",
      "SpacingBetweenSlices": 2.0000000145724,
      "SpecificCharacterSet": "ISO_IR 100",
      "StudyID": "1",
      "StudyTime": "145924.736000",
      "TransmitCoilName": "Body",
      "VariableFlipAngleFlag": "N",
      "WindowCenterWidthExplanation": "Algo1",
      "dBdt": 0.0},
    "slices": {}
  },
  "time": {
    "samples": {
      "AcquisitionNumber": [1, 2, 3, 4, 5, 6, 7, 8, 9, 10, 11, 12, 13, 14, 15, 16, 17, 18, 19, 20, 21, 22, 23, 24, 25, 26, 27, 28, 29, 30, 31, 32, 33, 34, 35, 36, 37, 38, 39, 40, 41, 42, 43, 44, 45, 46, 47, 48, 49, 50, 51, 52, 53, 54, 55, 56, 57, 58, 59, 60, 61, 62, 63, 64, 65, 66, 67, 68, 69, 70, 71, 72, 73, 74, 75, 76, 77, 78, 79, 80, 81, 82, 83, 84, 85, 86, 87, 88, 89, 90, 91, 92, 93, 94, 95, 96, 97, 98, 99, 100, 101, 102, 103, 104, 105, 106, 107, 108, 109, 110, 111, 112, 113, 114, 115, 116, 117, 118, 119, 120, 121, 122, 123, 124, 125, 126, 127, 128, 129, 130, 131, 132, 133, 134, 135, 136, 137, 138, 139, 140, 141, 142, 143, 144, 145, 146, 147, 148, 149, 150, 151, 152, 153, 154, 155, 156, 157, 158, 159, 160, 161, 162, 163, 164, 165, 166, 167, 168, 169, 170, 171, 172, 173, 174, 175, 176, 177, 178, 179, 180, 181, 182, 183, 184, 185, 186, 187, 188, 189, 190, 191, 192, 193, 194, 195, 196, 197, 198, 199, 200, 201, 202, 203, 204, 205, 206, 207, 208, 209, 210, 211, 212, 213, 214, 215, 216, 217, 218, 219, 220, 221, 222, 223, 224, 225, 226, 227, 228, 229, 230, 231, 232, 233, 234, 235, 236, 237, 238, 239, 240, 241, 242, 243, 244, 245, 246, 247, 248, 249, 250, 251, 252, 253, 254, 255, 256, 257, 258, 259, 260, 261, 262, 263, 264, 265, 266, 267, 268, 269, 270, 271, 272, 273, 274, 275, 276, 277, 278, 279, 280, 281, 282, 283, 284, 285, 286, 287, 288, 289, 290, 291, 292, 293, 294, 295, 296, 297, 298, 299, 300, 301, 302, 303, 304, 305, 306, 307, 308, 309, 310, 311, 312, 313, 314, 315, 316, 317, 318, 319, 320, 321, 322, 323, 324, 325, 326, 327, 328, 329, 330, 331, 332, 333, 334, 335, 336, 337, 338, 339, 340, 341, 342, 343, 344, 345, 346, 347, 348, 349, 350, 351, 352, 353, 354, 355, 356, 357, 358, 359, 360, 361, 362, 363, 364, 365, 366, 367, 368, 369, 370, 371, 372, 373, 374, 375, 376, 377, 378, 379, 380, 381, 382, 383, 384, 385, 386, 387, 388, 389, 390, 391, 392, 393, 394, 395, 396, 397, 398, 399, 400, 401, 402, 403, 404, 405, 406, 407, 408, 409, 410, 411, 412, 413, 414, 415, 416, 417, 418, 419, 420, 421, 422, 423, 424, 425, 426, 427, 428, 429, 430, 431, 432, 433, 434, 435, 436, 437, 438, 439, 440, 441, 442, 443, 444, 445, 446, 447, 448, 449, 450, 451, 452, 453, 454, 455, 456, 457, 458, 459, 460],
      "AcquisitionTime": ["154112.632500", "154114.122500", "154115.612500", "154117.102500", "154118.592500", "154120.082500", "154121.572500", "154123.062500", "154124.552500", "154126.042500", "154127.532500", "154129.022500", "154130.512500", "154132.002500", "154133.492500", "154134.982500", "154136.472500", "154137.962500", "154139.452500", "154140.942500", "154142.432500", "154143.922500", "154145.412500", "154146.902500", "154148.392500", "154149.882500", "154151.372500", "154152.862500", "154154.352500", "154155.842500", "154157.332500", "154158.822500", "154200.312500", "154201.802500", "154203.292500", "154204.782500", "154206.272500", "154207.762500", "154209.252500", "154210.742500", "154212.232500", "154213.722500", "154215.212500", "154216.702500", "154218.192500", "154219.682500", "154221.172500", "154222.662500", "154224.152500", "154225.642500", "154227.132500", "154228.622500", "154230.112500", "154231.602500", "154233.092500", "154234.582500", "154236.072500", "154237.562500", "154239.052500", "154240.542500", "154242.032500", "154243.522500", "154245.012500", "154246.502500", "154247.992500", "154249.482500", "154250.972500", "154252.462500", "154253.952500", "154255.442500", "154256.932500", "154258.422500", "154259.912500", "154301.402500", "154302.892500", "154304.382500", "154305.872500", "154307.362500", "154308.852500", "154310.342500", "154311.832500", "154313.322500", "154314.812500", "154316.302500", "154317.792500", "154319.282500", "154320.772500", "154322.262500", "154323.752500", "154325.242500", "154326.732500", "154328.222500", "154329.712500", "154331.202500", "154332.692500", "154334.182500", "154335.672500", "154337.162500", "154338.652500", "154340.142500", "154341.632500", "154343.122500", "154344.612500", "154346.102500", "154347.592500", "154349.082500", "154350.572500", "154352.062500", "154353.552500", "154355.042500", "154356.532500", "154358.022500", "154359.512500", "154401.002500", "154402.492500", "154403.982500", "154405.472500", "154406.962500", "154408.452500", "154409.942500", "154411.432500", "154412.922500", "154414.412500", "154415.902500", "154417.392500", "154418.882500", "154420.372500", "154421.862500", "154423.352500", "154424.842500", "154426.332500", "154427.822500", "154429.312500", "154430.802500", "154432.292500", "154433.782500", "154435.272500", "154436.762500", "154438.252500", "154439.742500", "154441.232500", "154442.722500", "154444.212500", "154445.702500", "154447.192500", "154448.682500", "154450.172500", "154451.662500", "154453.152500", "154454.642500", "154456.132500", "154457.622500", "154459.112500", "154500.602500", "154502.092500", "154503.582500", "154505.072500", "154506.562500", "154508.052500", "154509.542500", "154511.032500", "154512.522500", "154514.012500", "154515.502500", "154516.992500", "154518.482500", "154519.972500", "154521.462500", "154522.952500", "154524.442500", "154525.932500", "154527.422500", "154528.912500", "154530.402500", "154531.892500", "154533.382500", "154534.872500", "154536.362500", "154537.852500", "154539.342500", "154540.832500", "154542.322500", "154543.812500", "154545.302500", "154546.792500", "154548.282500", "154549.772500", "154551.262500", "154552.752500", "154554.242500", "154555.732500", "154557.222500", "154558.712500", "154600.202500", "154601.692500", "154603.182500", "154604.672500", "154606.162500", "154607.652500", "154609.142500", "154610.632500", "154612.122500", "154613.612500", "154615.102500", "154616.592500", "154618.082500", "154619.572500", "154621.062500", "154622.552500", "154624.042500", "154625.532500", "154627.022500", "154628.512500", "154630.002500", "154631.492500", "154632.982500", "154634.472500", "154635.962500", "154637.452500", "154638.942500", "154640.432500", "154641.922500", "154643.412500", "154644.902500", "154646.392500", "154647.882500", "154649.372500", "154650.862500", "154652.352500", "154653.842500", "154655.332500", "154656.822500", "154658.312500", "154659.802500", "154701.292500", "154702.782500", "154704.272500", "154705.762500", "154707.252500", "154708.742500", "154710.232500", "154711.722500", "154713.212500", "154714.702500", "154716.192500", "154717.682500", "154719.172500", "154720.662500", "154722.152500", "154723.642500", "154725.132500", "154726.622500", "154728.112500", "154729.602500", "154731.092500", "154732.582500", "154734.072500", "154735.562500", "154737.052500", "154738.542500", "154740.032500", "154741.522500", "154743.012500", "154744.502500", "154745.992500", "154747.482500", "154748.972500", "154750.462500", "154751.952500", "154753.442500", "154754.932500", "154756.422500", "154757.912500", "154759.402500", "154800.892500", "154802.382500", "154803.872500", "154805.362500", "154806.852500", "154808.342500", "154809.832500", "154811.322500", "154812.812500", "154814.302500", "154815.792500", "154817.282500", "154818.772500", "154820.262500", "154821.752500", "154823.242500", "154824.732500", "154826.222500", "154827.712500", "154829.202500", "154830.692500", "154832.182500", "154833.672500", "154835.162500", "154836.652500", "154838.142500", "154839.632500", "154841.122500", "154842.612500", "154844.102500", "154845.592500", "154847.082500", "154848.572500", "154850.062500", "154851.552500", "154853.042500", "154854.532500", "154856.022500", "154857.512500", "154859.002500", "154900.492500", "154901.982500", "154903.472500", "154904.962500", "154906.452500", "154907.942500", "154909.432500", "154910.922500", "154912.412500", "154913.902500", "154915.392500", "154916.882500", "154918.372500", "154919.862500", "154921.352500", "154922.842500", "154924.332500", "154925.822500", "154927.312500", "154928.802500", "154930.292500", "154931.782500", "154933.272500", "154934.762500", "154936.252500", "154937.742500", "154939.232500", "154940.722500", "154942.212500", "154943.702500", "154945.192500", "154946.682500", "154948.172500", "154949.662500", "154951.152500", "154952.642500", "154954.132500", "154955.622500", "154957.112500", "154958.602500", "155000.092500", "155001.582500", "155003.072500", "155004.562500", "155006.052500", "155007.542500", "155009.032500", "155010.522500", "155012.012500", "155013.502500", "155014.992500", "155016.482500", "155017.972500", "155019.462500", "155020.952500", "155022.442500", "155023.932500", "155025.422500", "155026.912500", "155028.402500", "155029.892500", "155031.382500", "155032.872500", "155034.362500", "155035.852500", "155037.342500", "155038.832500", "155040.322500", "155041.812500", "155043.302500", "155044.792500", "155046.282500", "155047.772500", "155049.262500", "155050.752500", "155052.242500", "155053.732500", "155055.222500", "155056.712500", "155058.202500", "155059.692500", "155101.182500", "155102.672500", "155104.162500", "155105.652500", "155107.142500", "155108.632500", "155110.122500", "155111.612500", "155113.102500", "155114.592500", "155116.082500", "155117.572500", "155119.062500", "155120.552500", "155122.042500", "155123.532500", "155125.022500", "155126.512500", "155128.002500", "155129.492500", "155130.982500", "155132.472500", "155133.962500", "155135.452500", "155136.942500", "155138.432500", "155139.922500", "155141.412500", "155142.902500", "155144.392500", "155145.882500", "155147.372500", "155148.862500", "155150.352500", "155151.842500", "155153.332500", "155154.822500", "155156.312500", "155157.802500", "155159.292500", "155200.782500", "155202.272500", "155203.762500", "155205.252500", "155206.742500", "155208.232500", "155209.722500", "155211.212500", "155212.702500", "155214.192500", "155215.682500", "155217.172500", "155218.662500", "155220.152500", "155221.642500", "155223.132500", "155224.622500", "155226.112500", "155227.602500", "155229.092500", "155230.582500", "155232.072500", "155233.562500", "155235.052500", "155236.542500"],
      "ContentTime": ["154234.623000", "154234.627000", "154234.630000", "154234.632000", "154234.635000", "154234.638000", "154234.641000", "154234.644000", "154234.647000", "154234.663000", "154234.665000", "154234.668000", "154234.671000", "154234.674000", "154234.677000", "154234.680000", "154234.683000", "154234.685000", "154234.688000", "154234.691000", "154234.694000", "154234.703000", "154234.705000", "154234.708000", "154234.711000", "154234.714000", "154234.717000", "154234.720000", "154254.594000", "154254.597000", "154254.600000", "154254.603000", "154254.606000", "154254.613000", "154254.616000", "154254.619000", "154254.622000", "154254.624000", "154254.627000", "154254.630000", "154254.633000", "154254.636000", "154254.639000", "154254.642000", "154254.645000", "154254.648000", "154254.651000", "154254.654000", "154314.594000", "154314.597000", "154314.600000", "154314.603000", "154314.606000", "154314.608000", "154314.611000", "154314.614000", "154314.617000", "154314.620000", "154314.623000", "154314.626000", "154314.628000", "154314.631000", "154314.634000", "154314.637000", "154314.640000", "154314.643000", "154314.646000", "154314.649000", "154334.594000", "154334.597000", "154334.600000", "154334.603000", "154334.606000", "154334.613000", "154334.616000", "154334.619000", "154334.622000", "154334.625000", "154334.628000", "154334.630000", "154334.633000", "154334.636000", "154334.639000", "154334.642000", "154334.645000", "154334.648000", "154334.651000", "154334.653000", "154354.594000", "154354.597000", "154354.600000", "154354.603000", "154354.606000", "154354.608000", "154354.611000", "154354.614000", "154354.617000", "154354.620000", "154354.623000", "154354.632000", "154354.635000", "154354.638000", "154354.641000", "154354.643000", "154354.646000", "154354.649000", "154354.652000", "154354.655000", "154434.594000", "154434.597000", "154434.600000", "154434.603000", "154434.606000", "154434.609000", "154434.611000", "154434.614000", "154434.617000", "154434.620000", "154434.623000", "154434.626000", "154434.634000", "154434.637000", "154434.640000", "154434.643000", "154434.646000", "154434.648000", "154434.651000", "154434.654000", "154434.657000", "154434.660000", "154434.663000", "154434.666000", "154434.669000", "154434.671000", "154434.674000", "154514.594000", "154514.597000", "154514.600000", "154514.603000", "154514.606000", "154514.609000", "154514.612000", "154514.614000", "154514.617000", "154514.620000", "154514.623000", "154514.626000", "154514.629000", "154514.632000", "154514.635000", "154514.637000", "154514.640000", "154514.644000", "154514.647000", "154514.650000", "154514.653000", "154514.656000", "154514.659000", "154514.662000", "154514.665000", "154514.668000", "154554.594000", "154554.597000", "154554.600000", "154554.603000", "154554.606000", "154554.609000", "154554.611000", "154554.614000", "154554.617000", "154554.620000", "154554.623000", "154554.626000", "154554.629000", "154554.632000", "154554.634000", "154554.637000", "154554.640000", "154554.643000", "154554.646000", "154554.649000", "154554.652000", "154554.669000", "154554.672000", "154554.675000", "154554.677000", "154554.680000", "154554.683000", "154634.594000", "154634.597000", "154634.600000", "154634.603000", "154634.606000", "154634.609000", "154634.612000", "154634.614000", "154634.617000", "154634.620000", "154634.623000", "154634.626000", "154634.629000", "154634.632000", "154634.635000", "154634.638000", "154634.641000", "154634.644000", "154634.646000", "154634.649000", "154634.652000", "154634.655000", "154634.658000", "154634.661000", "154634.664000", "154634.667000", "154634.670000", "154714.594000", "154714.597000", "154714.600000", "154714.603000", "154714.606000", "154714.609000", "154714.611000", "154714.614000", "154714.617000", "154714.620000", "154714.623000", "154714.626000", "154714.629000", "154714.632000", "154714.635000", "154714.638000", "154714.640000", "154714.643000", "154714.646000", "154714.649000", "154714.652000", "154714.655000", "154714.658000", "154714.661000", "154714.664000", "154714.667000", "154714.670000", "154754.594000", "154754.600000", "154754.603000", "154754.606000", "154754.609000", "154754.612000", "154754.615000", "154754.618000", "154754.621000", "154754.624000", "154754.626000", "154754.629000", "154754.632000", "154754.635000", "154754.638000", "154754.641000", "154754.644000", "154754.647000", "154754.650000", "154754.652000", "154754.655000", "154754.658000", "154754.661000", "154754.664000", "154754.667000", "154754.670000", "154754.673000", "154834.594000", "154834.597000", "154834.600000", "154834.603000", "154834.606000", "154834.609000", "154834.612000", "154834.614000", "154834.617000", "154834.620000", "154834.623000", "154834.626000", "154834.629000", "154834.632000", "154834.635000", "154834.638000", "154834.641000", "154834.644000", "154834.647000", "154834.650000", "154834.653000", "154834.656000", "154834.658000", "154834.661000", "154834.664000", "154834.667000", "154834.670000", "154914.594000", "154914.597000", "154914.600000", "154914.603000", "154914.606000", "154914.609000", "154914.612000", "154914.614000", "154914.617000", "154914.620000", "154914.623000", "154914.626000", "154914.629000", "154914.632000", "154914.635000", "154914.638000", "154914.641000", "154914.644000", "154914.647000", "154914.650000", "154914.653000", "154914.656000", "154914.659000", "154914.662000", "154914.665000", "154914.668000", "154954.594000", "154954.597000", "154954.600000", "154954.603000", "154954.606000", "154954.609000", "154954.612000", "154954.615000", "154954.618000", "154954.621000", "154954.624000", "154954.627000", "154954.630000", "154954.633000", "154954.635000", "154954.638000", "154954.641000", "154954.644000", "154954.647000", "154954.650000", "154954.653000", "154954.656000", "154954.659000", "154954.662000", "154954.665000", "154954.667000", "154954.670000", "155034.594000", "155034.597000", "155034.600000", "155034.603000", "155034.606000", "155034.609000", "155034.612000", "155034.614000", "155034.617000", "155034.620000", "155034.623000", "155034.626000", "155034.629000", "155034.632000", "155034.635000", "155034.638000", "155034.641000", "155034.644000", "155034.647000", "155034.649000", "155034.652000", "155034.655000", "155034.658000", "155034.661000", "155034.664000", "155034.667000", "155034.670000", "155114.593000", "155114.596000", "155114.599000", "155114.602000", "155114.605000", "155114.608000", "155114.611000", "155114.614000", "155114.616000", "155114.619000", "155114.622000", "155114.625000", "155114.628000", "155114.631000", "155114.634000", "155114.637000", "155114.640000", "155114.643000", "155114.646000", "155114.648000", "155114.651000", "155114.654000", "155114.657000", "155114.660000", "155114.663000", "155114.666000", "155114.669000", "155154.594000", "155154.597000", "155154.600000", "155154.603000", "155154.606000", "155154.609000", "155154.612000", "155154.615000", "155154.618000", "155154.621000", "155154.624000", "155154.626000", "155154.629000", "155154.632000", "155154.635000", "155154.638000", "155154.641000", "155154.644000", "155154.647000", "155154.650000", "155154.653000", "155154.656000", "155154.658000", "155154.661000", "155154.664000", "155154.667000", "155154.670000", "155234.594000", "155234.597000", "155234.600000", "155234.603000", "155234.606000", "155234.609000", "155234.612000", "155234.615000", "155234.618000", "155234.621000", "155234.623000", "155234.626000", "155234.629000", "155234.632000", "155234.635000", "155234.638000", "155234.641000", "155234.644000", "155234.647000", "155234.650000", "155234.653000", "155234.655000", "155234.658000", "155234.661000", "155234.664000", "155234.667000", "155234.670000", "155238.844000", "155238.847000", "155238.850000"],
