{
  "AcquisitionMatrixPE": 104,
  "AcquisitionNumber": 1,
  "AcquisitionTime": "15:28:20.672500",
  "BandwidthPerPixelPhaseEncode": 17.17,
  "BaseResolution": 104,
  "BodyPartExamined": "BRAIN",
  "CoilCombinationMethod": "Sum of Squares",
  "ConsistencyInfo": "N4_VE11C_LATEST_20160120",
  "ConversionSoftware": "dcm2niix",
  "ConversionSoftwareVersion": "v1.0.20211006",
  "DerivedVendorReportedEchoSpacing": 0.000560011,
  "DeviceSerialNumber": "167006",
  "DwellTime": 2.1e-06,
  "EchoTime": 0.037,
  "EchoTrainLength": 104,
  "EffectiveEchoSpacing": 0.000560011,
  "FlipAngle": 52,
  "HeudiconvVersion": "0.11.3.post9+gc939bf8",
  "ImageComments": "Unaliased MB4/PE3/LB",
  "ImageOrientationPatientDICOM": [0.999228, -0.0369689, -0.0132983, 0.0303547, 0.941344, -0.336079],
  "ImageOrientationText": "Tra>Cor(-19.6)>Sag(-1.4)",
  "ImageType": [
    "ORIGINAL",
    "PRIMARY",
    "M",
    "MB",
    "ND",
    "MOSAIC"
],
  "ImagingFrequency": 123.259,
  "InPlanePhaseEncodingDirectionDICOM": "COL",
  "InstitutionAddress": "Chemin Queen-Mary 4565,Montreal,District,CA,H3W 1W5",
  "InstitutionName": "IUGM",
  "InstitutionalDepartmentName": "Department",
  "MRAcquisitionType": "2D",
  "MagneticFieldStrength": 3,
  "Manufacturer": "Siemens",
  "ManufacturersModelName": "Prisma_fit",
  "MatrixCoilMode": "SENSE",
  "Modality": "MR",
  "MultibandAccelerationFactor": 4,
  "PartialFourier": 1,
  "PatientPosition": "HFS",
  "PercentPhaseFOV": 100,
  "PercentSampling": 100,
  "PhaseEncodingDirection": "j",
  "PhaseEncodingSteps": 104,
  "PhaseResolution": 1,
  "PixelBandwidth": 2290,
  "ProcedureStepDescription": "video^friends",
  "ProtocolName": "func_task-friends-s06e15b",
  "PulseSequenceDetails": "%CustomerSeq%\\cmrr_mbep2d_bold",
  "ReceiveCoilActiveElements": "HC1-7;NC1,2",
  "ReceiveCoilName": "HeadNeck_64",
  "ReconMatrixPE": 104,
  "RepetitionTime": 1.49,
  "SAR": 0.0532807,
  "ScanOptions": "FS",
  "ScanningSequence": "EP",
  "SequenceName": "epfid2d1_104",
  "SequenceVariant": "SK\\SS",
  "SeriesDescription": "func_task-friends-s06e15b",
  "SeriesNumber": 12,
  "ShimSetting": [618, -7257, -8816, 573, 4, -222, -80, -23],
  "SliceThickness": 2,
  "SliceTiming": [0, 0.7825, 0.0975, 0.8825, 0.195, 0.98, 0.2925, 1.0775, 0.3925, 1.175, 0.49, 1.2725, 0.5875, 1.3725, 0.685, 0, 0.7825, 0.0975, 0.8825, 0.195, 0.98, 0.2925, 1.0775, 0.3925, 1.175, 0.49, 1.2725, 0.5875, 1.3725, 0.685, 0, 0.7825, 0.0975, 0.8825, 0.195, 0.98, 0.2925, 1.0775, 0.3925, 1.175, 0.49, 1.2725, 0.5875, 1.3725, 0.685, 0, 0.7825, 0.0975, 0.8825, 0.195, 0.98, 0.2925, 1.0775, 0.3925, 1.175, 0.49, 1.2725, 0.5875, 1.3725, 0.685],
  "SoftwareVersions": "syngo MR E11",
  "SpacingBetweenSlices": 2,
  "StationName": "MRC35049",
  "TaskName": "s06e15b",
  "TotalReadoutTime": 0.0576811,
  "TxRefAmp": 259.16,
  "WipMemBlock": "7c5760d0-9ccb-444e-8b81-9e713dd8d600||Sequence: R016 ve11c/master r/e634e98; Dec 19 2017 11:00:25 by eja",
  "dcmmeta_affine": [
    [-1.9984558820724487, 0.06070931628346443, -0.04988553002476692, 100.5002212524414],
    [0.07393787056207657, 1.8826887607574463, -0.6708323955535889, -78.10164642333984],
    [-0.02659657411277294, 0.6721587181091309, 1.8834795951843262, -62.84730529785156],
    [0.0, 0.0, 0.0, 1.0]
],
  "dcmmeta_reorient_transform": [
    [0.0, -1.0, 0.0, 103.0],
    [1.0, 0.0, 0.0, 0.0],
    [0.0, 0.0, 1.0, 0.0],
    [0.0, 0.0, 0.0, 1.0]
],
  "dcmmeta_shape": [104, 104, 60, 460],
  "dcmmeta_slice_dim": 2,
  "dcmmeta_version": 0.6,
  "global": {
    "const": {
      "AcquisitionMatrix": [104, 0, 0, 104],
      "AngioFlag": "N",
      "BitsAllocated": 16,
      "BitsStored": 16,
      "BodyPartExamined": "BRAIN",
      "Columns": 832,
      "EchoNumbers": 1,
      "EchoTime": 37.0,
      "EchoTrainLength": 104,
      "FlipAngle": 52.0,
      "HighBit": 15,
      "ImageOrientationPatient": [0.99922792858214, -0.0369689368594, -0.0132982874439, 0.03035465752122, 0.94134439180343, -0.3360793519201],
      "ImagePositionPatient": [-856.28940421321, -774.20063051232, 260.73196439871],
      "ImageType": [
        "ORIGINAL",
        "PRIMARY",
        "M",
        "MB",
        "ND",
        "MOSAIC"
],
      "ImagedNucleus": "1H",
      "ImagingFrequency": 123.258786,
      "InPlanePhaseEncodingDirection": "COL",
      "MRAcquisitionType": "2D",
      "MagneticFieldStrength": 3.0,
      "Manufacturer": "SIEMENS",
      "ManufacturerModelName": "Prisma_fit",
      "Modality": "MR",
      "NumberOfAverages": 1.0,
      "NumberOfPhaseEncodingSteps": 104,
      "PercentPhaseFieldOfView": 100.0,
      "PercentSampling": 100.0,
      "PerformedProcedureStepStartTime": "145924.815000",
      "PhotometricInterpretation": "MONOCHROME2",
      "PixelBandwidth": 2290.0,
      "PixelRepresentation": 0,
      "PixelSpacing": [2.0, 2.0],
      "ProtocolName": "func_task-friends-s06e15b",
      "RepetitionTime": 1490.0,
      "Rows": 832,
      "SAR": 0.05328072526142,
      "SamplesPerPixel": 1,
      "ScanOptions": "FS",
      "ScanningSequence": "EP",
      "SequenceName": "epfid2d1_104",
      "SequenceVariant": [
        "SK",
        "SS"
],
      "SeriesDescription": "func_task-friends-s06e15b",
      "SeriesNumber": 12,
      "SeriesTime": "152922.070000",
      "SliceLocation": -35.49600172271,
      "SliceThickness": 2.0,
      "SmallestImagePixelValue": 0,
      "SoftwareVersions": "syngo MR E11",
      "SpacingBetweenSlices": 2.0000000145724,
      "SpecificCharacterSet": "ISO_IR 100",
      "StudyID": "1",
      "StudyTime": "145924.736000",
      "TransmitCoilName": "Body",
      "VariableFlipAngleFlag": "N",
      "WindowCenterWidthExplanation": "Algo1",
      "dBdt": 0.0},
    "slices": {}
  },
  "time": {
    "samples": {
      "AcquisitionNumber": [1, 2, 3, 4, 5, 6, 7, 8, 9, 10, 11, 12, 13, 14, 15, 16, 17, 18, 19, 20, 21, 22, 23, 24, 25, 26, 27, 28, 29, 30, 31, 32, 33, 34, 35, 36, 37, 38, 39, 40, 41, 42, 43, 44, 45, 46, 47, 48, 49, 50, 51, 52, 53, 54, 55, 56, 57, 58, 59, 60, 61, 62, 63, 64, 65, 66, 67, 68, 69, 70, 71, 72, 73, 74, 75, 76, 77, 78, 79, 80, 81, 82, 83, 84, 85, 86, 87, 88, 89, 90, 91, 92, 93, 94, 95, 96, 97, 98, 99, 100, 101, 102, 103, 104, 105, 106, 107, 108, 109, 110, 111, 112, 113, 114, 115, 116, 117, 118, 119, 120, 121, 122, 123, 124, 125, 126, 127, 128, 129, 130, 131, 132, 133, 134, 135, 136, 137, 138, 139, 140, 141, 142, 143, 144, 145, 146, 147, 148, 149, 150, 151, 152, 153, 154, 155, 156, 157, 158, 159, 160, 161, 162, 163, 164, 165, 166, 167, 168, 169, 170, 171, 172, 173, 174, 175, 176, 177, 178, 179, 180, 181, 182, 183, 184, 185, 186, 187, 188, 189, 190, 191, 192, 193, 194, 195, 196, 197, 198, 199, 200, 201, 202, 203, 204, 205, 206, 207, 208, 209, 210, 211, 212, 213, 214, 215, 216, 217, 218, 219, 220, 221, 222, 223, 224, 225, 226, 227, 228, 229, 230, 231, 232, 233, 234, 235, 236, 237, 238, 239, 240, 241, 242, 243, 244, 245, 246, 247, 248, 249, 250, 251, 252, 253, 254, 255, 256, 257, 258, 259, 260, 261, 262, 263, 264, 265, 266, 267, 268, 269, 270, 271, 272, 273, 274, 275, 276, 277, 278, 279, 280, 281, 282, 283, 284, 285, 286, 287, 288, 289, 290, 291, 292, 293, 294, 295, 296, 297, 298, 299, 300, 301, 302, 303, 304, 305, 306, 307, 308, 309, 310, 311, 312, 313, 314, 315, 316, 317, 318, 319, 320, 321, 322, 323, 324, 325, 326, 327, 328, 329, 330, 331, 332, 333, 334, 335, 336, 337, 338, 339, 340, 341, 342, 343, 344, 345, 346, 347, 348, 349, 350, 351, 352, 353, 354, 355, 356, 357, 358, 359, 360, 361, 362, 363, 364, 365, 366, 367, 368, 369, 370, 371, 372, 373, 374, 375, 376, 377, 378, 379, 380, 381, 382, 383, 384, 385, 386, 387, 388, 389, 390, 391, 392, 393, 394, 395, 396, 397, 398, 399, 400, 401, 402, 403, 404, 405, 406, 407, 408, 409, 410, 411, 412, 413, 414, 415, 416, 417, 418, 419, 420, 421, 422, 423, 424, 425, 426, 427, 428, 429, 430, 431, 432, 433, 434, 435, 436, 437, 438, 439, 440, 441, 442, 443, 444, 445, 446, 447, 448, 449, 450, 451, 452, 453, 454, 455, 456, 457, 458, 459, 460],
      "AcquisitionTime": ["152820.672500", "152822.162500", "152823.652500", "152825.142500", "152826.632500", "152828.122500", "152829.612500", "152831.102500", "152832.592500", "152834.082500", "152835.572500", "152837.062500", "152838.552500", "152840.042500", "152841.532500", "152843.022500", "152844.512500", "152846.002500", "152847.492500", "152848.982500", "152850.472500", "152851.962500", "152853.452500", "152854.942500", "152856.432500", "152857.922500", "152859.412500", "152900.902500", "152902.392500", "152903.882500", "152905.372500", "152906.862500", "152908.352500", "152909.842500", "152911.332500", "152912.822500", "152914.312500", "152915.802500", "152917.292500", "152918.782500", "152920.272500", "152921.762500", "152923.252500", "152924.742500", "152926.232500", "152927.722500", "152929.212500", "152930.702500", "152932.192500", "152933.682500", "152935.172500", "152936.662500", "152938.152500", "152939.642500", "152941.132500", "152942.622500", "152944.112500", "152945.602500", "152947.092500", "152948.582500", "152950.072500", "152951.562500", "152953.052500", "152954.542500", "152956.032500", "152957.522500", "152959.012500", "153000.502500", "153001.992500", "153003.482500", "153004.972500", "153006.462500", "153007.952500", "153009.442500", "153010.932500", "153012.422500", "153013.912500", "153015.402500", "153016.892500", "153018.382500", "153019.872500", "153021.362500", "153022.852500", "153024.342500", "153025.832500", "153027.322500", "153028.812500", "153030.302500", "153031.792500", "153033.282500", "153034.772500", "153036.262500", "153037.752500", "153039.242500", "153040.732500", "153042.222500", "153043.712500", "153045.202500", "153046.692500", "153048.182500", "153049.672500", "153051.162500", "153052.652500", "153054.142500", "153055.632500", "153057.122500", "153058.612500", "153100.102500", "153101.592500", "153103.082500", "153104.572500", "153106.062500", "153107.552500", "153109.042500", "153110.532500", "153112.022500", "153113.512500", "153115.002500", "153116.492500", "153117.982500", "153119.472500", "153120.962500", "153122.452500", "153123.942500", "153125.432500", "153126.922500", "153128.412500", "153129.902500", "153131.392500", "153132.882500", "153134.372500", "153135.862500", "153137.352500", "153138.842500", "153140.332500", "153141.822500", "153143.312500", "153144.802500", "153146.292500", "153147.782500", "153149.272500", "153150.762500", "153152.252500", "153153.742500", "153155.232500", "153156.722500", "153158.212500", "153159.702500", "153201.192500", "153202.682500", "153204.172500", "153205.662500", "153207.152500", "153208.642500", "153210.132500", "153211.622500", "153213.112500", "153214.602500", "153216.092500", "153217.582500", "153219.072500", "153220.562500", "153222.052500", "153223.542500", "153225.032500", "153226.522500", "153228.012500", "153229.502500", "153230.992500", "153232.482500", "153233.972500", "153235.462500", "153236.952500", "153238.442500", "153239.932500", "153241.422500", "153242.912500", "153244.402500", "153245.892500", "153247.382500", "153248.872500", "153250.362500", "153251.852500", "153253.342500", "153254.832500", "153256.322500", "153257.812500", "153259.302500", "153300.792500", "153302.282500", "153303.772500", "153305.262500", "153306.752500", "153308.242500", "153309.732500", "153311.222500", "153312.712500", "153314.202500", "153315.692500", "153317.182500", "153318.672500", "153320.162500", "153321.652500", "153323.142500", "153324.632500", "153326.122500", "153327.612500", "153329.102500", "153330.592500", "153332.082500", "153333.572500", "153335.062500", "153336.552500", "153338.042500", "153339.532500", "153341.022500", "153342.512500", "153344.002500", "153345.492500", "153346.982500", "153348.472500", "153349.962500", "153351.452500", "153352.942500", "153354.432500", "153355.922500", "153357.412500", "153358.902500", "153400.392500", "153401.882500", "153403.372500", "153404.862500", "153406.352500", "153407.842500", "153409.332500", "153410.822500", "153412.312500", "153413.802500", "153415.292500", "153416.782500", "153418.272500", "153419.762500", "153421.252500", "153422.742500", "153424.232500", "153425.722500", "153427.212500", "153428.702500", "153430.192500", "153431.682500", "153433.172500", "153434.662500", "153436.152500", "153437.642500", "153439.132500", "153440.622500", "153442.112500", "153443.602500", "153445.092500", "153446.582500", "153448.072500", "153449.562500", "153451.052500", "153452.542500", "153454.032500", "153455.522500", "153457.012500", "153458.502500", "153459.992500", "153501.482500", "153502.972500", "153504.462500", "153505.952500", "153507.442500", "153508.932500", "153510.422500", "153511.912500", "153513.402500", "153514.892500", "153516.382500", "153517.872500", "153519.362500", "153520.852500", "153522.342500", "153523.832500", "153525.322500", "153526.812500", "153528.302500", "153529.792500", "153531.282500", "153532.772500", "153534.262500", "153535.752500", "153537.242500", "153538.732500", "153540.222500", "153541.712500", "153543.202500", "153544.692500", "153546.182500", "153547.672500", "153549.162500", "153550.652500", "153552.142500", "153553.632500", "153555.122500", "153556.612500", "153558.102500", "153559.592500", "153601.082500", "153602.572500", "153604.062500", "153605.552500", "153607.042500", "153608.532500", "153610.022500", "153611.512500", "153613.002500", "153614.492500", "153615.982500", "153617.472500", "153618.962500", "153620.452500", "153621.942500", "153623.432500", "153624.922500", "153626.412500", "153627.902500", "153629.392500", "153630.882500", "153632.372500", "153633.862500", "153635.352500", "153636.842500", "153638.332500", "153639.822500", "153641.312500", "153642.802500", "153644.292500", "153645.782500", "153647.272500", "153648.762500", "153650.252500", "153651.742500", "153653.232500", "153654.722500", "153656.212500", "153657.702500", "153659.192500", "153700.682500", "153702.172500", "153703.662500", "153705.152500", "153706.642500", "153708.132500", "153709.622500", "153711.112500", "153712.602500", "153714.092500", "153715.582500", "153717.072500", "153718.562500", "153720.052500", "153721.542500", "153723.032500", "153724.522500", "153726.012500", "153727.502500", "153728.992500", "153730.482500", "153731.972500", "153733.462500", "153734.952500", "153736.442500", "153737.932500", "153739.422500", "153740.912500", "153742.402500", "153743.892500", "153745.382500", "153746.872500", "153748.362500", "153749.852500", "153751.342500", "153752.832500", "153754.322500", "153755.812500", "153757.302500", "153758.792500", "153800.282500", "153801.772500", "153803.262500", "153804.752500", "153806.242500", "153807.732500", "153809.222500", "153810.712500", "153812.202500", "153813.692500", "153815.182500", "153816.672500", "153818.162500", "153819.652500", "153821.142500", "153822.632500", "153824.122500", "153825.612500", "153827.102500", "153828.592500", "153830.082500", "153831.572500", "153833.062500", "153834.552500", "153836.042500", "153837.532500", "153839.022500", "153840.512500", "153842.002500", "153843.492500", "153844.982500", "153846.472500", "153847.962500", "153849.452500", "153850.942500", "153852.432500", "153853.922500", "153855.412500", "153856.902500", "153858.392500", "153859.882500", "153901.372500", "153902.862500", "153904.352500", "153905.842500", "153907.332500", "153908.822500", "153910.312500", "153911.802500", "153913.292500", "153914.782500", "153916.272500", "153917.762500", "153919.252500", "153920.742500", "153922.232500", "153923.722500", "153925.212500", "153926.702500", "153928.192500", "153929.682500", "153931.172500", "153932.662500", "153934.152500", "153935.642500", "153937.132500", "153938.622500", "153940.112500", "153941.602500", "153943.092500", "153944.582500"],
      "ContentTime": ["152922.073000", "152922.077000", "152922.079000", "152922.082000", "152922.085000", "152922.089000", "152942.043000", "152942.046000", "152942.055000", "152942.058000", "152942.061000", "152942.063000", "152942.066000", "152942.069000", "152942.072000", "152942.083000", "152942.086000", "152942.089000", "152942.092000", "152942.095000", "152942.101000", "152942.104000", "152942.106000", "152942.109000", "152942.112000", "152942.115000", "153002.043000", "153002.046000", "153002.049000", "153002.052000", "153002.055000", "153002.057000", "153002.060000", "153002.063000", "153002.066000", "153002.069000", "153002.072000", "153002.085000", "153002.088000", "153002.091000", "153002.094000", "153002.097000", "153002.100000", "153002.103000", "153002.105000", "153002.108000", "153022.043000", "153022.046000", "153022.049000", "153022.052000", "153022.055000", "153022.058000", "153022.070000", "153022.072000", "153022.075000", "153022.078000", "153022.081000", "153022.084000", "153022.087000", "153022.089000", "153022.092000", "153022.095000", "153022.098000", "153022.101000", "153022.104000", "153022.107000", "153042.042000", "153042.045000", "153042.048000", "153042.051000", "153042.054000", "153042.056000", "153042.059000", "153042.062000", "153042.065000", "153042.068000", "153042.071000", "153042.074000", "153042.077000", "153042.079000", "153042.082000", "153042.085000", "153042.088000", "153042.091000", "153042.094000", "153042.097000", "153102.042000", "153102.045000", "153102.048000", "153102.051000", "153102.054000", "153102.056000", "153102.059000", "153102.062000", "153102.065000", "153102.068000", "153102.071000", "153102.074000", "153102.077000", "153102.080000", "153102.082000", "153102.085000", "153102.088000", "153102.105000", "153102.108000", "153102.110000", "153142.042000", "153142.045000", "153142.048000", "153142.051000", "153142.054000", "153142.057000", "153142.060000", "153142.062000", "153142.065000", "153142.068000", "153142.071000", "153142.074000", "153142.077000", "153142.080000", "153142.083000", "153142.086000", "153142.089000", "153142.091000", "153142.094000", "153142.097000", "153142.100000", "153142.103000", "153142.106000", "153142.109000", "153142.112000", "153142.114000", "153142.117000", "153142.120000", "153222.043000", "153222.046000", "153222.049000", "153222.052000", "153222.055000", "153222.058000", "153222.061000", "153222.063000", "153222.066000", "153222.069000", "153222.072000", "153222.075000", "153222.078000", "153222.081000", "153222.084000", "153222.087000", "153222.089000", "153222.092000", "153222.095000", "153222.098000", "153222.101000", "153222.104000", "153222.107000", "153222.110000", "153222.113000", "153222.115000", "153222.118000", "153302.042000", "153302.045000", "153302.048000", "153302.051000", "153302.054000", "153302.057000", "153302.060000", "153302.063000", "153302.065000", "153302.068000", "153302.071000", "153302.074000", "153302.077000", "153302.080000", "153302.083000", "153302.086000", "153302.089000", "153302.091000", "153302.094000", "153302.097000", "153302.100000", "153302.103000", "153302.106000", "153302.109000", "153302.112000", "153302.115000", "153302.118000", "153342.042000", "153342.045000", "153342.048000", "153342.051000", "153342.054000", "153342.057000", "153342.060000", "153342.063000", "153342.065000", "153342.068000", "153342.071000", "153342.074000", "153342.077000", "153342.080000", "153342.083000", "153342.086000", "153342.089000", "153342.092000", "153342.095000", "153342.097000", "153342.100000", "153342.103000", "153342.106000", "153342.109000", "153342.112000", "153342.115000", "153342.118000", "153422.043000", "153422.046000", "153422.049000", "153422.052000", "153422.055000", "153422.058000", "153422.061000", "153422.064000", "153422.066000", "153422.069000", "153422.072000", "153422.075000", "153422.078000", "153422.081000", "153422.084000", "153422.087000", "153422.090000", "153422.093000", "153422.095000", "153422.098000", "153422.101000", "153422.104000", "153422.107000", "153422.110000", "153422.113000", "153422.116000", "153422.119000", "153502.043000", "153502.046000", "153502.049000", "153502.052000", "153502.055000", "153502.058000", "153502.061000", "153502.064000", "153502.067000", "153502.070000", "153502.073000", "153502.076000", "153502.079000", "153502.082000", "153502.085000", "153502.088000", "153502.091000", "153502.094000", "153502.097000", "153502.100000", "153502.102000", "153502.105000", "153502.108000", "153502.111000", "153502.114000", "153502.117000", "153542.042000", "153542.045000", "153542.048000", "153542.051000", "153542.054000", "153542.057000", "153542.060000", "153542.063000", "153542.066000", "153542.068000", "153542.071000", "153542.074000", "153542.077000", "153542.080000", "153542.083000", "153542.086000", "153542.089000", "153542.092000", "153542.095000", "153542.098000", "153542.101000", "153542.103000", "153542.106000", "153542.109000", "153542.112000", "153542.115000", "153542.118000", "153622.042000", "153622.045000", "153622.048000", "153622.051000", "153622.054000", "153622.068000", "153622.071000", "153622.074000", "153622.077000", "153622.080000", "153622.083000", "153622.086000", "153622.089000", "153622.092000", "153622.095000", "153622.098000", "153622.101000", "153622.104000", "153622.107000", "153622.110000", "153622.112000", "153622.115000", "153622.118000", "153622.121000", "153622.124000", "153622.127000", "153622.130000", "153702.043000", "153702.046000", "153702.049000", "153702.052000", "153702.055000", "153702.058000", "153702.061000", "153702.064000", "153702.067000", "153702.069000", "153702.072000", "153702.075000", "153702.078000", "153702.081000", "153702.084000", "153702.087000", "153702.090000", "153702.093000", "153702.096000", "153702.099000", "153702.102000", "153702.105000", "153702.107000", "153702.110000", "153702.113000", "153702.116000", "153702.119000", "153742.042000", "153742.045000", "153742.048000", "153742.051000", "153742.054000", "153742.057000", "153742.060000", "153742.063000", "153742.066000", "153742.069000", "153742.072000", "153742.074000", "153742.077000", "153742.080000", "153742.083000", "153742.086000", "153742.089000", "153742.092000", "153742.095000", "153742.098000", "153742.101000", "153742.104000", "153742.107000", "153742.110000", "153742.112000", "153742.115000", "153742.118000", "153822.042000", "153822.045000", "153822.048000", "153822.051000", "153822.054000", "153822.057000", "153822.060000", "153822.062000", "153822.065000", "153822.068000", "153822.071000", "153822.074000", "153822.077000", "153822.080000", "153822.083000", "153822.086000", "153822.089000", "153822.092000", "153822.095000", "153822.098000", "153822.100000", "153822.103000", "153822.106000", "153822.109000", "153822.112000", "153822.115000", "153822.118000", "153902.043000", "153902.046000", "153902.049000", "153902.052000", "153902.055000", "153902.058000", "153902.061000", "153902.064000", "153902.067000", "153902.069000", "153902.072000", "153902.076000", "153902.078000", "153902.081000", "153902.085000", "153902.088000", "153902.091000", "153902.094000", "153902.097000", "153902.100000", "153902.103000", "153902.106000", "153902.109000", "153902.112000", "153902.115000", "153902.118000", "153942.043000", "153942.046000", "153942.049000", "153942.052000", "153942.055000", "153942.058000", "153942.061000", "153942.064000", "153942.067000", "153942.070000", "153942.072000", "153942.075000", "153942.078000", "153942.081000", "153942.084000", "153942.087000", "153942.090000", "153942.093000", "153942.096000", "153942.099000", "153942.102000", "153942.105000", "153942.108000", "153942.110000", "153942.113000", "153942.116000", "153942.119000", "153946.848000", "153946.851000", "153946.854000", "153946.857000"],
