{
  "AcquisitionMatrixPE": 104,
  "AcquisitionNumber": 1,
  "AcquisitionTime": "15:54:16.000000",
  "BandwidthPerPixelPhaseEncode": 17.17,
  "BaseResolution": 104,
  "BodyPartExamined": "BRAIN",
  "CoilCombinationMethod": "Sum of Squares",
  "ConsistencyInfo": "N4_VE11C_LATEST_20160120",
  "ConversionSoftware": "dcm2niix",
  "ConversionSoftwareVersion": "v1.0.20211006",
  "DerivedVendorReportedEchoSpacing": 0.000560011,
  "DeviceSerialNumber": "167006",
  "DwellTime": 2.1e-06,
  "EchoTime": 0.037,
  "EchoTrainLength": 104,
  "EffectiveEchoSpacing": 0.000560011,
  "FlipAngle": 52,
  "HeudiconvVersion": "0.11.3.post9+gc939bf8",
  "ImageComments": "Unaliased MB4/PE3/LB",
  "ImageOrientationPatientDICOM": [0.999228, -0.0369689, -0.0132983, 0.0303547, 0.941344, -0.336079],
  "ImageOrientationText": "Tra>Cor(-19.6)>Sag(-1.4)",
  "ImageType": [
    "ORIGINAL",
    "PRIMARY",
    "M",
    "MB",
    "ND",
    "MOSAIC"
],
  "ImagingFrequency": 123.259,
  "InPlanePhaseEncodingDirectionDICOM": "COL",
  "InstitutionAddress": "Chemin Queen-Mary 4565,Montreal,District,CA,H3W 1W5",
  "InstitutionName": "IUGM",
  "InstitutionalDepartmentName": "Department",
  "MRAcquisitionType": "2D",
  "MagneticFieldStrength": 3,
  "Manufacturer": "Siemens",
  "ManufacturersModelName": "Prisma_fit",
  "MatrixCoilMode": "SENSE",
  "Modality": "MR",
  "MultibandAccelerationFactor": 4,
  "PartialFourier": 1,
  "PatientPosition": "HFS",
  "PercentPhaseFOV": 100,
  "PercentSampling": 100,
  "PhaseEncodingDirection": "j",
  "PhaseEncodingSteps": 104,
  "PhaseResolution": 1,
  "PixelBandwidth": 2290,
  "ProcedureStepDescription": "video^friends",
  "ProtocolName": "func_task-friends-s06e15d",
  "PulseSequenceDetails": "%CustomerSeq%\\cmrr_mbep2d_bold",
  "ReceiveCoilActiveElements": "HC1-7;NC1,2",
  "ReceiveCoilName": "HeadNeck_64",
  "ReconMatrixPE": 104,
  "RepetitionTime": 1.49,
  "SAR": 0.0532947,
  "ScanOptions": "FS",
  "ScanningSequence": "EP",
  "SequenceName": "epfid2d1_104",
  "SequenceVariant": "SK\\SS",
  "SeriesDescription": "func_task-friends-s06e15d",
  "SeriesNumber": 16,
  "ShimSetting": [618, -7257, -8816, 573, 4, -222, -80, -23],
  "SliceThickness": 2,
  "SliceTiming": [0, 0.785, 0.0975, 0.8825, 0.195, 0.98, 0.295, 1.0775, 0.3925, 1.175, 0.49, 1.2725, 0.5875, 1.3725, 0.685, 0, 0.785, 0.0975, 0.8825, 0.195, 0.98, 0.295, 1.0775, 0.3925, 1.175, 0.49, 1.2725, 0.5875, 1.3725, 0.685, 0, 0.785, 0.0975, 0.8825, 0.195, 0.98, 0.295, 1.0775, 0.3925, 1.175, 0.49, 1.2725, 0.5875, 1.3725, 0.685, 0, 0.785, 0.0975, 0.8825, 0.195, 0.98, 0.295, 1.0775, 0.3925, 1.175, 0.49, 1.2725, 0.5875, 1.3725, 0.685],
  "SoftwareVersions": "syngo MR E11",
  "SpacingBetweenSlices": 2,
  "StationName": "MRC35049",
  "TaskName": "s06e15d",
  "TotalReadoutTime": 0.0576811,
  "TxRefAmp": 259.16,
  "WipMemBlock": "ba05fc76-3af4-4e39-8267-e0171898a276||Sequence: R016 ve11c/master r/e634e98; Dec 19 2017 11:00:25 by eja",
  "dcmmeta_affine": [
    [-1.9984558820724487, 0.06070931628346443, -0.04988553002476692, 100.5002212524414],
    [0.07393787056207657, 1.8826887607574463, -0.6708323955535889, -78.10164642333984],
    [-0.02659657411277294, 0.6721587181091309, 1.8834795951843262, -62.84730529785156],
    [0.0, 0.0, 0.0, 1.0]
],
  "dcmmeta_reorient_transform": [
    [0.0, -1.0, 0.0, 103.0],
    [1.0, 0.0, 0.0, 0.0],
    [0.0, 0.0, 1.0, 0.0],
    [0.0, 0.0, 0.0, 1.0]
],
  "dcmmeta_shape": [104, 104, 60, 490],
  "dcmmeta_slice_dim": 2,
  "dcmmeta_version": 0.6,
  "global": {
    "const": {
      "AcquisitionMatrix": [104, 0, 0, 104],
      "AngioFlag": "N",
      "BitsAllocated": 16,
      "BitsStored": 16,
      "BodyPartExamined": "BRAIN",
      "Columns": 832,
      "EchoNumbers": 1,
      "EchoTime": 37.0,
      "EchoTrainLength": 104,
      "FlipAngle": 52.0,
      "HighBit": 15,
      "ImageOrientationPatient": [0.99922792858214, -0.0369689368594, -0.0132982874439, 0.03035465752122, 0.94134439180343, -0.3360793519201],
      "ImagePositionPatient": [-856.28940421321, -774.20063051232, 260.73196439871],
      "ImageType": [
        "ORIGINAL",
        "PRIMARY",
        "M",
        "MB",
        "ND",
        "MOSAIC"
],
      "ImagedNucleus": "1H",
      "ImagingFrequency": 123.258795,
      "InPlanePhaseEncodingDirection": "COL",
      "MRAcquisitionType": "2D",
      "MagneticFieldStrength": 3.0,
      "Manufacturer": "SIEMENS",
      "ManufacturerModelName": "Prisma_fit",
      "Modality": "MR",
      "NumberOfAverages": 1.0,
      "NumberOfPhaseEncodingSteps": 104,
      "PercentPhaseFieldOfView": 100.0,
      "PercentSampling": 100.0,
      "PerformedProcedureStepStartTime": "145924.815000",
      "PhotometricInterpretation": "MONOCHROME2",
      "PixelBandwidth": 2290.0,
      "PixelRepresentation": 0,
      "PixelSpacing": [2.0, 2.0],
      "ProtocolName": "func_task-friends-s06e15d",
      "RepetitionTime": 1490.0,
      "Rows": 832,
      "SAR": 0.05329474863437,
      "SamplesPerPixel": 1,
      "ScanOptions": "FS",
      "ScanningSequence": "EP",
      "SequenceName": "epfid2d1_104",
      "SequenceVariant": [
        "SK",
        "SS"
],
      "SeriesDescription": "func_task-friends-s06e15d",
      "SeriesNumber": 16,
      "SeriesTime": "155539.015000",
      "SliceLocation": -35.49600172271,
      "SliceThickness": 2.0,
      "SmallestImagePixelValue": 0,
      "SoftwareVersions": "syngo MR E11",
      "SpacingBetweenSlices": 2.0000000145724,
      "SpecificCharacterSet": "ISO_IR 100",
      "StudyID": "1",
      "StudyTime": "145924.736000",
      "TransmitCoilName": "Body",
      "VariableFlipAngleFlag": "N",
      "WindowCenterWidthExplanation": "Algo1",
      "dBdt": 0.0},
    "slices": {}
  },
  "time": {
    "samples": {
      "AcquisitionNumber": [1, 2, 3, 4, 5, 6, 7, 8, 9, 10, 11, 12, 13, 14, 15, 16, 17, 18, 19, 20, 21, 22, 23, 24, 25, 26, 27, 28, 29, 30, 31, 32, 33, 34, 35, 36, 37, 38, 39, 40, 41, 42, 43, 44, 45, 46, 47, 48, 49, 50, 51, 52, 53, 54, 55, 56, 57, 58, 59, 60, 61, 62, 63, 64, 65, 66, 67, 68, 69, 70, 71, 72, 73, 74, 75, 76, 77, 78, 79, 80, 81, 82, 83, 84, 85, 86, 87, 88, 89, 90, 91, 92, 93, 94, 95, 96, 97, 98, 99, 100, 101, 102, 103, 104, 105, 106, 107, 108, 109, 110, 111, 112, 113, 114, 115, 116, 117, 118, 119, 120, 121, 122, 123, 124, 125, 126, 127, 128, 129, 130, 131, 132, 133, 134, 135, 136, 137, 138, 139, 140, 141, 142, 143, 144, 145, 146, 147, 148, 149, 150, 151, 152, 153, 154, 155, 156, 157, 158, 159, 160, 161, 162, 163, 164, 165, 166, 167, 168, 169, 170, 171, 172, 173, 174, 175, 176, 177, 178, 179, 180, 181, 182, 183, 184, 185, 186, 187, 188, 189, 190, 191, 192, 193, 194, 195, 196, 197, 198, 199, 200, 201, 202, 203, 204, 205, 206, 207, 208, 209, 210, 211, 212, 213, 214, 215, 216, 217, 218, 219, 220, 221, 222, 223, 224, 225, 226, 227, 228, 229, 230, 231, 232, 233, 234, 235, 236, 237, 238, 239, 240, 241, 242, 243, 244, 245, 246, 247, 248, 249, 250, 251, 252, 253, 254, 255, 256, 257, 258, 259, 260, 261, 262, 263, 264, 265, 266, 267, 268, 269, 270, 271, 272, 273, 274, 275, 276, 277, 278, 279, 280, 281, 282, 283, 284, 285, 286, 287, 288, 289, 290, 291, 292, 293, 294, 295, 296, 297, 298, 299, 300, 301, 302, 303, 304, 305, 306, 307, 308, 309, 310, 311, 312, 313, 314, 315, 316, 317, 318, 319, 320, 321, 322, 323, 324, 325, 326, 327, 328, 329, 330, 331, 332, 333, 334, 335, 336, 337, 338, 339, 340, 341, 342, 343, 344, 345, 346, 347, 348, 349, 350, 351, 352, 353, 354, 355, 356, 357, 358, 359, 360, 361, 362, 363, 364, 365, 366, 367, 368, 369, 370, 371, 372, 373, 374, 375, 376, 377, 378, 379, 380, 381, 382, 383, 384, 385, 386, 387, 388, 389, 390, 391, 392, 393, 394, 395, 396, 397, 398, 399, 400, 401, 402, 403, 404, 405, 406, 407, 408, 409, 410, 411, 412, 413, 414, 415, 416, 417, 418, 419, 420, 421, 422, 423, 424, 425, 426, 427, 428, 429, 430, 431, 432, 433, 434, 435, 436, 437, 438, 439, 440, 441, 442, 443, 444, 445, 446, 447, 448, 449, 450, 451, 452, 453, 454, 455, 456, 457, 458, 459, 460, 461, 462, 463, 464, 465, 466, 467, 468, 469, 470, 471, 472, 473, 474, 475, 476, 477, 478, 479, 480, 481, 482, 483, 484, 485, 486, 487, 488, 489, 490],
      "AcquisitionTime": ["155416.000000", "155417.490000", "155418.980000", "155420.470000", "155421.960000", "155423.450000", "155424.940000", "155426.430000", "155427.920000", "155429.410000", "155430.900000", "155432.390000", "155433.880000", "155435.370000", "155436.860000", "155438.350000", "155439.840000", "155441.330000", "155442.820000", "155444.310000", "155445.800000", "155447.290000", "155448.780000", "155450.270000", "155451.760000", "155453.250000", "155454.740000", "155456.230000", "155457.720000", "155459.210000", "155500.700000", "155502.190000", "155503.680000", "155505.170000", "155506.660000", "155508.150000", "155509.640000", "155511.130000", "155512.620000", "155514.110000", "155515.600000", "155517.090000", "155518.580000", "155520.070000", "155521.560000", "155523.050000", "155524.540000", "155526.030000", "155527.520000", "155529.010000", "155530.500000", "155531.990000", "155533.480000", "155534.970000", "155536.460000", "155537.950000", "155539.440000", "155540.930000", "155542.420000", "155543.910000", "155545.400000", "155546.890000", "155548.380000", "155549.870000", "155551.360000", "155552.850000", "155554.340000", "155555.830000", "155557.320000", "155558.810000", "155600.300000", "155601.790000", "155603.280000", "155604.770000", "155606.260000", "155607.750000", "155609.240000", "155610.730000", "155612.220000", "155613.710000", "155615.200000", "155616.690000", "155618.180000", "155619.670000", "155621.160000", "155622.650000", "155624.140000", "155625.630000", "155627.120000", "155628.610000", "155630.100000", "155631.590000", "155633.080000", "155634.570000", "155636.060000", "155637.550000", "155639.040000", "155640.530000", "155642.020000", "155643.510000", "155645.000000", "155646.490000", "155647.980000", "155649.470000", "155650.960000", "155652.450000", "155653.940000", "155655.430000", "155656.920000", "155658.410000", "155659.900000", "155701.390000", "155702.880000", "155704.370000", "155705.860000", "155707.350000", "155708.840000", "155710.330000", "155711.820000", "155713.310000", "155714.800000", "155716.290000", "155717.780000", "155719.270000", "155720.760000", "155722.250000", "155723.740000", "155725.230000", "155726.720000", "155728.210000", "155729.700000", "155731.190000", "155732.680000", "155734.170000", "155735.660000", "155737.150000", "155738.640000", "155740.130000", "155741.620000", "155743.110000", "155744.600000", "155746.090000", "155747.580000", "155749.070000", "155750.560000", "155752.050000", "155753.540000", "155755.030000", "155756.520000", "155758.010000", "155759.500000", "155800.990000", "155802.480000", "155803.970000", "155805.460000", "155806.950000", "155808.440000", "155809.930000", "155811.420000", "155812.910000", "155814.400000", "155815.890000", "155817.380000", "155818.870000", "155820.360000", "155821.850000", "155823.340000", "155824.830000", "155826.320000", "155827.810000", "155829.300000", "155830.790000", "155832.280000", "155833.770000", "155835.260000", "155836.750000", "155838.240000", "155839.730000", "155841.220000", "155842.710000", "155844.200000", "155845.690000", "155847.180000", "155848.670000", "155850.160000", "155851.650000", "155853.140000", "155854.630000", "155856.120000", "155857.610000", "155859.100000", "155900.590000", "155902.080000", "155903.570000", "155905.060000", "155906.550000", "155908.040000", "155909.530000", "155911.020000", "155912.510000", "155914.000000", "155915.490000", "155916.980000", "155918.470000", "155919.960000", "155921.450000", "155922.940000", "155924.430000", "155925.920000", "155927.410000", "155928.900000", "155930.390000", "155931.880000", "155933.370000", "155934.860000", "155936.350000", "155937.840000", "155939.330000", "155940.820000", "155942.310000", "155943.800000", "155945.290000", "155946.780000", "155948.270000", "155949.760000", "155951.250000", "155952.740000", "155954.230000", "155955.720000", "155957.210000", "155958.700000", "160000.190000", "160001.680000", "160003.170000", "160004.660000", "160006.150000", "160007.640000", "160009.130000", "160010.620000", "160012.110000", "160013.600000", "160015.090000", "160016.580000", "160018.070000", "160019.560000", "160021.050000", "160022.540000", "160024.030000", "160025.520000", "160027.010000", "160028.500000", "160029.990000", "160031.480000", "160032.970000", "160034.460000", "160035.950000", "160037.440000", "160038.930000", "160040.420000", "160041.910000", "160043.400000", "160044.890000", "160046.380000", "160047.870000", "160049.360000", "160050.850000", "160052.340000", "160053.830000", "160055.320000", "160056.810000", "160058.300000", "160059.790000", "160101.280000", "160102.770000", "160104.260000", "160105.750000", "160107.240000", "160108.730000", "160110.220000", "160111.710000", "160113.200000", "160114.690000", "160116.180000", "160117.670000", "160119.160000", "160120.650000", "160122.140000", "160123.630000", "160125.120000", "160126.610000", "160128.100000", "160129.590000", "160131.080000", "160132.570000", "160134.060000", "160135.550000", "160137.040000", "160138.530000", "160140.020000", "160141.510000", "160143.000000", "160144.490000", "160145.980000", "160147.470000", "160148.960000", "160150.450000", "160151.940000", "160153.430000", "160154.920000", "160156.410000", "160157.900000", "160159.390000", "160200.880000", "160202.370000", "160203.860000", "160205.350000", "160206.840000", "160208.330000", "160209.820000", "160211.310000", "160212.800000", "160214.290000", "160215.780000", "160217.270000", "160218.760000", "160220.250000", "160221.740000", "160223.230000", "160224.720000", "160226.210000", "160227.700000", "160229.190000", "160230.680000", "160232.170000", "160233.660000", "160235.150000", "160236.640000", "160238.130000", "160239.620000", "160241.110000", "160242.600000", "160244.090000", "160245.580000", "160247.070000", "160248.560000", "160250.050000", "160251.540000", "160253.030000", "160254.520000", "160256.010000", "160257.500000", "160258.990000", "160300.480000", "160301.970000", "160303.460000", "160304.950000", "160306.440000", "160307.930000", "160309.420000", "160310.910000", "160312.400000", "160313.890000", "160315.380000", "160316.870000", "160318.360000", "160319.850000", "160321.340000", "160322.830000", "160324.320000", "160325.810000", "160327.300000", "160328.790000", "160330.280000", "160331.770000", "160333.260000", "160334.750000", "160336.240000", "160337.730000", "160339.220000", "160340.710000", "160342.200000", "160343.690000", "160345.180000", "160346.670000", "160348.160000", "160349.650000", "160351.140000", "160352.630000", "160354.120000", "160355.610000", "160357.100000", "160358.590000", "160400.080000", "160401.570000", "160403.060000", "160404.550000", "160406.040000", "160407.530000", "160409.020000", "160410.510000", "160412.000000", "160413.490000", "160414.980000", "160416.470000", "160417.960000", "160419.450000", "160420.940000", "160422.430000", "160423.920000", "160425.410000", "160426.900000", "160428.390000", "160429.880000", "160431.370000", "160432.860000", "160434.350000", "160435.840000", "160437.330000", "160438.820000", "160440.310000", "160441.800000", "160443.290000", "160444.780000", "160446.270000", "160447.760000", "160449.250000", "160450.740000", "160452.230000", "160453.720000", "160455.210000", "160456.700000", "160458.190000", "160459.680000", "160501.170000", "160502.660000", "160504.150000", "160505.640000", "160507.130000", "160508.620000", "160510.110000", "160511.600000", "160513.090000", "160514.580000", "160516.070000", "160517.560000", "160519.050000", "160520.540000", "160522.030000", "160523.520000", "160525.010000", "160526.500000", "160527.990000", "160529.480000", "160530.970000", "160532.460000", "160533.950000", "160535.440000", "160536.930000", "160538.420000", "160539.910000", "160541.400000", "160542.890000", "160544.380000", "160545.870000", "160547.360000", "160548.850000", "160550.340000", "160551.830000", "160553.320000", "160554.810000", "160556.300000", "160557.790000", "160559.280000", "160600.770000", "160602.260000", "160603.750000", "160605.240000", "160606.730000", "160608.220000", "160609.710000", "160611.200000", "160612.690000", "160614.180000", "160615.670000", "160617.160000", "160618.650000", "160620.140000", "160621.630000", "160623.120000", "160624.610000"],
      "ContentTime": ["155539.018000", "155539.021000", "155539.024000", "155539.027000", "155539.030000", "155539.033000", "155539.036000", "155539.039000", "155539.042000", "155539.045000", "155539.048000", "155539.051000", "155539.054000", "155539.056000", "155539.065000", "155539.068000", "155539.071000", "155539.073000", "155539.076000", "155539.079000", "155539.082000", "155539.085000", "155539.088000", "155539.091000", "155539.094000", "155539.097000", "155539.099000", "155539.122000", "155558.987000", "155558.995000", "155558.998000", "155559.001000", "155559.004000", "155559.007000", "155559.010000", "155559.013000", "155559.016000", "155559.019000", "155559.022000", "155559.024000", "155559.027000", "155559.030000", "155559.033000", "155559.036000", "155559.039000", "155559.042000", "155559.044000", "155559.047000", "155618.987000", "155618.990000", "155618.993000", "155618.996000", "155619.000000", "155619.003000", "155619.005000", "155619.008000", "155619.011000", "155619.031000", "155619.034000", "155619.037000", "155619.040000", "155619.043000", "155619.045000", "155619.048000", "155619.051000", "155619.054000", "155619.057000", "155619.060000", "155638.987000", "155638.990000", "155638.993000", "155638.996000", "155639.000000", "155639.003000", "155639.006000", "155639.009000", "155639.012000", "155639.015000", "155639.019000", "155639.021000", "155639.024000", "155639.027000", "155639.030000", "155639.033000", "155639.036000", "155639.039000", "155639.042000", "155639.045000", "155658.987000", "155658.990000", "155659.002000", "155659.005000", "155659.008000", "155659.011000", "155659.014000", "155659.017000", "155659.020000", "155659.023000", "155659.026000", "155659.028000", "155659.031000", "155659.034000", "155659.037000", "155659.040000", "155659.043000", "155659.046000", "155659.049000", "155659.052000", "155738.986000", "155738.989000", "155738.992000", "155738.995000", "155738.998000", "155739.002000", "155739.005000", "155739.008000", "155739.011000", "155739.014000", "155739.016000", "155739.019000", "155739.026000", "155739.029000", "155739.032000", "155739.035000", "155739.038000", "155739.040000", "155739.043000", "155739.046000", "155739.049000", "155739.052000", "155739.055000", "155739.058000", "155739.061000", "155739.063000", "155739.066000", "155758.987000", "155758.990000", "155758.993000", "155758.996000", "155759.000000", "155759.003000", "155759.006000", "155759.009000", "155759.012000", "155759.014000", "155759.017000", "155759.020000", "155759.023000", "155759.026000", "155838.987000", "155838.990000", "155838.993000", "155838.996000", "155839.000000", "155839.003000", "155839.006000", "155839.009000", "155839.011000", "155839.014000", "155839.017000", "155839.020000", "155839.023000", "155839.026000", "155839.029000", "155839.032000", "155839.035000", "155839.037000", "155839.040000", "155839.043000", "155839.046000", "155839.049000", "155839.052000", "155839.055000", "155839.058000", "155839.061000", "155839.064000", "155918.986000", "155918.989000", "155918.992000", "155918.995000", "155918.998000", "155919.002000", "155919.005000", "155919.008000", "155919.011000", "155919.014000", "155919.016000", "155919.019000", "155919.022000", "155919.025000", "155919.028000", "155919.031000", "155919.034000", "155919.037000", "155919.040000", "155919.042000", "155919.045000", "155919.048000", "155919.051000", "155919.054000", "155919.058000", "155919.061000", "155958.986000", "155958.989000", "155958.992000", "155958.995000", "155958.998000", "155959.002000", "155959.005000", "155959.008000", "155959.011000", "155959.014000", "155959.016000", "155959.019000", "155959.022000", "155959.025000", "155959.028000", "155959.031000", "155959.034000", "155959.036000", "155959.039000", "155959.042000", "155959.045000", "155959.048000", "155959.051000", "155959.054000", "155959.056000", "155959.059000", "155959.062000", "160038.987000", "160038.990000", "160038.993000", "160038.996000", "160039.000000", "160039.003000", "160039.006000", "160039.009000", "160039.012000", "160039.015000", "160039.018000", "160039.020000", "160039.023000", "160039.026000", "160039.029000", "160039.032000", "160039.035000", "160039.038000", "160039.041000", "160039.044000", "160039.047000", "160039.050000", "160039.052000", "160039.055000", "160039.058000", "160039.061000", "160039.069000", "160118.987000", "160118.990000", "160118.993000", "160118.996000", "160119.000000", "160119.003000", "160119.006000", "160119.009000", "160119.012000", "160119.015000", "160119.018000", "160119.020000", "160119.023000", "160119.026000", "160119.029000", "160119.032000", "160119.035000", "160119.038000", "160119.057000", "160119.060000", "160119.063000", "160119.065000", "160119.068000", "160119.071000", "160119.074000", "160119.077000", "160119.080000", "160158.986000", "160158.989000", "160158.992000", "160158.995000", "160158.998000", "160159.002000", "160159.005000", "160159.008000", "160159.011000", "160159.014000", "160159.017000", "160159.019000", "160159.022000", "160159.025000", "160159.028000", "160159.031000", "160159.034000", "160159.037000", "160159.040000", "160159.043000", "160159.046000", "160159.049000", "160159.052000", "160159.054000", "160159.057000", "160159.060000", "160159.063000", "160238.987000", "160238.990000", "160238.993000", "160238.996000", "160239.000000", "160239.003000", "160239.006000", "160239.009000", "160239.012000", "160239.015000", "160239.017000", "160239.020000", "160239.023000", "160239.026000", "160239.034000", "160239.037000", "160239.040000", "160239.043000", "160239.046000", "160239.049000", "160239.052000", "160239.055000", "160239.058000", "160239.060000", "160239.063000", "160239.066000", "160239.069000", "160318.987000", "160318.990000", "160318.993000", "160318.996000", "160319.000000", "160319.003000", "160319.006000", "160319.009000", "160319.012000", "160319.015000", "160319.018000", "160319.021000", "160319.024000", "160319.026000", "160319.029000", "160319.032000", "160319.035000", "160319.038000", "160319.041000", "160319.044000", "160319.047000", "160319.050000", "160319.053000", "160319.056000", "160319.059000", "160319.062000", "160358.986000", "160358.989000", "160358.992000", "160358.995000", "160358.998000", "160359.002000", "160359.005000", "160359.008000", "160359.011000", "160359.014000", "160359.017000", "160359.019000", "160359.022000", "160359.025000", "160359.028000", "160359.031000", "160359.034000", "160359.037000", "160359.040000", "160359.043000", "160359.046000", "160359.049000", "160359.052000", "160359.055000", "160359.058000", "160359.061000", "160359.063000", "160438.987000", "160438.990000", "160438.993000", "160438.996000", "160438.999000", "160439.002000", "160439.005000", "160439.008000", "160439.011000", "160439.014000", "160439.017000", "160439.020000", "160439.022000", "160439.025000", "160439.028000", "160439.031000", "160439.034000", "160439.037000", "160439.040000", "160439.043000", "160439.046000", "160439.049000", "160439.052000", "160439.054000", "160439.057000", "160439.060000", "160439.063000", "160518.987000", "160518.990000", "160518.993000", "160518.996000", "160519.000000", "160519.003000", "160519.006000", "160519.009000", "160519.012000", "160519.015000", "160519.018000", "160519.020000", "160519.023000", "160519.026000", "160519.029000", "160519.032000", "160519.035000", "160519.038000", "160519.041000", "160519.044000", "160519.047000", "160519.050000", "160519.053000", "160519.056000", "160519.058000", "160519.061000", "160519.064000", "160558.998000", "160559.002000", "160559.005000", "160559.008000", "160559.011000", "160559.014000", "160559.017000", "160559.020000", "160559.023000", "160559.026000", "160559.029000", "160559.032000", "160559.034000", "160559.037000", "160559.040000", "160559.043000", "160559.046000", "160559.049000", "160559.052000", "160559.055000", "160559.058000", "160559.061000", "160559.064000", "160559.067000", "160559.070000", "160559.074000", "160559.077000", "160626.871000", "160626.874000", "160626.877000", "160626.880000", "160626.883000", "160626.886000", "160626.889000", "160626.892000", "160626.895000", "160626.898000", "160626.901000", "160626.904000", "160626.907000", "160626.910000", "160626.913000", "160626.916000", "160626.919000", "160626.922000", "160626.925000"],
