{
  "AcquisitionMatrixPE": 104,
  "AcquisitionNumber": 1,
  "AcquisitionTime": "16:07:54.190000",
  "BandwidthPerPixelPhaseEncode": 17.17,
  "BaseResolution": 104,
  "BodyPartExamined": "BRAIN",
  "CoilCombinationMethod": "Sum of Squares",
  "ConsistencyInfo": "N4_VE11C_LATEST_20160120",
  "ConversionSoftware": "dcm2niix",
  "ConversionSoftwareVersion": "v1.0.20211006",
  "DerivedVendorReportedEchoSpacing": 0.000560011,
  "DeviceSerialNumber": "167006",
  "DwellTime": 2.1e-06,
  "EchoTime": 0.037,
  "EchoTrainLength": 104,
  "EffectiveEchoSpacing": 0.000560011,
  "FlipAngle": 52,
  "HeudiconvVersion": "0.11.3.post9+gc939bf8",
  "ImageComments": "Unaliased MB4/PE3/LB",
  "ImageOrientationPatientDICOM": [0.999228, -0.0369689, -0.0132983, 0.0303547, 0.941344, -0.336079],
  "ImageOrientationText": "Tra>Cor(-19.6)>Sag(-1.4)",
  "ImageType": [
    "ORIGINAL",
    "PRIMARY",
    "M",
    "MB",
    "ND",
    "MOSAIC"
],
  "ImagingFrequency": 123.259,
  "InPlanePhaseEncodingDirectionDICOM": "COL",
  "InstitutionAddress": "Chemin Queen-Mary 4565,Montreal,District,CA,H3W 1W5",
  "InstitutionName": "IUGM",
  "InstitutionalDepartmentName": "Department",
  "MRAcquisitionType": "2D",
  "MagneticFieldStrength": 3,
  "Manufacturer": "Siemens",
  "ManufacturersModelName": "Prisma_fit",
  "MatrixCoilMode": "SENSE",
  "Modality": "MR",
  "MultibandAccelerationFactor": 4,
  "PartialFourier": 1,
  "PatientPosition": "HFS",
  "PercentPhaseFOV": 100,
  "PercentSampling": 100,
  "PhaseEncodingDirection": "j",
  "PhaseEncodingSteps": 104,
  "PhaseResolution": 1,
  "PixelBandwidth": 2290,
  "ProcedureStepDescription": "video^friends",
  "ProtocolName": "func_task-friends-s06e17a",
  "PulseSequenceDetails": "%CustomerSeq%\\cmrr_mbep2d_bold",
  "ReceiveCoilActiveElements": "HC1-7;NC1,2",
  "ReceiveCoilName": "HeadNeck_64",
  "ReconMatrixPE": 104,
  "RepetitionTime": 1.49,
  "SAR": 0.0532637,
  "ScanOptions": "FS",
  "ScanningSequence": "EP",
  "SequenceName": "epfid2d1_104",
  "SequenceVariant": "SK\\SS",
  "SeriesDescription": "func_task-friends-s06e17a",
  "SeriesNumber": 18,
  "ShimSetting": [618, -7257, -8816, 573, 4, -222, -80, -23],
  "SliceThickness": 2,
  "SliceTiming": [0, 0.785, 0.0975, 0.8825, 0.195, 0.98, 0.295, 1.0775, 0.3925, 1.175, 0.49, 1.275, 0.5875, 1.3725, 0.685, 0, 0.785, 0.0975, 0.8825, 0.195, 0.98, 0.295, 1.0775, 0.3925, 1.175, 0.49, 1.275, 0.5875, 1.3725, 0.685, 0, 0.785, 0.0975, 0.8825, 0.195, 0.98, 0.295, 1.0775, 0.3925, 1.175, 0.49, 1.275, 0.5875, 1.3725, 0.685, 0, 0.785, 0.0975, 0.8825, 0.195, 0.98, 0.295, 1.0775, 0.3925, 1.175, 0.49, 1.275, 0.5875, 1.3725, 0.685],
  "SoftwareVersions": "syngo MR E11",
  "SpacingBetweenSlices": 2,
  "StationName": "MRC35049",
  "TaskName": "s06e17a",
  "TotalReadoutTime": 0.0576811,
  "TxRefAmp": 259.16,
  "WipMemBlock": "7af28be0-6f67-44e1-9f65-f2af7ffee1ec||Sequence: R016 ve11c/master r/e634e98; Dec 19 2017 11:00:25 by eja",
  "dcmmeta_affine": [
    [-1.9984558820724487, 0.06070931628346443, -0.04988553002476692, 100.5002212524414],
    [0.07393787056207657, 1.8826887607574463, -0.6708323955535889, -78.10164642333984],
    [-0.02659657411277294, 0.6721587181091309, 1.8834795951843262, -62.84730529785156],
    [0.0, 0.0, 0.0, 1.0]
],
  "dcmmeta_reorient_transform": [
    [0.0, -1.0, 0.0, 103.0],
    [1.0, 0.0, 0.0, 0.0],
    [0.0, 0.0, 1.0, 0.0],
    [0.0, 0.0, 0.0, 1.0]
],
  "dcmmeta_shape": [104, 104, 60, 428],
  "dcmmeta_slice_dim": 2,
  "dcmmeta_version": 0.6,
  "global": {
    "const": {
      "AcquisitionMatrix": [104, 0, 0, 104],
      "AngioFlag": "N",
      "BitsAllocated": 16,
      "BitsStored": 16,
      "BodyPartExamined": "BRAIN",
      "Columns": 832,
      "EchoNumbers": 1,
      "EchoTime": 37.0,
      "EchoTrainLength": 104,
      "FlipAngle": 52.0,
      "HighBit": 15,
      "ImageOrientationPatient": [0.99922792858214, -0.0369689368594, -0.0132982874439, 0.03035465752122, 0.94134439180343, -0.3360793519201],
      "ImagePositionPatient": [-856.28940421321, -774.20063051232, 260.73196439871],
      "ImageType": [
        "ORIGINAL",
        "PRIMARY",
        "M",
        "MB",
        "ND",
        "MOSAIC"
],
      "ImagedNucleus": "1H",
      "ImagingFrequency": 123.258799,
      "InPlanePhaseEncodingDirection": "COL",
      "MRAcquisitionType": "2D",
      "MagneticFieldStrength": 3.0,
      "Manufacturer": "SIEMENS",
      "ManufacturerModelName": "Prisma_fit",
      "Modality": "MR",
      "NumberOfAverages": 1.0,
      "NumberOfPhaseEncodingSteps": 104,
      "PercentPhaseFieldOfView": 100.0,
      "PercentSampling": 100.0,
      "PerformedProcedureStepStartTime": "145924.815000",
      "PhotometricInterpretation": "MONOCHROME2",
      "PixelBandwidth": 2290.0,
      "PixelRepresentation": 0,
      "PixelSpacing": [2.0, 2.0],
      "ProtocolName": "func_task-friends-s06e17a",
      "RepetitionTime": 1490.0,
      "Rows": 832,
      "SAR": 0.05326365282389,
      "SamplesPerPixel": 1,
      "ScanOptions": "FS",
      "ScanningSequence": "EP",
      "SequenceName": "epfid2d1_104",
      "SequenceVariant": [
        "SK",
        "SS"
],
      "SeriesDescription": "func_task-friends-s06e17a",
      "SeriesNumber": 18,
      "SeriesTime": "160902.079000",
      "SliceLocation": -35.49600172271,
      "SliceThickness": 2.0,
      "SmallestImagePixelValue": 0,
      "SoftwareVersions": "syngo MR E11",
      "SpacingBetweenSlices": 2.0000000145724,
      "SpecificCharacterSet": "ISO_IR 100",
      "StudyID": "1",
      "StudyTime": "145924.736000",
      "TransmitCoilName": "Body",
      "VariableFlipAngleFlag": "N",
      "WindowCenterWidthExplanation": "Algo1",
      "dBdt": 0.0},
    "slices": {}
  },
  "time": {
    "samples": {
      "AcquisitionNumber": [1, 2, 3, 4, 5, 6, 7, 8, 9, 10, 11, 12, 13, 14, 15, 16, 17, 18, 19, 20, 21, 22, 23, 24, 25, 26, 27, 28, 29, 30, 31, 32, 33, 34, 35, 36, 37, 38, 39, 40, 41, 42, 43, 44, 45, 46, 47, 48, 49, 50, 51, 52, 53, 54, 55, 56, 57, 58, 59, 60, 61, 62, 63, 64, 65, 66, 67, 68, 69, 70, 71, 72, 73, 74, 75, 76, 77, 78, 79, 80, 81, 82, 83, 84, 85, 86, 87, 88, 89, 90, 91, 92, 93, 94, 95, 96, 97, 98, 99, 100, 101, 102, 103, 104, 105, 106, 107, 108, 109, 110, 111, 112, 113, 114, 115, 116, 117, 118, 119, 120, 121, 122, 123, 124, 125, 126, 127, 128, 129, 130, 131, 132, 133, 134, 135, 136, 137, 138, 139, 140, 141, 142, 143, 144, 145, 146, 147, 148, 149, 150, 151, 152, 153, 154, 155, 156, 157, 158, 159, 160, 161, 162, 163, 164, 165, 166, 167, 168, 169, 170, 171, 172, 173, 174, 175, 176, 177, 178, 179, 180, 181, 182, 183, 184, 185, 186, 187, 188, 189, 190, 191, 192, 193, 194, 195, 196, 197, 198, 199, 200, 201, 202, 203, 204, 205, 206, 207, 208, 209, 210, 211, 212, 213, 214, 215, 216, 217, 218, 219, 220, 221, 222, 223, 224, 225, 226, 227, 228, 229, 230, 231, 232, 233, 234, 235, 236, 237, 238, 239, 240, 241, 242, 243, 244, 245, 246, 247, 248, 249, 250, 251, 252, 253, 254, 255, 256, 257, 258, 259, 260, 261, 262, 263, 264, 265, 266, 267, 268, 269, 270, 271, 272, 273, 274, 275, 276, 277, 278, 279, 280, 281, 282, 283, 284, 285, 286, 287, 288, 289, 290, 291, 292, 293, 294, 295, 296, 297, 298, 299, 300, 301, 302, 303, 304, 305, 306, 307, 308, 309, 310, 311, 312, 313, 314, 315, 316, 317, 318, 319, 320, 321, 322, 323, 324, 325, 326, 327, 328, 329, 330, 331, 332, 333, 334, 335, 336, 337, 338, 339, 340, 341, 342, 343, 344, 345, 346, 347, 348, 349, 350, 351, 352, 353, 354, 355, 356, 357, 358, 359, 360, 361, 362, 363, 364, 365, 366, 367, 368, 369, 370, 371, 372, 373, 374, 375, 376, 377, 378, 379, 380, 381, 382, 383, 384, 385, 386, 387, 388, 389, 390, 391, 392, 393, 394, 395, 396, 397, 398, 399, 400, 401, 402, 403, 404, 405, 406, 407, 408, 409, 410, 411, 412, 413, 414, 415, 416, 417, 418, 419, 420, 421, 422, 423, 424, 425, 426, 427, 428],
      "AcquisitionTime": ["160754.190000", "160755.680000", "160757.170000", "160758.660000", "160800.150000", "160801.640000", "160803.130000", "160804.620000", "160806.110000", "160807.600000", "160809.090000", "160810.580000", "160812.070000", "160813.560000", "160815.050000", "160816.540000", "160818.030000", "160819.520000", "160821.010000", "160822.500000", "160823.990000", "160825.480000", "160826.970000", "160828.460000", "160829.950000", "160831.440000", "160832.930000", "160834.420000", "160835.910000", "160837.400000", "160838.890000", "160840.380000", "160841.870000", "160843.360000", "160844.850000", "160846.340000", "160847.830000", "160849.320000", "160850.810000", "160852.300000", "160853.790000", "160855.280000", "160856.770000", "160858.260000", "160859.750000", "160901.240000", "160902.730000", "160904.220000", "160905.710000", "160907.200000", "160908.690000", "160910.180000", "160911.670000", "160913.160000", "160914.650000", "160916.140000", "160917.630000", "160919.120000", "160920.610000", "160922.100000", "160923.590000", "160925.080000", "160926.570000", "160928.060000", "160929.550000", "160931.040000", "160932.530000", "160934.020000", "160935.510000", "160937.000000", "160938.490000", "160939.980000", "160941.470000", "160942.960000", "160944.450000", "160945.940000", "160947.430000", "160948.920000", "160950.410000", "160951.900000", "160953.390000", "160954.880000", "160956.370000", "160957.860000", "160959.350000", "161000.840000", "161002.330000", "161003.820000", "161005.310000", "161006.800000", "161008.290000", "161009.780000", "161011.270000", "161012.760000", "161014.250000", "161015.740000", "161017.230000", "161018.720000", "161020.210000", "161021.700000", "161023.190000", "161024.680000", "161026.170000", "161027.660000", "161029.150000", "161030.640000", "161032.130000", "161033.620000", "161035.110000", "161036.600000", "161038.090000", "161039.580000", "161041.070000", "161042.560000", "161044.050000", "161045.540000", "161047.030000", "161048.520000", "161050.010000", "161051.500000", "161052.990000", "161054.480000", "161055.970000", "161057.460000", "161058.950000", "161100.440000", "161101.930000", "161103.420000", "161104.910000", "161106.400000", "161107.890000", "161109.380000", "161110.870000", "161112.360000", "161113.850000", "161115.340000", "161116.830000", "161118.320000", "161119.810000", "161121.300000", "161122.790000", "161124.280000", "161125.770000", "161127.260000", "161128.750000", "161130.240000", "161131.730000", "161133.220000", "161134.710000", "161136.200000", "161137.690000", "161139.180000", "161140.670000", "161142.160000", "161143.650000", "161145.140000", "161146.630000", "161148.120000", "161149.610000", "161151.100000", "161152.590000", "161154.080000", "161155.570000", "161157.060000", "161158.550000", "161200.040000", "161201.530000", "161203.020000", "161204.510000", "161206.000000", "161207.490000", "161208.980000", "161210.470000", "161211.960000", "161213.450000", "161214.940000", "161216.430000", "161217.920000", "161219.410000", "161220.900000", "161222.390000", "161223.880000", "161225.370000", "161226.860000", "161228.350000", "161229.840000", "161231.330000", "161232.820000", "161234.310000", "161235.800000", "161237.290000", "161238.780000", "161240.270000", "161241.760000", "161243.250000", "161244.740000", "161246.230000", "161247.720000", "161249.210000", "161250.700000", "161252.190000", "161253.680000", "161255.170000", "161256.660000", "161258.150000", "161259.640000", "161301.130000", "161302.620000", "161304.110000", "161305.600000", "161307.090000", "161308.580000", "161310.070000", "161311.560000", "161313.050000", "161314.540000", "161316.030000", "161317.520000", "161319.010000", "161320.500000", "161321.990000", "161323.480000", "161324.970000", "161326.460000", "161327.950000", "161329.440000", "161330.930000", "161332.420000", "161333.910000", "161335.400000", "161336.890000", "161338.380000", "161339.870000", "161341.360000", "161342.850000", "161344.340000", "161345.830000", "161347.320000", "161348.810000", "161350.300000", "161351.790000", "161353.280000", "161354.770000", "161356.260000", "161357.750000", "161359.240000", "161400.730000", "161402.220000", "161403.710000", "161405.200000", "161406.690000", "161408.180000", "161409.670000", "161411.160000", "161412.650000", "161414.140000", "161415.630000", "161417.120000", "161418.610000", "161420.100000", "161421.590000", "161423.080000", "161424.570000", "161426.060000", "161427.550000", "161429.040000", "161430.530000", "161432.020000", "161433.510000", "161435.000000", "161436.490000", "161437.980000", "161439.470000", "161440.960000", "161442.450000", "161443.940000", "161445.430000", "161446.920000", "161448.410000", "161449.900000", "161451.390000", "161452.880000", "161454.370000", "161455.860000", "161457.350000", "161458.840000", "161500.330000", "161501.820000", "161503.310000", "161504.800000", "161506.290000", "161507.780000", "161509.270000", "161510.760000", "161512.250000", "161513.740000", "161515.230000", "161516.720000", "161518.210000", "161519.700000", "161521.190000", "161522.680000", "161524.170000", "161525.660000", "161527.150000", "161528.640000", "161530.130000", "161531.620000", "161533.110000", "161534.600000", "161536.090000", "161537.580000", "161539.070000", "161540.560000", "161542.050000", "161543.540000", "161545.030000", "161546.520000", "161548.010000", "161549.500000", "161550.990000", "161552.480000", "161553.970000", "161555.460000", "161556.950000", "161558.440000", "161559.930000", "161601.420000", "161602.910000", "161604.400000", "161605.890000", "161607.380000", "161608.870000", "161610.360000", "161611.850000", "161613.340000", "161614.830000", "161616.320000", "161617.810000", "161619.300000", "161620.790000", "161622.280000", "161623.770000", "161625.260000", "161626.750000", "161628.240000", "161629.730000", "161631.220000", "161632.710000", "161634.200000", "161635.690000", "161637.180000", "161638.670000", "161640.160000", "161641.650000", "161643.140000", "161644.630000", "161646.120000", "161647.610000", "161649.100000", "161650.590000", "161652.080000", "161653.570000", "161655.060000", "161656.550000", "161658.040000", "161659.530000", "161701.020000", "161702.510000", "161704.000000", "161705.490000", "161706.980000", "161708.470000", "161709.960000", "161711.450000", "161712.940000", "161714.430000", "161715.920000", "161717.410000", "161718.900000", "161720.390000", "161721.880000", "161723.370000", "161724.860000", "161726.350000", "161727.840000", "161729.330000", "161730.820000", "161732.310000", "161733.800000", "161735.290000", "161736.780000", "161738.270000", "161739.760000", "161741.250000", "161742.740000", "161744.230000", "161745.720000", "161747.210000", "161748.700000", "161750.190000", "161751.680000", "161753.170000", "161754.660000", "161756.150000", "161757.640000", "161759.130000", "161800.620000", "161802.110000", "161803.600000", "161805.090000", "161806.580000", "161808.070000", "161809.560000", "161811.050000", "161812.540000", "161814.030000", "161815.520000", "161817.010000", "161818.500000", "161819.990000", "161821.480000", "161822.970000", "161824.460000", "161825.950000", "161827.440000", "161828.930000", "161830.420000"],
      "ContentTime": ["160902.082000", "160902.085000", "160902.089000", "160902.101000", "160902.104000", "160902.107000", "160902.110000", "160902.112000", "160902.115000", "160902.118000", "160902.121000", "160902.124000", "160902.127000", "160902.130000", "160902.140000", "160922.043000", "160922.046000", "160922.049000", "160922.052000", "160922.055000", "160922.058000", "160922.061000", "160922.063000", "160922.066000", "160922.069000", "160922.080000", "160922.083000", "160922.086000", "160922.089000", "160922.092000", "160922.095000", "160922.098000", "160922.101000", "160922.104000", "160922.107000", "160942.043000", "160942.046000", "160942.049000", "160942.052000", "160942.055000", "160942.058000", "160942.060000", "160942.063000", "160942.066000", "160942.069000", "160942.072000", "160942.075000", "160942.079000", "160942.082000", "160942.084000", "160942.087000", "160942.090000", "160942.093000", "160942.096000", "160942.105000", "160942.108000", "161002.042000", "161002.045000", "161002.048000", "161002.051000", "161002.054000", "161002.056000", "161002.059000", "161002.062000", "161002.065000", "161002.068000", "161002.071000", "161002.074000", "161002.077000", "161002.080000", "161002.082000", "161002.085000", "161002.088000", "161002.091000", "161002.094000", "161002.097000", "161022.042000", "161022.045000", "161022.048000", "161022.051000", "161022.054000", "161022.057000", "161022.059000", "161022.062000", "161022.065000", "161022.068000", "161022.071000", "161022.074000", "161022.077000", "161022.080000", "161022.083000", "161022.086000", "161022.088000", "161022.091000", "161022.094000", "161022.097000", "161102.042000", "161102.045000", "161102.048000", "161102.051000", "161102.054000", "161102.057000", "161102.059000", "161102.062000", "161102.065000", "161102.068000", "161102.071000", "161102.074000", "161102.077000", "161102.080000", "161102.083000", "161102.085000", "161102.088000", "161102.091000", "161102.094000", "161102.097000", "161102.101000", "161102.104000", "161102.106000", "161102.109000", "161102.112000", "161102.115000", "161102.118000", "161102.121000", "161102.124000", "161142.043000", "161142.046000", "161142.049000", "161142.052000", "161142.071000", "161142.074000", "161142.077000", "161142.080000", "161142.083000", "161142.086000", "161142.088000", "161142.091000", "161142.094000", "161142.097000", "161142.100000", "161142.103000", "161142.106000", "161142.109000", "161142.111000", "161142.114000", "161142.117000", "161142.120000", "161142.123000", "161142.126000", "161142.129000", "161142.132000", "161142.135000", "161222.042000", "161222.045000", "161222.048000", "161222.051000", "161222.054000", "161222.057000", "161222.060000", "161222.062000", "161222.065000", "161222.068000", "161222.071000", "161222.074000", "161222.077000", "161222.080000", "161222.083000", "161222.096000", "161222.099000", "161222.102000", "161222.105000", "161222.108000", "161222.111000", "161222.113000", "161222.116000", "161222.119000", "161222.122000", "161222.125000", "161222.128000", "161302.042000", "161302.045000", "161302.048000", "161302.051000", "161302.054000", "161302.057000", "161302.060000", "161302.063000", "161302.066000", "161302.069000", "161302.072000", "161302.075000", "161302.077000", "161302.080000", "161302.083000", "161302.086000", "161302.089000", "161302.092000", "161302.095000", "161302.098000", "161302.101000", "161302.104000", "161302.107000", "161302.109000", "161302.112000", "161302.115000", "161302.118000", "161342.043000", "161342.046000", "161342.049000", "161342.052000", "161342.055000", "161342.058000", "161342.061000", "161342.064000", "161342.066000", "161342.069000", "161342.079000", "161342.083000", "161342.086000", "161342.090000", "161342.093000", "161342.096000", "161342.099000", "161342.102000", "161342.105000", "161342.108000", "161342.111000", "161342.114000", "161342.117000", "161342.120000", "161342.123000", "161342.126000", "161422.043000", "161422.046000", "161422.049000", "161422.052000", "161422.055000", "161422.058000", "161422.061000", "161422.063000", "161422.066000", "161422.069000", "161422.072000", "161422.075000", "161422.078000", "161422.081000", "161422.084000", "161422.087000", "161422.090000", "161422.093000", "161422.096000", "161422.098000", "161422.101000", "161422.104000", "161422.107000", "161422.110000", "161422.113000", "161422.116000", "161422.119000", "161502.042000", "161502.045000", "161502.048000", "161502.051000", "161502.054000", "161502.057000", "161502.060000", "161502.063000", "161502.066000", "161502.069000", "161502.072000", "161502.075000", "161502.078000", "161502.081000", "161502.084000", "161502.087000", "161502.089000", "161502.092000", "161502.095000", "161502.098000", "161502.101000", "161502.104000", "161502.107000", "161502.110000", "161502.113000", "161502.115000", "161502.118000", "161542.042000", "161542.045000", "161542.048000", "161542.051000", "161542.054000", "161542.057000", "161542.060000", "161542.063000", "161542.065000", "161542.068000", "161542.071000", "161542.074000", "161542.077000", "161542.080000", "161542.083000", "161542.086000", "161542.089000", "161542.092000", "161542.095000", "161542.098000", "161542.100000", "161542.103000", "161542.106000", "161542.109000", "161542.112000", "161542.115000", "161542.118000", "161622.043000", "161622.046000", "161622.049000", "161622.052000", "161622.055000", "161622.058000", "161622.061000", "161622.064000", "161622.066000", "161622.069000", "161622.072000", "161622.075000", "161622.078000", "161622.093000", "161622.096000", "161622.099000", "161622.103000", "161622.106000", "161622.109000", "161622.112000", "161622.115000", "161622.118000", "161622.120000", "161622.123000", "161622.126000", "161622.129000", "161622.132000", "161702.042000", "161702.045000", "161702.048000", "161702.051000", "161702.054000", "161702.057000", "161702.060000", "161702.063000", "161702.066000", "161702.069000", "161702.071000", "161702.074000", "161702.077000", "161702.080000", "161702.083000", "161702.086000", "161702.089000", "161702.092000", "161702.095000", "161702.098000", "161702.101000", "161702.104000", "161702.106000", "161702.109000", "161702.112000", "161702.115000", "161702.118000", "161742.042000", "161742.045000", "161742.048000", "161742.051000", "161742.054000", "161742.057000", "161742.060000", "161742.063000", "161742.066000", "161742.069000", "161742.072000", "161742.075000", "161742.078000", "161742.080000", "161742.083000", "161742.086000", "161742.089000", "161742.092000", "161742.095000", "161742.098000", "161742.101000", "161742.104000", "161742.107000", "161742.109000", "161742.112000", "161742.115000", "161742.118000", "161822.043000", "161822.046000", "161822.049000", "161822.052000", "161822.055000", "161822.058000", "161822.061000", "161822.064000", "161822.067000", "161822.070000", "161822.072000", "161822.075000", "161822.079000", "161822.082000", "161822.085000", "161822.088000", "161822.091000", "161822.094000", "161822.097000", "161822.100000", "161822.103000", "161822.106000", "161822.109000", "161822.112000", "161822.115000", "161822.117000", "161832.695000", "161832.698000", "161832.701000", "161832.704000", "161832.707000", "161832.710000", "161832.713000", "161832.716000"],
      "InstanceCreationTime": ["160902.082000", "160902.085000", "160902.089000", "160902.101000", "160902.104000", "160902.107000", "160902.110000", "160902.112000", "160902.115000", "160902.118000", "160902.121000", "160902.124000", "160902.127000", "160902.130000", "160902.140000", "160922.043000", "160922.046000", "160922.049000", "160922.052000", "160922.055000", "160922.058000", "160922.061000", "160922.063000", "160922.066000", "160922.069000", "160922.080000", "160922.083000", "160922.086000", "160922.089000", "160922.092000", "160922.095000", "160922.098000", "160922.101000", "160922.104000", "160922.107000", "160942.043000", "160942.046000", "160942.049000", "160942.052000", "160942.055000", "160942.058000", "160942.060000", "160942.063000", "160942.066000", "160942.069000", "160942.072000", "160942.075000", "160942.079000", "160942.082000", "160942.084000", "160942.087000", "160942.090000", "160942.093000", "160942.096000", "160942.105000", "160942.108000", "161002.042000", "161002.045000", "161002.048000", "161002.051000", "161002.054000", "161002.056000", "161002.059000", "161002.062000", "161002.065000", "161002.068000", "161002.071000", "161002.074000", "161002.077000", "161002.080000", "161002.082000", "161002.085000", "161002.088000", "161002.091000", "161002.094000", "161002.097000", "161022.042000", "161022.045000", "161022.048000", "161022.051000", "161022.054000", "161022.057000", "161022.059000", "161022.062000", "161022.065000", "161022.068000", "161022.071000", "161022.074000", "161022.077000", "161022.080000", "161022.083000", "161022.086000", "161022.088000", "161022.091000", "161022.094000", "161022.097000", "161102.042000", "161102.045000", "161102.048000", "161102.051000", "161102.054000", "161102.057000", "161102.059000", "161102.062000", "161102.065000", "161102.068000", "161102.071000", "161102.074000", "161102.077000", "161102.080000", "161102.083000", "161102.085000", "161102.088000", "161102.091000", "161102.094000", "161102.097000", "161102.101000", "161102.104000", "161102.106000", "161102.109000", "161102.112000", "161102.115000", "161102.118000", "161102.121000", "161102.124000", "161142.043000", "161142.046000", "161142.049000", "161142.052000", "161142.071000", "161142.074000", "161142.077000", "161142.080000", "161142.083000", "161142.086000", "161142.088000", "161142.091000", "161142.094000", "161142.097000", "161142.100000", "161142.103000", "161142.106000", "161142.109000", "161142.111000", "161142.114000", "161142.117000", "161142.120000", "161142.123000", "161142.126000", "161142.129000", "161142.132000", "161142.135000", "161222.042000", "161222.045000", "161222.048000", "161222.051000", "161222.054000", "161222.057000", "161222.060000", "161222.062000", "161222.065000", "161222.068000", "161222.071000", "161222.074000", "161222.077000", "161222.080000", "161222.083000", "161222.096000", "161222.099000", "161222.102000", "161222.105000", "161222.108000", "161222.111000", "161222.113000", "161222.116000", "161222.119000", "161222.122000", "161222.125000", "161222.128000", "161302.042000", "161302.045000", "161302.048000", "161302.051000", "161302.054000", "161302.057000", "161302.060000", "161302.063000", "161302.066000", "161302.069000", "161302.072000", "161302.075000", "161302.077000", "161302.080000", "161302.083000", "161302.086000", "161302.089000", "161302.092000", "161302.095000", "161302.098000", "161302.101000", "161302.104000", "161302.107000", "161302.109000", "161302.112000", "161302.115000", "161302.118000", "161342.043000", "161342.046000", "161342.049000", "161342.052000", "161342.055000", "161342.058000", "161342.061000", "161342.064000", "161342.066000", "161342.069000", "161342.079000", "161342.083000", "161342.086000", "161342.090000", "161342.093000", "161342.096000", "161342.099000", "161342.102000", "161342.105000", "161342.108000", "161342.111000", "161342.114000", "161342.117000", "161342.120000", "161342.123000", "161342.126000", "161422.043000", "161422.046000", "161422.049000", "161422.052000", "161422.055000", "161422.058000", "161422.061000", "161422.063000", "161422.066000", "161422.069000", "161422.072000", "161422.075000", "161422.078000", "161422.081000", "161422.084000", "161422.087000", "161422.090000", "161422.093000", "161422.096000", "161422.098000", "161422.101000", "161422.104000", "161422.107000", "161422.110000", "161422.113000", "161422.116000", "161422.119000", "161502.042000", "161502.045000", "161502.048000", "161502.051000", "161502.054000", "161502.057000", "161502.060000", "161502.063000", "161502.066000", "161502.069000", "161502.072000", "161502.075000", "161502.078000", "161502.081000", "161502.084000", "161502.087000", "161502.089000", "161502.092000", "161502.095000", "161502.098000", "161502.101000", "161502.104000", "161502.107000", "161502.110000", "161502.113000", "161502.115000", "161502.118000", "161542.042000", "161542.045000", "161542.048000", "161542.051000", "161542.054000", "161542.057000", "161542.060000", "161542.063000", "161542.065000", "161542.068000", "161542.071000", "161542.074000", "161542.077000", "161542.080000", "161542.083000", "161542.086000", "161542.089000", "161542.092000", "161542.095000", "161542.098000", "161542.100000", "161542.103000", "161542.106000", "161542.109000", "161542.112000", "161542.115000", "161542.118000", "161622.043000", "161622.046000", "161622.049000", "161622.052000", "161622.055000", "161622.058000", "161622.061000", "161622.064000", "161622.066000", "161622.069000", "161622.072000", "161622.075000", "161622.078000", "161622.093000", "161622.096000", "161622.099000", "161622.103000", "161622.106000", "161622.109000", "161622.112000", "161622.115000", "161622.118000", "161622.120000", "161622.123000", "161622.126000", "161622.129000", "161622.132000", "161702.042000", "161702.045000", "161702.048000", "161702.051000", "161702.054000", "161702.057000", "161702.060000", "161702.063000", "161702.066000", "161702.069000", "161702.071000", "161702.074000", "161702.077000", "161702.080000", "161702.083000", "161702.086000", "161702.089000", "161702.092000", "161702.095000", "161702.098000", "161702.101000", "161702.104000", "161702.106000", "161702.109000", "161702.112000", "161702.115000", "161702.118000", "161742.042000", "161742.045000", "161742.048000", "161742.051000", "161742.054000", "161742.057000", "161742.060000", "161742.063000", "161742.066000", "161742.069000", "161742.072000", "161742.075000", "161742.078000", "161742.080000", "161742.083000", "161742.086000", "161742.089000", "161742.092000", "161742.095000", "161742.098000", "161742.101000", "161742.104000", "161742.107000", "161742.109000", "161742.112000", "161742.115000", "161742.118000", "161822.043000", "161822.046000", "161822.049000", "161822.052000", "161822.055000", "161822.058000", "161822.061000", "161822.064000", "161822.067000", "161822.070000", "161822.072000", "161822.075000", "161822.079000", "161822.082000", "161822.085000", "161822.088000", "161822.091000", "161822.094000", "161822.097000", "161822.100000", "161822.103000", "161822.106000", "161822.109000", "161822.112000", "161822.115000", "161822.117000", "161832.695000", "161832.698000", "161832.701000", "161832.704000", "161832.707000", "161832.710000", "161832.713000", "161832.716000"],
