{
  "AcquisitionMatrixPE": 104,
  "AcquisitionNumber": 1,
  "AcquisitionTime": "15:15:35.995000",
  "BandwidthPerPixelPhaseEncode": 17.17,
  "BaseResolution": 104,
  "BodyPartExamined": "BRAIN",
  "CoilCombinationMethod": "Sum of Squares",
  "ConsistencyInfo": "N4_VE11C_LATEST_20160120",
  "ConversionSoftware": "dcm2niix",
  "ConversionSoftwareVersion": "v1.0.20211006",
  "DerivedVendorReportedEchoSpacing": 0.000560011,
  "DeviceSerialNumber": "167006",
  "DwellTime": 2.1e-06,
  "EchoTime": 0.037,
  "EchoTrainLength": 104,
  "EffectiveEchoSpacing": 0.000560011,
  "FlipAngle": 52,
  "HeudiconvVersion": "0.11.3.post9+gc939bf8",
  "ImageComments": "Unaliased MB4/PE3/LB",
  "ImageOrientationPatientDICOM": [0.999228, -0.0369689, -0.0132983, 0.0303547, 0.941344, -0.336079],
  "ImageOrientationText": "Tra>Cor(-19.6)>Sag(-1.4)",
  "ImageType": [
    "ORIGINAL",
    "PRIMARY",
    "M",
    "MB",
    "ND",
    "MOSAIC"
],
  "ImagingFrequency": 123.259,
  "InPlanePhaseEncodingDirectionDICOM": "COL",
  "InstitutionAddress": "Chemin Queen-Mary 4565,Montreal,District,CA,H3W 1W5",
  "InstitutionName": "IUGM",
  "InstitutionalDepartmentName": "Department",
  "MRAcquisitionType": "2D",
  "MagneticFieldStrength": 3,
  "Manufacturer": "Siemens",
  "ManufacturersModelName": "Prisma_fit",
  "MatrixCoilMode": "SENSE",
  "Modality": "MR",
  "MultibandAccelerationFactor": 4,
  "PartialFourier": 1,
  "PatientPosition": "HFS",
  "PercentPhaseFOV": 100,
  "PercentSampling": 100,
  "PhaseEncodingDirection": "j",
  "PhaseEncodingSteps": 104,
  "PhaseResolution": 1,
  "PixelBandwidth": 2290,
  "ProcedureStepDescription": "video^friends",
  "ProtocolName": "func_task-friends-s06e15a",
  "PulseSequenceDetails": "%CustomerSeq%\\cmrr_mbep2d_bold",
  "ReceiveCoilActiveElements": "HC1-7;NC1,2",
  "ReceiveCoilName": "HeadNeck_64",
  "ReconMatrixPE": 104,
  "RepetitionTime": 1.49,
  "SAR": 0.0532787,
  "ScanOptions": "FS",
  "ScanningSequence": "EP",
  "SequenceName": "epfid2d1_104",
  "SequenceVariant": "SK\\SS",
  "SeriesDescription": "func_task-friends-s06e15a",
  "SeriesNumber": 10,
  "ShimSetting": [618, -7257, -8816, 573, 4, -222, -80, -23],
  "SliceThickness": 2,
  "SliceTiming": [0, 0.7825, 0.0975, 0.88, 0.195, 0.9775, 0.2925, 1.0775, 0.39, 1.175, 0.4875, 1.2725, 0.5875, 1.37, 0.685, 0, 0.7825, 0.0975, 0.88, 0.195, 0.9775, 0.2925, 1.0775, 0.39, 1.175, 0.4875, 1.2725, 0.5875, 1.37, 0.685, 0, 0.7825, 0.0975, 0.88, 0.195, 0.9775, 0.2925, 1.0775, 0.39, 1.175, 0.4875, 1.2725, 0.5875, 1.37, 0.685, 0, 0.7825, 0.0975, 0.88, 0.195, 0.9775, 0.2925, 1.0775, 0.39, 1.175, 0.4875, 1.2725, 0.5875, 1.37, 0.685],
  "SoftwareVersions": "syngo MR E11",
  "SpacingBetweenSlices": 2,
  "StationName": "MRC35049",
  "TaskName": "s06e15a",
  "TotalReadoutTime": 0.0576811,
  "TxRefAmp": 259.16,
  "WipMemBlock": "86a9bab8-10f1-4439-a0f0-8f49584b854e||Sequence: R016 ve11c/master r/e634e98; Dec 19 2017 11:00:25 by eja",
  "dcmmeta_affine": [
    [-1.9984558820724487, 0.06070931628346443, -0.04988553002476692, 100.5002212524414],
    [0.07393787056207657, 1.8826887607574463, -0.6708323955535889, -78.10164642333984],
    [-0.02659657411277294, 0.6721587181091309, 1.8834795951843262, -62.84730529785156],
    [0.0, 0.0, 0.0, 1.0]
],
  "dcmmeta_reorient_transform": [
    [0.0, -1.0, 0.0, 103.0],
    [1.0, 0.0, 0.0, 0.0],
    [0.0, 0.0, 1.0, 0.0],
    [0.0, 0.0, 0.0, 1.0]
],
  "dcmmeta_shape": [104, 104, 60, 456],
  "dcmmeta_slice_dim": 2,
  "dcmmeta_version": 0.6,
  "global": {
    "const": {
      "AcquisitionMatrix": [104, 0, 0, 104],
      "AngioFlag": "N",
      "BitsAllocated": 16,
      "BitsStored": 16,
      "BodyPartExamined": "BRAIN",
      "Columns": 832,
      "EchoNumbers": 1,
      "EchoTime": 37.0,
      "EchoTrainLength": 104,
      "FlipAngle": 52.0,
      "HighBit": 15,
      "ImageOrientationPatient": [0.99922792858214, -0.0369689368594, -0.0132982874439, 0.03035465752122, 0.94134439180343, -0.3360793519201],
      "ImagePositionPatient": [-856.28940421321, -774.20063051232, 260.73196439871],
      "ImageType": [
        "ORIGINAL",
        "PRIMARY",
        "M",
        "MB",
        "ND",
        "MOSAIC"
],
      "ImagedNucleus": "1H",
      "ImagingFrequency": 123.258779,
      "InPlanePhaseEncodingDirection": "COL",
      "MRAcquisitionType": "2D",
      "MagneticFieldStrength": 3.0,
      "Manufacturer": "SIEMENS",
      "ManufacturerModelName": "Prisma_fit",
      "Modality": "MR",
      "NumberOfAverages": 1.0,
      "NumberOfPhaseEncodingSteps": 104,
      "PercentPhaseFieldOfView": 100.0,
      "PercentSampling": 100.0,
      "PerformedProcedureStepStartTime": "145924.815000",
      "PhotometricInterpretation": "MONOCHROME2",
      "PixelBandwidth": 2290.0,
      "PixelRepresentation": 0,
      "PixelSpacing": [2.0, 2.0],
      "ProtocolName": "func_task-friends-s06e15a",
      "RepetitionTime": 1490.0,
      "Rows": 832,
      "SAR": 0.05327872267113,
      "SamplesPerPixel": 1,
      "ScanOptions": "FS",
      "ScanningSequence": "EP",
      "SequenceName": "epfid2d1_104",
      "SequenceVariant": [
        "SK",
        "SS"
],
      "SeriesDescription": "func_task-friends-s06e15a",
      "SeriesNumber": 10,
      "SeriesTime": "151659.025000",
      "SliceLocation": -35.49600172271,
      "SliceThickness": 2.0,
      "SmallestImagePixelValue": 0,
      "SoftwareVersions": "syngo MR E11",
      "SpacingBetweenSlices": 2.0000000145724,
      "SpecificCharacterSet": "ISO_IR 100",
      "StudyID": "1",
      "StudyTime": "145924.736000",
      "TransmitCoilName": "Body",
      "VariableFlipAngleFlag": "N",
      "WindowCenterWidthExplanation": "Algo1",
      "dBdt": 0.0},
    "slices": {}
  },
  "time": {
    "samples": {
      "AcquisitionNumber": [1, 2, 3, 4, 5, 6, 7, 8, 9, 10, 11, 12, 13, 14, 15, 16, 17, 18, 19, 20, 21, 22, 23, 24, 25, 26, 27, 28, 29, 30, 31, 32, 33, 34, 35, 36, 37, 38, 39, 40, 41, 42, 43, 44, 45, 46, 47, 48, 49, 50, 51, 52, 53, 54, 55, 56, 57, 58, 59, 60, 61, 62, 63, 64, 65, 66, 67, 68, 69, 70, 71, 72, 73, 74, 75, 76, 77, 78, 79, 80, 81, 82, 83, 84, 85, 86, 87, 88, 89, 90, 91, 92, 93, 94, 95, 96, 97, 98, 99, 100, 101, 102, 103, 104, 105, 106, 107, 108, 109, 110, 111, 112, 113, 114, 115, 116, 117, 118, 119, 120, 121, 122, 123, 124, 125, 126, 127, 128, 129, 130, 131, 132, 133, 134, 135, 136, 137, 138, 139, 140, 141, 142, 143, 144, 145, 146, 147, 148, 149, 150, 151, 152, 153, 154, 155, 156, 157, 158, 159, 160, 161, 162, 163, 164, 165, 166, 167, 168, 169, 170, 171, 172, 173, 174, 175, 176, 177, 178, 179, 180, 181, 182, 183, 184, 185, 186, 187, 188, 189, 190, 191, 192, 193, 194, 195, 196, 197, 198, 199, 200, 201, 202, 203, 204, 205, 206, 207, 208, 209, 210, 211, 212, 213, 214, 215, 216, 217, 218, 219, 220, 221, 222, 223, 224, 225, 226, 227, 228, 229, 230, 231, 232, 233, 234, 235, 236, 237, 238, 239, 240, 241, 242, 243, 244, 245, 246, 247, 248, 249, 250, 251, 252, 253, 254, 255, 256, 257, 258, 259, 260, 261, 262, 263, 264, 265, 266, 267, 268, 269, 270, 271, 272, 273, 274, 275, 276, 277, 278, 279, 280, 281, 282, 283, 284, 285, 286, 287, 288, 289, 290, 291, 292, 293, 294, 295, 296, 297, 298, 299, 300, 301, 302, 303, 304, 305, 306, 307, 308, 309, 310, 311, 312, 313, 314, 315, 316, 317, 318, 319, 320, 321, 322, 323, 324, 325, 326, 327, 328, 329, 330, 331, 332, 333, 334, 335, 336, 337, 338, 339, 340, 341, 342, 343, 344, 345, 346, 347, 348, 349, 350, 351, 352, 353, 354, 355, 356, 357, 358, 359, 360, 361, 362, 363, 364, 365, 366, 367, 368, 369, 370, 371, 372, 373, 374, 375, 376, 377, 378, 379, 380, 381, 382, 383, 384, 385, 386, 387, 388, 389, 390, 391, 392, 393, 394, 395, 396, 397, 398, 399, 400, 401, 402, 403, 404, 405, 406, 407, 408, 409, 410, 411, 412, 413, 414, 415, 416, 417, 418, 419, 420, 421, 422, 423, 424, 425, 426, 427, 428, 429, 430, 431, 432, 433, 434, 435, 436, 437, 438, 439, 440, 441, 442, 443, 444, 445, 446, 447, 448, 449, 450, 451, 452, 453, 454, 455, 456],
      "AcquisitionTime": ["151535.995000", "151537.485000", "151538.975000", "151540.465000", "151541.955000", "151543.445000", "151544.935000", "151546.425000", "151547.915000", "151549.405000", "151550.895000", "151552.385000", "151553.875000", "151555.365000", "151556.855000", "151558.345000", "151559.835000", "151601.325000", "151602.815000", "151604.305000", "151605.795000", "151607.285000", "151608.775000", "151610.265000", "151611.755000", "151613.245000", "151614.735000", "151616.225000", "151617.715000", "151619.205000", "151620.695000", "151622.185000", "151623.675000", "151625.165000", "151626.655000", "151628.145000", "151629.635000", "151631.125000", "151632.615000", "151634.105000", "151635.595000", "151637.085000", "151638.575000", "151640.065000", "151641.555000", "151643.045000", "151644.535000", "151646.025000", "151647.515000", "151649.005000", "151650.495000", "151651.985000", "151653.475000", "151654.965000", "151656.455000", "151657.945000", "151659.435000", "151700.925000", "151702.415000", "151703.905000", "151705.395000", "151706.885000", "151708.375000", "151709.865000", "151711.355000", "151712.845000", "151714.335000", "151715.825000", "151717.315000", "151718.805000", "151720.295000", "151721.785000", "151723.275000", "151724.765000", "151726.255000", "151727.745000", "151729.235000", "151730.725000", "151732.215000", "151733.705000", "151735.195000", "151736.685000", "151738.175000", "151739.665000", "151741.155000", "151742.645000", "151744.135000", "151745.625000", "151747.115000", "151748.605000", "151750.095000", "151751.585000", "151753.075000", "151754.565000", "151756.055000", "151757.545000", "151759.035000", "151800.525000", "151802.015000", "151803.505000", "151804.995000", "151806.485000", "151807.975000", "151809.465000", "151810.955000", "151812.445000", "151813.935000", "151815.425000", "151816.915000", "151818.405000", "151819.895000", "151821.385000", "151822.875000", "151824.365000", "151825.855000", "151827.345000", "151828.835000", "151830.325000", "151831.815000", "151833.305000", "151834.795000", "151836.285000", "151837.775000", "151839.265000", "151840.755000", "151842.245000", "151843.735000", "151845.225000", "151846.715000", "151848.205000", "151849.695000", "151851.185000", "151852.675000", "151854.165000", "151855.655000", "151857.145000", "151858.635000", "151900.125000", "151901.615000", "151903.105000", "151904.595000", "151906.085000", "151907.575000", "151909.065000", "151910.555000", "151912.045000", "151913.535000", "151915.025000", "151916.515000", "151918.005000", "151919.495000", "151920.985000", "151922.475000", "151923.965000", "151925.455000", "151926.945000", "151928.435000", "151929.925000", "151931.415000", "151932.905000", "151934.395000", "151935.885000", "151937.375000", "151938.865000", "151940.355000", "151941.845000", "151943.335000", "151944.825000", "151946.315000", "151947.805000", "151949.295000", "151950.785000", "151952.275000", "151953.765000", "151955.255000", "151956.745000", "151958.235000", "151959.725000", "152001.215000", "152002.705000", "152004.195000", "152005.685000", "152007.175000", "152008.665000", "152010.155000", "152011.645000", "152013.135000", "152014.625000", "152016.115000", "152017.605000", "152019.095000", "152020.585000", "152022.075000", "152023.565000", "152025.055000", "152026.545000", "152028.035000", "152029.525000", "152031.015000", "152032.505000", "152033.995000", "152035.485000", "152036.975000", "152038.465000", "152039.955000", "152041.445000", "152042.935000", "152044.425000", "152045.915000", "152047.405000", "152048.895000", "152050.385000", "152051.875000", "152053.365000", "152054.855000", "152056.345000", "152057.835000", "152059.325000", "152100.815000", "152102.305000", "152103.795000", "152105.285000", "152106.775000", "152108.265000", "152109.755000", "152111.245000", "152112.735000", "152114.225000", "152115.715000", "152117.205000", "152118.695000", "152120.185000", "152121.675000", "152123.165000", "152124.655000", "152126.145000", "152127.635000", "152129.125000", "152130.615000", "152132.105000", "152133.595000", "152135.085000", "152136.575000", "152138.065000", "152139.555000", "152141.045000", "152142.535000", "152144.025000", "152145.515000", "152147.005000", "152148.495000", "152149.985000", "152151.475000", "152152.965000", "152154.455000", "152155.945000", "152157.435000", "152158.925000", "152200.415000", "152201.905000", "152203.395000", "152204.885000", "152206.375000", "152207.865000", "152209.355000", "152210.845000", "152212.335000", "152213.825000", "152215.315000", "152216.805000", "152218.295000", "152219.785000", "152221.275000", "152222.765000", "152224.255000", "152225.745000", "152227.235000", "152228.725000", "152230.215000", "152231.705000", "152233.195000", "152234.685000", "152236.175000", "152237.665000", "152239.155000", "152240.645000", "152242.135000", "152243.625000", "152245.115000", "152246.605000", "152248.095000", "152249.585000", "152251.075000", "152252.565000", "152254.055000", "152255.545000", "152257.035000", "152258.525000", "152300.015000", "152301.505000", "152302.995000", "152304.485000", "152305.975000", "152307.465000", "152308.955000", "152310.445000", "152311.935000", "152313.425000", "152314.915000", "152316.405000", "152317.895000", "152319.385000", "152320.875000", "152322.365000", "152323.855000", "152325.345000", "152326.835000", "152328.325000", "152329.815000", "152331.305000", "152332.795000", "152334.285000", "152335.775000", "152337.265000", "152338.755000", "152340.245000", "152341.735000", "152343.225000", "152344.715000", "152346.205000", "152347.695000", "152349.185000", "152350.675000", "152352.165000", "152353.655000", "152355.145000", "152356.635000", "152358.125000", "152359.615000", "152401.105000", "152402.595000", "152404.085000", "152405.575000", "152407.065000", "152408.555000", "152410.045000", "152411.535000", "152413.025000", "152414.515000", "152416.005000", "152417.495000", "152418.985000", "152420.475000", "152421.965000", "152423.455000", "152424.945000", "152426.435000", "152427.925000", "152429.415000", "152430.905000", "152432.395000", "152433.885000", "152435.375000", "152436.865000", "152438.355000", "152439.845000", "152441.335000", "152442.825000", "152444.315000", "152445.805000", "152447.295000", "152448.785000", "152450.275000", "152451.765000", "152453.255000", "152454.745000", "152456.235000", "152457.725000", "152459.215000", "152500.705000", "152502.195000", "152503.685000", "152505.175000", "152506.665000", "152508.155000", "152509.645000", "152511.135000", "152512.625000", "152514.115000", "152515.605000", "152517.095000", "152518.585000", "152520.075000", "152521.565000", "152523.055000", "152524.545000", "152526.035000", "152527.525000", "152529.015000", "152530.505000", "152531.995000", "152533.485000", "152534.975000", "152536.465000", "152537.955000", "152539.445000", "152540.935000", "152542.425000", "152543.915000", "152545.405000", "152546.895000", "152548.385000", "152549.875000", "152551.365000", "152552.855000", "152554.345000", "152555.835000", "152557.325000", "152558.815000", "152600.305000", "152601.795000", "152603.285000", "152604.775000", "152606.265000", "152607.755000", "152609.245000", "152610.735000", "152612.225000", "152613.715000", "152615.205000", "152616.695000", "152618.185000", "152619.675000", "152621.165000", "152622.655000", "152624.145000", "152625.635000", "152627.125000", "152628.615000", "152630.105000", "152631.595000", "152633.085000", "152634.575000", "152636.065000", "152637.555000", "152639.045000", "152640.535000", "152642.025000", "152643.515000", "152645.005000", "152646.495000", "152647.985000", "152649.475000", "152650.965000", "152652.455000", "152653.945000"],
      "ContentTime": ["151659.028000", "151659.036000", "151659.039000", "151659.042000", "151659.045000", "151659.048000", "151659.051000", "151659.054000", "151659.057000", "151659.059000", "151659.062000", "151659.085000", "151659.088000", "151659.091000", "151659.094000", "151659.096000", "151659.099000", "151659.102000", "151659.105000", "151659.108000", "151659.111000", "151659.114000", "151659.122000", "151659.125000", "151659.128000", "151659.131000", "151659.134000", "151659.137000", "151718.987000", "151718.990000", "151718.993000", "151718.996000", "151719.009000", "151719.012000", "151719.015000", "151719.018000", "151719.021000", "151719.024000", "151719.027000", "151719.030000", "151719.032000", "151719.036000", "151719.039000", "151719.042000", "151719.045000", "151719.048000", "151719.051000", "151719.054000", "151738.986000", "151738.989000", "151738.992000", "151738.995000", "151738.998000", "151739.002000", "151739.004000", "151739.007000", "151739.016000", "151739.019000", "151739.021000", "151739.024000", "151739.027000", "151739.030000", "151739.033000", "151739.036000", "151739.039000", "151739.042000", "151739.045000", "151739.047000", "151758.986000", "151758.989000", "151758.992000", "151758.995000", "151758.998000", "151759.002000", "151759.004000", "151759.007000", "151759.010000", "151759.013000", "151759.016000", "151759.019000", "151759.022000", "151759.025000", "151759.027000", "151759.030000", "151759.033000", "151759.036000", "151759.039000", "151759.042000", "151818.986000", "151818.989000", "151818.992000", "151818.995000", "151818.997000", "151819.001000", "151819.004000", "151819.007000", "151819.010000", "151819.013000", "151819.016000", "151819.019000", "151819.021000", "151819.024000", "151819.027000", "151819.030000", "151819.033000", "151819.036000", "151819.039000", "151819.042000", "151819.045000", "151858.987000", "151858.990000", "151858.993000", "151858.996000", "151859.000000", "151859.003000", "151859.006000", "151859.009000", "151859.012000", "151859.015000", "151859.017000", "151859.020000", "151859.023000", "151859.026000", "151859.029000", "151859.032000", "151859.035000", "151859.038000", "151859.041000", "151859.043000", "151859.046000", "151859.049000", "151859.052000", "151859.055000", "151859.058000", "151859.061000", "151938.987000", "151938.990000", "151938.993000", "151938.996000", "151939.000000", "151939.003000", "151939.006000", "151939.009000", "151939.012000", "151939.015000", "151939.017000", "151939.020000", "151939.023000", "151939.026000", "151939.029000", "151939.032000", "151939.035000", "151939.038000", "151939.040000", "151939.043000", "151939.046000", "151939.049000", "151939.052000", "151939.055000", "151939.058000", "151939.061000", "151939.063000", "152018.986000", "152018.989000", "152018.992000", "152018.995000", "152018.998000", "152019.002000", "152019.005000", "152019.008000", "152019.011000", "152019.013000", "152019.016000", "152019.019000", "152019.022000", "152019.025000", "152019.028000", "152019.031000", "152019.034000", "152019.036000", "152019.039000", "152019.042000", "152019.045000", "152019.048000", "152019.051000", "152019.054000", "152019.057000", "152019.060000", "152019.063000", "152058.987000", "152058.990000", "152058.993000", "152058.996000", "152059.000000", "152059.003000", "152059.006000", "152059.009000", "152059.011000", "152059.014000", "152059.017000", "152059.020000", "152059.023000", "152059.026000", "152059.029000", "152059.032000", "152059.035000", "152059.038000", "152059.041000", "152059.052000", "152059.055000", "152059.058000", "152059.061000", "152059.063000", "152059.066000", "152059.069000", "152059.072000", "152138.987000", "152138.990000", "152138.993000", "152138.996000", "152139.000000", "152139.003000", "152139.006000", "152139.009000", "152139.012000", "152139.015000", "152139.017000", "152139.020000", "152139.023000", "152139.026000", "152139.029000", "152139.032000", "152139.035000", "152139.038000", "152139.041000", "152139.044000", "152139.046000", "152139.049000", "152139.052000", "152139.055000", "152139.058000", "152139.061000", "152139.064000", "152218.986000", "152218.989000", "152218.992000", "152218.995000", "152218.998000", "152219.002000", "152219.005000", "152219.007000", "152219.010000", "152219.013000", "152219.016000", "152219.019000", "152219.022000", "152219.025000", "152219.028000", "152219.031000", "152219.033000", "152219.036000", "152219.039000", "152219.042000", "152219.045000", "152219.048000", "152219.051000", "152219.054000", "152219.057000", "152219.060000", "152219.062000", "152258.987000", "152258.990000", "152258.993000", "152258.996000", "152258.999000", "152259.002000", "152259.004000", "152259.007000", "152259.010000", "152259.013000", "152259.016000", "152259.019000", "152259.022000", "152259.025000", "152259.028000", "152259.030000", "152259.033000", "152259.036000", "152259.039000", "152259.042000", "152259.045000", "152259.048000", "152259.051000", "152259.054000", "152259.057000", "152259.059000", "152259.062000", "152338.987000", "152338.990000", "152338.993000", "152338.996000", "152339.000000", "152339.003000", "152339.006000", "152339.009000", "152339.012000", "152339.014000", "152339.017000", "152339.020000", "152339.023000", "152339.026000", "152339.029000", "152339.032000", "152339.035000", "152339.038000", "152339.041000", "152339.044000", "152339.047000", "152339.050000", "152339.053000", "152339.056000", "152339.058000", "152339.061000", "152418.987000", "152418.990000", "152418.993000", "152418.996000", "152419.000000", "152419.003000", "152419.006000", "152419.009000", "152419.012000", "152419.014000", "152419.017000", "152419.020000", "152419.023000", "152419.026000", "152419.029000", "152419.032000", "152419.035000", "152419.038000", "152419.041000", "152419.044000", "152419.047000", "152419.049000", "152419.052000", "152419.055000", "152419.058000", "152419.061000", "152419.064000", "152458.986000", "152458.989000", "152458.992000", "152458.995000", "152458.998000", "152459.002000", "152459.005000", "152459.008000", "152459.011000", "152459.014000", "152459.017000", "152459.020000", "152459.023000", "152459.026000", "152459.029000", "152459.032000", "152459.035000", "152459.037000", "152459.040000", "152459.043000", "152459.046000", "152459.049000", "152459.052000", "152459.055000", "152459.058000", "152459.061000", "152459.063000", "152538.987000", "152538.990000", "152538.993000", "152538.996000", "152539.000000", "152539.003000", "152539.006000", "152539.009000", "152539.012000", "152539.015000", "152539.018000", "152539.021000", "152539.024000", "152539.026000", "152539.029000", "152539.060000", "152539.063000", "152539.066000", "152539.069000", "152539.072000", "152539.075000", "152539.078000", "152539.080000", "152539.083000", "152539.086000", "152539.089000", "152539.092000", "152618.987000", "152618.990000", "152618.993000", "152618.996000", "152619.000000", "152619.003000", "152619.006000", "152619.009000", "152619.012000", "152619.015000", "152619.018000", "152619.020000", "152619.023000", "152619.026000", "152619.029000", "152619.032000", "152619.035000", "152619.038000", "152619.041000", "152619.044000", "152619.047000", "152619.050000", "152619.052000", "152619.055000", "152619.058000", "152619.061000", "152619.064000", "152655.861000", "152655.865000", "152655.868000", "152655.870000", "152655.873000", "152655.876000", "152655.879000", "152655.883000", "152655.885000", "152655.888000", "152655.892000", "152655.895000", "152655.898000", "152655.901000", "152655.904000", "152655.907000", "152655.910000", "152655.913000", "152655.916000", "152655.919000", "152655.921000", "152655.924000", "152655.928000", "152655.930000", "152655.933000"],
