{
  "AcquisitionMatrixPE": 104,
  "AcquisitionNumber": 1,
  "AcquisitionTime": "15:48:51.155000",
  "BandwidthPerPixelPhaseEncode": 17.17,
  "BaseResolution": 104,
  "BodyPartExamined": "BRAIN",
  "CoilString": "HC1-7;NC1_2",
  "ConsistencyInfo": "N4_VE11C_LATEST_20160120",
  "ConversionSoftware": "dcm2niix",
  "ConversionSoftwareVersion": "v1.0.20190902",
  "DerivedVendorReportedEchoSpacing": 0.000560011,
  "DeviceSerialNumber": "167006",
  "DwellTime": 2.1e-06,
  "EchoTime": 0.037,
  "EchoTrainLength": 104,
  "EffectiveEchoSpacing": 0.000560011,
  "FlipAngle": 52,
  "HeudiconvVersion": "0.10.0",
  "ImageComments": "Unaliased_MB4_PE3_LB",
  "ImageOrientationPatientDICOM": [0.999574, 0.0138503, 0.0256717, 0.00191905, 0.846952, -0.531666],
  "ImageType": [
    "ORIGINAL",
    "PRIMARY",
    "M",
    "MB",
    "ND",
    "MOSAIC"
],
  "ImagingFrequency": 123.259,
  "InPlanePhaseEncodingDirectionDICOM": "COL",
  "InstitutionAddress": "Chemin_Queen-Mary_4565_Montreal_District_CA_H3W_1W5",
  "InstitutionName": "IUGM",
  "InstitutionalDepartmentName": "Department",
  "MRAcquisitionType": "2D",
  "MagneticFieldStrength": 3,
  "Manufacturer": "Siemens",
  "ManufacturersModelName": "Prisma_fit",
  "Modality": "MR",
  "MultibandAccelerationFactor": 4,
  "PartialFourier": 1,
  "PatientPosition": "HFS",
  "PercentPhaseFOV": 100,
  "PhaseEncodingDirection": "j",
  "PhaseEncodingSteps": 104,
  "PhaseResolution": 1,
  "PixelBandwidth": 2290,
  "ProcedureStepDescription": "video_friends",
  "ProtocolName": "func_task-friends-s06e14a",
  "PulseSequenceDetails": "%CustomerSeq%_cmrr_mbep2d_bold",
  "ReceiveCoilActiveElements": "HC1-7;NC1,2",
  "ReceiveCoilName": "HeadNeck_64",
  "ReconMatrixPE": 104,
  "RepetitionTime": 1.49,
  "SAR": 0.077652,
  "ScanOptions": "FS",
  "ScanningSequence": "EP",
  "SequenceName": "epfid2d1_104",
  "SequenceVariant": "SK_SS",
  "SeriesDescription": "func_task-friends-s06e14a",
  "SeriesNumber": 9,
  "ShimSetting": [628, -7179, -8863, 285, 3, -180, -1, -1],
  "SliceThickness": 2,
  "SliceTiming": [0, 0.7825, 0.0975, 0.8825, 0.195, 0.98, 0.2925, 1.0775, 0.3925, 1.175, 0.49, 1.2725, 0.5875, 1.3725, 0.685, 0, 0.7825, 0.0975, 0.8825, 0.195, 0.98, 0.2925, 1.0775, 0.3925, 1.175, 0.49, 1.2725, 0.5875, 1.3725, 0.685, 0, 0.7825, 0.0975, 0.8825, 0.195, 0.98, 0.2925, 1.0775, 0.3925, 1.175, 0.49, 1.2725, 0.5875, 1.3725, 0.685, 0, 0.7825, 0.0975, 0.8825, 0.195, 0.98, 0.2925, 1.0775, 0.3925, 1.175, 0.49, 1.2725, 0.5875, 1.3725, 0.685],
  "SoftwareVersions": "syngo_MR_E11",
  "SpacingBetweenSlices": 2,
  "StationName": "MRC35049",
  "TaskName": "s06e14a",
  "TotalReadoutTime": 0.0576811,
  "TxRefAmp": 330.689,
  "WipMemBlock": "43790691-cbb6-4d99-a50b-4e7985f83b40||Sequence: R016 ve11c/master r/e634e98; Dec 19 2017 11:00:25 by eja",
  "dcmmeta_affine": [
    [-1.999148964881897, 0.0038381079211831093, 0.058212947100400925, 101.24666595458984],
    [-0.02770063653588295, 1.693903923034668, -1.0629780292510986, -55.551414489746094],
    [0.05134348198771477, 1.063331961631775, 1.6931298971176147, -99.52864074707031],
    [0.0, 0.0, 0.0, 1.0]
],
  "dcmmeta_reorient_transform": [
    [0.0, -1.0, 0.0, 103.0],
    [1.0, 0.0, 0.0, 0.0],
    [0.0, 0.0, 1.0, 0.0],
    [0.0, 0.0, 0.0, 1.0]
],
  "dcmmeta_shape": [104, 104, 60, 461],
  "dcmmeta_slice_dim": 2,
  "dcmmeta_version": 0.6,
  "global": {
    "const": {
      "AcquisitionMatrix": [104, 0, 0, 104],
      "AngioFlag": "N",
      "BitsAllocated": 16,
      "BitsStored": 16,
      "BodyPartExamined": "BRAIN",
      "Columns": 832,
      "EchoNumbers": 1,
      "EchoTime": 37.0,
      "EchoTrainLength": 104,
      "FlipAngle": 52.0,
      "HighBit": 15,
      "ImageOrientationPatient": [0.99957447465037, 0.01385031859932, 0.02567174131465, 0.00191905390445, 0.84695194627024, -0.5316659834343],
      "ImagePositionPatient": [-830.72928172174, -745.58473550062, 378.35836041402],
      "ImageType": [
        "ORIGINAL",
        "PRIMARY",
        "M",
        "MB",
        "ND",
        "MOSAIC"
],
      "ImagedNucleus": "1H",
      "ImagingFrequency": 123.258842,
      "InPlanePhaseEncodingDirection": "COL",
      "MRAcquisitionType": "2D",
      "MagneticFieldStrength": 3.0,
      "Manufacturer": "SIEMENS",
      "ManufacturerModelName": "Prisma_fit",
      "Modality": "MR",
      "NumberOfAverages": 1.0,
      "NumberOfPhaseEncodingSteps": 104,
      "PercentPhaseFieldOfView": 100.0,
      "PercentSampling": 100.0,
      "PerformedProcedureStepStartTime": "151827.476000",
      "PhotometricInterpretation": "MONOCHROME2",
      "PixelBandwidth": 2290.0,
      "PixelRepresentation": 0,
      "PixelSpacing": [2.0, 2.0],
      "ProtocolName": "func_task-friends-s06e14a",
      "RepetitionTime": 1490.0,
      "Rows": 832,
      "SAR": 0.07765199736161,
      "SamplesPerPixel": 1,
      "ScanOptions": "FS",
      "ScanningSequence": "EP",
      "SequenceName": "epfid2d1_104",
      "SequenceVariant": [
        "SK",
        "SS"
],
      "SeriesDescription": "func_task-friends-s06e14a",
      "SeriesNumber": 9,
      "SeriesTime": "155009.842000",
      "SliceLocation": -51.785560419752,
      "SliceThickness": 2.0,
      "SmallestImagePixelValue": 0,
      "SoftwareVersions": "syngo MR E11",
      "SpacingBetweenSlices": 1.9999999684477,
      "SpecificCharacterSet": "ISO_IR 100",
      "StudyID": "1",
      "StudyTime": "151827.330000",
      "TransmitCoilName": "Body",
      "VariableFlipAngleFlag": "N",
      "WindowCenterWidthExplanation": "Algo1",
      "dBdt": 0.0},
    "slices": {}
  },
  "time": {
    "samples": {
      "AcquisitionNumber": [1, 2, 3, 4, 5, 6, 7, 8, 9, 10, 11, 12, 13, 14, 15, 16, 17, 18, 19, 20, 21, 22, 23, 24, 25, 26, 27, 28, 29, 30, 31, 32, 33, 34, 35, 36, 37, 38, 39, 40, 41, 42, 43, 44, 45, 46, 47, 48, 49, 50, 51, 52, 53, 54, 55, 56, 57, 58, 59, 60, 61, 62, 63, 64, 65, 66, 67, 68, 69, 70, 71, 72, 73, 74, 75, 76, 77, 78, 79, 80, 81, 82, 83, 84, 85, 86, 87, 88, 89, 90, 91, 92, 93, 94, 95, 96, 97, 98, 99, 100, 101, 102, 103, 104, 105, 106, 107, 108, 109, 110, 111, 112, 113, 114, 115, 116, 117, 118, 119, 120, 121, 122, 123, 124, 125, 126, 127, 128, 129, 130, 131, 132, 133, 134, 135, 136, 137, 138, 139, 140, 141, 142, 143, 144, 145, 146, 147, 148, 149, 150, 151, 152, 153, 154, 155, 156, 157, 158, 159, 160, 161, 162, 163, 164, 165, 166, 167, 168, 169, 170, 171, 172, 173, 174, 175, 176, 177, 178, 179, 180, 181, 182, 183, 184, 185, 186, 187, 188, 189, 190, 191, 192, 193, 194, 195, 196, 197, 198, 199, 200, 201, 202, 203, 204, 205, 206, 207, 208, 209, 210, 211, 212, 213, 214, 215, 216, 217, 218, 219, 220, 221, 222, 223, 224, 225, 226, 227, 228, 229, 230, 231, 232, 233, 234, 235, 236, 237, 238, 239, 240, 241, 242, 243, 244, 245, 246, 247, 248, 249, 250, 251, 252, 253, 254, 255, 256, 257, 258, 259, 260, 261, 262, 263, 264, 265, 266, 267, 268, 269, 270, 271, 272, 273, 274, 275, 276, 277, 278, 279, 280, 281, 282, 283, 284, 285, 286, 287, 288, 289, 290, 291, 292, 293, 294, 295, 296, 297, 298, 299, 300, 301, 302, 303, 304, 305, 306, 307, 308, 309, 310, 311, 312, 313, 314, 315, 316, 317, 318, 319, 320, 321, 322, 323, 324, 325, 326, 327, 328, 329, 330, 331, 332, 333, 334, 335, 336, 337, 338, 339, 340, 341, 342, 343, 344, 345, 346, 347, 348, 349, 350, 351, 352, 353, 354, 355, 356, 357, 358, 359, 360, 361, 362, 363, 364, 365, 366, 367, 368, 369, 370, 371, 372, 373, 374, 375, 376, 377, 378, 379, 380, 381, 382, 383, 384, 385, 386, 387, 388, 389, 390, 391, 392, 393, 394, 395, 396, 397, 398, 399, 400, 401, 402, 403, 404, 405, 406, 407, 408, 409, 410, 411, 412, 413, 414, 415, 416, 417, 418, 419, 420, 421, 422, 423, 424, 425, 426, 427, 428, 429, 430, 431, 432, 433, 434, 435, 436, 437, 438, 439, 440, 441, 442, 443, 444, 445, 446, 447, 448, 449, 450, 451, 452, 453, 454, 455, 456, 457, 458, 459, 460, 461],
      "AcquisitionTime": ["154851.155000", "154852.645000", "154854.135000", "154855.625000", "154857.115000", "154858.605000", "154900.095000", "154901.585000", "154903.075000", "154904.565000", "154906.055000", "154907.545000", "154909.035000", "154910.525000", "154912.015000", "154913.505000", "154914.995000", "154916.485000", "154917.975000", "154919.465000", "154920.955000", "154922.445000", "154923.935000", "154925.425000", "154926.915000", "154928.405000", "154929.895000", "154931.385000", "154932.875000", "154934.365000", "154935.855000", "154937.345000", "154938.835000", "154940.325000", "154941.815000", "154943.305000", "154944.795000", "154946.285000", "154947.775000", "154949.265000", "154950.755000", "154952.245000", "154953.735000", "154955.225000", "154956.715000", "154958.205000", "154959.695000", "155001.185000", "155002.675000", "155004.165000", "155005.655000", "155007.145000", "155008.635000", "155010.125000", "155011.615000", "155013.105000", "155014.595000", "155016.085000", "155017.575000", "155019.065000", "155020.555000", "155022.045000", "155023.535000", "155025.025000", "155026.515000", "155028.005000", "155029.495000", "155030.985000", "155032.475000", "155033.965000", "155035.455000", "155036.945000", "155038.435000", "155039.925000", "155041.415000", "155042.905000", "155044.395000", "155045.885000", "155047.375000", "155048.865000", "155050.355000", "155051.845000", "155053.335000", "155054.825000", "155056.315000", "155057.805000", "155059.295000", "155100.785000", "155102.275000", "155103.765000", "155105.255000", "155106.745000", "155108.235000", "155109.725000", "155111.215000", "155112.705000", "155114.195000", "155115.685000", "155117.175000", "155118.665000", "155120.155000", "155121.645000", "155123.135000", "155124.625000", "155126.115000", "155127.605000", "155129.095000", "155130.585000", "155132.075000", "155133.565000", "155135.055000", "155136.545000", "155138.035000", "155139.525000", "155141.015000", "155142.505000", "155143.995000", "155145.485000", "155146.975000", "155148.465000", "155149.955000", "155151.445000", "155152.935000", "155154.425000", "155155.915000", "155157.405000", "155158.895000", "155200.385000", "155201.875000", "155203.365000", "155204.855000", "155206.345000", "155207.835000", "155209.325000", "155210.815000", "155212.305000", "155213.795000", "155215.285000", "155216.775000", "155218.265000", "155219.755000", "155221.245000", "155222.735000", "155224.225000", "155225.715000", "155227.205000", "155228.695000", "155230.185000", "155231.675000", "155233.165000", "155234.655000", "155236.145000", "155237.635000", "155239.125000", "155240.615000", "155242.105000", "155243.595000", "155245.085000", "155246.575000", "155248.065000", "155249.555000", "155251.045000", "155252.535000", "155254.025000", "155255.515000", "155257.005000", "155258.495000", "155259.985000", "155301.475000", "155302.965000", "155304.455000", "155305.945000", "155307.435000", "155308.925000", "155310.415000", "155311.905000", "155313.395000", "155314.885000", "155316.375000", "155317.865000", "155319.355000", "155320.845000", "155322.335000", "155323.825000", "155325.315000", "155326.805000", "155328.295000", "155329.785000", "155331.275000", "155332.765000", "155334.255000", "155335.745000", "155337.235000", "155338.725000", "155340.215000", "155341.705000", "155343.195000", "155344.685000", "155346.175000", "155347.665000", "155349.155000", "155350.645000", "155352.135000", "155353.625000", "155355.115000", "155356.605000", "155358.095000", "155359.585000", "155401.075000", "155402.565000", "155404.055000", "155405.545000", "155407.035000", "155408.525000", "155410.015000", "155411.505000", "155412.995000", "155414.485000", "155415.975000", "155417.465000", "155418.955000", "155420.445000", "155421.935000", "155423.425000", "155424.915000", "155426.405000", "155427.895000", "155429.385000", "155430.875000", "155432.365000", "155433.855000", "155435.345000", "155436.835000", "155438.325000", "155439.815000", "155441.305000", "155442.795000", "155444.285000", "155445.775000", "155447.265000", "155448.755000", "155450.245000", "155451.735000", "155453.225000", "155454.715000", "155456.205000", "155457.695000", "155459.185000", "155500.675000", "155502.165000", "155503.655000", "155505.145000", "155506.635000", "155508.125000", "155509.615000", "155511.105000", "155512.595000", "155514.085000", "155515.575000", "155517.065000", "155518.555000", "155520.045000", "155521.535000", "155523.025000", "155524.515000", "155526.005000", "155527.495000", "155528.985000", "155530.475000", "155531.965000", "155533.455000", "155534.945000", "155536.435000", "155537.925000", "155539.415000", "155540.905000", "155542.395000", "155543.885000", "155545.375000", "155546.865000", "155548.355000", "155549.845000", "155551.335000", "155552.825000", "155554.315000", "155555.805000", "155557.295000", "155558.785000", "155600.275000", "155601.765000", "155603.255000", "155604.745000", "155606.235000", "155607.725000", "155609.215000", "155610.705000", "155612.195000", "155613.685000", "155615.175000", "155616.665000", "155618.155000", "155619.645000", "155621.135000", "155622.625000", "155624.115000", "155625.605000", "155627.095000", "155628.585000", "155630.075000", "155631.565000", "155633.055000", "155634.545000", "155636.035000", "155637.525000", "155639.015000", "155640.505000", "155641.995000", "155643.485000", "155644.975000", "155646.465000", "155647.955000", "155649.445000", "155650.935000", "155652.425000", "155653.915000", "155655.405000", "155656.895000", "155658.385000", "155659.875000", "155701.365000", "155702.855000", "155704.345000", "155705.835000", "155707.325000", "155708.815000", "155710.305000", "155711.795000", "155713.285000", "155714.775000", "155716.265000", "155717.755000", "155719.245000", "155720.735000", "155722.225000", "155723.715000", "155725.205000", "155726.695000", "155728.185000", "155729.675000", "155731.165000", "155732.655000", "155734.145000", "155735.635000", "155737.125000", "155738.615000", "155740.105000", "155741.595000", "155743.085000", "155744.575000", "155746.065000", "155747.555000", "155749.045000", "155750.535000", "155752.025000", "155753.515000", "155755.005000", "155756.495000", "155757.985000", "155759.475000", "155800.965000", "155802.455000", "155803.945000", "155805.435000", "155806.925000", "155808.415000", "155809.905000", "155811.395000", "155812.885000", "155814.375000", "155815.865000", "155817.355000", "155818.845000", "155820.335000", "155821.825000", "155823.315000", "155824.805000", "155826.295000", "155827.785000", "155829.275000", "155830.765000", "155832.255000", "155833.745000", "155835.235000", "155836.725000", "155838.215000", "155839.705000", "155841.195000", "155842.685000", "155844.175000", "155845.665000", "155847.155000", "155848.645000", "155850.135000", "155851.625000", "155853.115000", "155854.605000", "155856.095000", "155857.585000", "155859.075000", "155900.565000", "155902.055000", "155903.545000", "155905.035000", "155906.525000", "155908.015000", "155909.505000", "155910.995000", "155912.485000", "155913.975000", "155915.465000", "155916.955000", "155918.445000", "155919.935000", "155921.425000", "155922.915000", "155924.405000", "155925.895000", "155927.385000", "155928.875000", "155930.365000", "155931.855000", "155933.345000", "155934.835000", "155936.325000", "155937.815000", "155939.305000", "155940.795000", "155942.285000", "155943.775000", "155945.265000", "155946.755000", "155948.245000", "155949.735000", "155951.225000", "155952.715000", "155954.205000", "155955.695000", "155957.185000", "155958.675000", "160000.165000", "160001.655000", "160003.145000", "160004.635000", "160006.125000", "160007.615000", "160009.105000", "160010.595000", "160012.085000", "160013.575000", "160015.065000", "160016.555000"],
      "ContentTime": ["155009.845000", "155009.849000", "155009.852000", "155009.854000", "155009.858000", "155009.861000", "155009.871000", "155009.874000", "155009.876000", "155009.879000", "155009.882000", "155009.893000", "155009.896000", "155009.899000", "155009.902000", "155009.905000", "155009.908000", "155009.911000", "155009.913000", "155009.916000", "155009.919000", "155009.922000", "155009.925000", "155009.928000", "155009.931000", "155029.810000", "155029.813000", "155029.816000", "155029.819000", "155029.828000", "155029.831000", "155029.834000", "155029.837000", "155029.839000", "155029.842000", "155029.845000", "155029.848000", "155029.851000", "155029.854000", "155029.857000", "155029.860000", "155029.862000", "155029.865000", "155029.868000", "155029.871000", "155049.809000", "155049.812000", "155049.815000", "155049.818000", "155049.821000", "155049.825000", "155049.828000", "155049.831000", "155049.834000", "155049.837000", "155049.840000", "155049.843000", "155049.845000", "155049.848000", "155049.851000", "155049.854000", "155049.864000", "155049.867000", "155049.870000", "155049.873000", "155109.809000", "155109.812000", "155109.815000", "155109.818000", "155109.821000", "155109.823000", "155109.836000", "155109.839000", "155109.842000", "155109.845000", "155109.848000", "155109.850000", "155109.853000", "155109.856000", "155109.859000", "155109.862000", "155109.865000", "155109.868000", "155109.871000", "155109.874000", "155129.810000", "155129.813000", "155129.816000", "155129.819000", "155129.822000", "155129.825000", "155129.828000", "155129.830000", "155129.833000", "155129.836000", "155129.839000", "155129.842000", "155129.845000", "155129.848000", "155129.851000", "155129.853000", "155129.856000", "155129.859000", "155129.862000", "155129.865000", "155209.810000", "155209.813000", "155209.816000", "155209.819000", "155209.822000", "155209.825000", "155209.827000", "155209.830000", "155209.833000", "155209.836000", "155209.839000", "155209.842000", "155209.845000", "155209.848000", "155209.851000", "155209.854000", "155209.856000", "155209.859000", "155209.862000", "155209.865000", "155209.868000", "155209.871000", "155209.874000", "155209.877000", "155209.880000", "155209.883000", "155209.885000", "155209.888000", "155249.809000", "155249.812000", "155249.815000", "155249.818000", "155249.821000", "155249.824000", "155249.827000", "155249.829000", "155249.832000", "155249.835000", "155249.838000", "155249.841000", "155249.844000", "155249.847000", "155249.850000", "155249.853000", "155249.856000", "155249.859000", "155249.861000", "155249.864000", "155249.867000", "155249.870000", "155249.874000", "155249.877000", "155249.880000", "155249.883000", "155329.809000", "155329.812000", "155329.815000", "155329.818000", "155329.821000", "155329.829000", "155329.831000", "155329.834000", "155329.837000", "155329.840000", "155329.843000", "155329.846000", "155329.849000", "155329.852000", "155329.855000", "155329.858000", "155329.861000", "155329.864000", "155329.867000", "155329.870000", "155329.873000", "155329.876000", "155329.879000", "155329.882000", "155329.884000", "155329.887000", "155329.890000", "155409.810000", "155409.814000", "155409.818000", "155409.821000", "155409.824000", "155409.828000", "155409.831000", "155409.835000", "155409.838000", "155409.856000", "155409.860000", "155409.863000", "155409.867000", "155409.870000", "155409.874000", "155409.877000", "155409.881000", "155409.884000", "155409.887000", "155409.891000", "155409.894000", "155409.898000", "155409.901000", "155409.905000", "155409.908000", "155409.912000", "155409.915000", "155449.810000", "155449.813000", "155449.816000", "155449.819000", "155449.822000", "155449.825000", "155449.827000", "155449.830000", "155449.833000", "155449.836000", "155449.839000", "155449.842000", "155449.845000", "155449.848000", "155449.851000", "155449.854000", "155449.857000", "155449.860000", "155449.862000", "155449.878000", "155449.881000", "155449.884000", "155449.887000", "155449.890000", "155449.893000", "155449.896000", "155449.899000", "155529.809000", "155529.812000", "155529.815000", "155529.818000", "155529.831000", "155529.834000", "155529.836000", "155529.839000", "155529.842000", "155529.845000", "155529.848000", "155529.851000", "155529.854000", "155529.857000", "155529.860000", "155529.863000", "155529.866000", "155529.869000", "155529.871000", "155529.874000", "155529.877000", "155529.880000", "155529.883000", "155529.886000", "155529.889000", "155529.892000", "155529.895000", "155609.810000", "155609.813000", "155609.816000", "155609.819000", "155609.822000", "155609.825000", "155609.828000", "155609.831000", "155609.833000", "155609.836000", "155609.839000", "155609.842000", "155609.845000", "155609.848000", "155609.851000", "155609.854000", "155609.857000", "155609.860000", "155609.863000", "155609.865000", "155609.868000", "155609.871000", "155609.874000", "155609.877000", "155609.880000", "155609.883000", "155609.886000", "155649.810000", "155649.813000", "155649.816000", "155649.819000", "155649.822000", "155649.825000", "155649.828000", "155649.831000", "155649.834000", "155649.837000", "155649.840000", "155649.842000", "155649.845000", "155649.848000", "155649.851000", "155649.854000", "155649.857000", "155649.860000", "155649.863000", "155649.866000", "155649.869000", "155649.872000", "155649.875000", "155649.878000", "155649.881000", "155649.883000", "155649.886000", "155729.809000", "155729.812000", "155729.815000", "155729.818000", "155729.821000", "155729.824000", "155729.827000", "155729.830000", "155729.833000", "155729.836000", "155729.839000", "155729.842000", "155729.845000", "155729.848000", "155729.851000", "155729.853000", "155729.856000", "155729.859000", "155729.862000", "155729.866000", "155729.869000", "155729.872000", "155729.875000", "155729.878000", "155729.881000", "155729.883000", "155809.809000", "155809.812000", "155809.815000", "155809.818000", "155809.821000", "155809.824000", "155809.827000", "155809.830000", "155809.832000", "155809.835000", "155809.838000", "155809.841000", "155809.844000", "155809.847000", "155809.850000", "155809.853000", "155809.856000", "155809.859000", "155809.878000", "155809.881000", "155809.884000", "155809.887000", "155809.890000", "155809.893000", "155809.895000", "155809.898000", "155809.901000", "155849.810000", "155849.813000", "155849.816000", "155849.819000", "155849.822000", "155849.825000", "155849.828000", "155849.831000", "155849.834000", "155849.837000", "155849.840000", "155849.843000", "155849.846000", "155849.849000", "155849.852000", "155849.855000", "155849.858000", "155849.861000", "155849.864000", "155849.867000", "155849.870000", "155849.873000", "155849.875000", "155849.879000", "155849.881000", "155849.884000", "155849.887000", "155929.810000", "155929.813000", "155929.816000", "155929.819000", "155929.822000", "155929.825000", "155929.828000", "155929.831000", "155929.834000", "155929.837000", "155929.839000", "155929.842000", "155929.845000", "155929.848000", "155929.851000", "155929.854000", "155929.857000", "155929.860000", "155929.863000", "155929.866000", "155929.869000", "155929.872000", "155929.875000", "155929.878000", "155929.881000", "155929.884000", "155929.887000", "160009.809000", "160009.812000", "160009.815000", "160009.818000", "160009.821000", "160009.824000", "160009.827000", "160009.830000", "160009.833000", "160009.836000", "160009.839000", "160009.841000", "160009.844000", "160009.847000", "160009.850000", "160009.853000", "160009.856000", "160009.859000", "160009.862000", "160009.865000", "160009.868000", "160009.871000", "160009.874000", "160009.877000", "160009.880000", "160009.882000", "160009.885000", "160018.434000", "160018.437000", "160018.440000", "160018.443000", "160018.447000", "160018.450000"],
