{
  "AcquisitionMatrixPE": 104,
  "AcquisitionNumber": 1,
  "AcquisitionTime": "16:01:44.217500",
  "BandwidthPerPixelPhaseEncode": 17.17,
  "BaseResolution": 104,
  "BodyPartExamined": "BRAIN",
  "CoilString": "HC1-7;NC1_2",
  "ConsistencyInfo": "N4_VE11C_LATEST_20160120",
  "ConversionSoftware": "dcm2niix",
  "ConversionSoftwareVersion": "v1.0.20190902",
  "DerivedVendorReportedEchoSpacing": 0.000560011,
  "DeviceSerialNumber": "167006",
  "DwellTime": 2.1e-06,
  "EchoTime": 0.037,
  "EchoTrainLength": 104,
  "EffectiveEchoSpacing": 0.000560011,
  "FlipAngle": 52,
  "HeudiconvVersion": "0.10.0",
  "ImageComments": "Unaliased_MB4_PE3_LB",
  "ImageOrientationPatientDICOM": [0.999574, 0.0138503, 0.0256717, 0.00191905, 0.846952, -0.531666],
  "ImageType": [
    "ORIGINAL",
    "PRIMARY",
    "M",
    "MB",
    "ND",
    "MOSAIC"
],
  "ImagingFrequency": 123.259,
  "InPlanePhaseEncodingDirectionDICOM": "COL",
  "InstitutionAddress": "Chemin_Queen-Mary_4565_Montreal_District_CA_H3W_1W5",
  "InstitutionName": "IUGM",
  "InstitutionalDepartmentName": "Department",
  "MRAcquisitionType": "2D",
  "MagneticFieldStrength": 3,
  "Manufacturer": "Siemens",
  "ManufacturersModelName": "Prisma_fit",
  "Modality": "MR",
  "MultibandAccelerationFactor": 4,
  "PartialFourier": 1,
  "PatientPosition": "HFS",
  "PercentPhaseFOV": 100,
  "PhaseEncodingDirection": "j",
  "PhaseEncodingSteps": 104,
  "PhaseResolution": 1,
  "PixelBandwidth": 2290,
  "ProcedureStepDescription": "video_friends",
  "ProtocolName": "func_task-friends-s06e14b",
  "PulseSequenceDetails": "%CustomerSeq%_cmrr_mbep2d_bold",
  "ReceiveCoilActiveElements": "HC1-7;NC1,2",
  "ReceiveCoilName": "HeadNeck_64",
  "ReconMatrixPE": 104,
  "RepetitionTime": 1.49,
  "SAR": 0.0776749,
  "ScanOptions": "FS",
  "ScanningSequence": "EP",
  "SequenceName": "epfid2d1_104",
  "SequenceVariant": "SK_SS",
  "SeriesDescription": "func_task-friends-s06e14b",
  "SeriesNumber": 11,
  "ShimSetting": [628, -7179, -8863, 285, 3, -180, -1, -1],
  "SliceThickness": 2,
  "SliceTiming": [0, 0.785, 0.0975, 0.8825, 0.1975, 0.98, 0.295, 1.0775, 0.3925, 1.1775, 0.49, 1.275, 0.5875, 1.3725, 0.6875, 0, 0.785, 0.0975, 0.8825, 0.1975, 0.98, 0.295, 1.0775, 0.3925, 1.1775, 0.49, 1.275, 0.5875, 1.3725, 0.6875, 0, 0.785, 0.0975, 0.8825, 0.1975, 0.98, 0.295, 1.0775, 0.3925, 1.1775, 0.49, 1.275, 0.5875, 1.3725, 0.6875, 0, 0.785, 0.0975, 0.8825, 0.1975, 0.98, 0.295, 1.0775, 0.3925, 1.1775, 0.49, 1.275, 0.5875, 1.3725, 0.6875],
  "SoftwareVersions": "syngo_MR_E11",
  "SpacingBetweenSlices": 2,
  "StationName": "MRC35049",
  "TaskName": "s06e14b",
  "TotalReadoutTime": 0.0576811,
  "TxRefAmp": 330.689,
  "WipMemBlock": "322212c6-4ac7-43a2-b776-0c7dbc531a9d||Sequence: R016 ve11c/master r/e634e98; Dec 19 2017 11:00:25 by eja",
  "dcmmeta_affine": [
    [-1.999148964881897, 0.0038381079211831093, 0.058212947100400925, 101.24666595458984],
    [-0.02770063653588295, 1.693903923034668, -1.0629780292510986, -55.551414489746094],
    [0.05134348198771477, 1.063331961631775, 1.6931298971176147, -99.52864074707031],
    [0.0, 0.0, 0.0, 1.0]
],
  "dcmmeta_reorient_transform": [
    [0.0, -1.0, 0.0, 103.0],
    [1.0, 0.0, 0.0, 0.0],
    [0.0, 0.0, 1.0, 0.0],
    [0.0, 0.0, 0.0, 1.0]
],
  "dcmmeta_shape": [104, 104, 60, 495],
  "dcmmeta_slice_dim": 2,
  "dcmmeta_version": 0.6,
  "global": {
    "const": {
      "AcquisitionMatrix": [104, 0, 0, 104],
      "AngioFlag": "N",
      "BitsAllocated": 16,
      "BitsStored": 16,
      "BodyPartExamined": "BRAIN",
      "Columns": 832,
      "EchoNumbers": 1,
      "EchoTime": 37.0,
      "EchoTrainLength": 104,
      "FlipAngle": 52.0,
      "HighBit": 15,
      "ImageOrientationPatient": [0.99957447465037, 0.01385031859932, 0.02567174131465, 0.00191905390445, 0.84695194627024, -0.5316659834343],
      "ImagePositionPatient": [-830.72928172174, -745.58473550062, 378.35836041402],
      "ImageType": [
        "ORIGINAL",
        "PRIMARY",
        "M",
        "MB",
        "ND",
        "MOSAIC"
],
      "ImagedNucleus": "1H",
      "ImagingFrequency": 123.258853,
      "InPlanePhaseEncodingDirection": "COL",
      "MRAcquisitionType": "2D",
      "MagneticFieldStrength": 3.0,
      "Manufacturer": "SIEMENS",
      "ManufacturerModelName": "Prisma_fit",
      "Modality": "MR",
      "NumberOfAverages": 1.0,
      "NumberOfPhaseEncodingSteps": 104,
      "PercentPhaseFieldOfView": 100.0,
      "PercentSampling": 100.0,
      "PerformedProcedureStepStartTime": "151827.476000",
      "PhotometricInterpretation": "MONOCHROME2",
      "PixelBandwidth": 2290.0,
      "PixelRepresentation": 0,
      "PixelSpacing": [2.0, 2.0],
      "ProtocolName": "func_task-friends-s06e14b",
      "RepetitionTime": 1490.0,
      "Rows": 832,
      "SAR": 0.07767487973513,
      "SamplesPerPixel": 1,
      "ScanOptions": "FS",
      "ScanningSequence": "EP",
      "SequenceName": "epfid2d1_104",
      "SequenceVariant": [
        "SK",
        "SS"
],
      "SeriesDescription": "func_task-friends-s06e14b",
      "SeriesNumber": 11,
      "SeriesTime": "160246.432000",
      "SliceLocation": -51.785560419752,
      "SliceThickness": 2.0,
      "SmallestImagePixelValue": 0,
      "SoftwareVersions": "syngo MR E11",
      "SpacingBetweenSlices": 1.9999999684477,
      "SpecificCharacterSet": "ISO_IR 100",
      "StudyID": "1",
      "StudyTime": "151827.330000",
      "TransmitCoilName": "Body",
      "VariableFlipAngleFlag": "N",
      "WindowCenterWidthExplanation": "Algo1",
      "dBdt": 0.0},
    "slices": {}
  },
  "time": {
    "samples": {
      "AcquisitionNumber": [1, 2, 3, 4, 5, 6, 7, 8, 9, 10, 11, 12, 13, 14, 15, 16, 17, 18, 19, 20, 21, 22, 23, 24, 25, 26, 27, 28, 29, 30, 31, 32, 33, 34, 35, 36, 37, 38, 39, 40, 41, 42, 43, 44, 45, 46, 47, 48, 49, 50, 51, 52, 53, 54, 55, 56, 57, 58, 59, 60, 61, 62, 63, 64, 65, 66, 67, 68, 69, 70, 71, 72, 73, 74, 75, 76, 77, 78, 79, 80, 81, 82, 83, 84, 85, 86, 87, 88, 89, 90, 91, 92, 93, 94, 95, 96, 97, 98, 99, 100, 101, 102, 103, 104, 105, 106, 107, 108, 109, 110, 111, 112, 113, 114, 115, 116, 117, 118, 119, 120, 121, 122, 123, 124, 125, 126, 127, 128, 129, 130, 131, 132, 133, 134, 135, 136, 137, 138, 139, 140, 141, 142, 143, 144, 145, 146, 147, 148, 149, 150, 151, 152, 153, 154, 155, 156, 157, 158, 159, 160, 161, 162, 163, 164, 165, 166, 167, 168, 169, 170, 171, 172, 173, 174, 175, 176, 177, 178, 179, 180, 181, 182, 183, 184, 185, 186, 187, 188, 189, 190, 191, 192, 193, 194, 195, 196, 197, 198, 199, 200, 201, 202, 203, 204, 205, 206, 207, 208, 209, 210, 211, 212, 213, 214, 215, 216, 217, 218, 219, 220, 221, 222, 223, 224, 225, 226, 227, 228, 229, 230, 231, 232, 233, 234, 235, 236, 237, 238, 239, 240, 241, 242, 243, 244, 245, 246, 247, 248, 249, 250, 251, 252, 253, 254, 255, 256, 257, 258, 259, 260, 261, 262, 263, 264, 265, 266, 267, 268, 269, 270, 271, 272, 273, 274, 275, 276, 277, 278, 279, 280, 281, 282, 283, 284, 285, 286, 287, 288, 289, 290, 291, 292, 293, 294, 295, 296, 297, 298, 299, 300, 301, 302, 303, 304, 305, 306, 307, 308, 309, 310, 311, 312, 313, 314, 315, 316, 317, 318, 319, 320, 321, 322, 323, 324, 325, 326, 327, 328, 329, 330, 331, 332, 333, 334, 335, 336, 337, 338, 339, 340, 341, 342, 343, 344, 345, 346, 347, 348, 349, 350, 351, 352, 353, 354, 355, 356, 357, 358, 359, 360, 361, 362, 363, 364, 365, 366, 367, 368, 369, 370, 371, 372, 373, 374, 375, 376, 377, 378, 379, 380, 381, 382, 383, 384, 385, 386, 387, 388, 389, 390, 391, 392, 393, 394, 395, 396, 397, 398, 399, 400, 401, 402, 403, 404, 405, 406, 407, 408, 409, 410, 411, 412, 413, 414, 415, 416, 417, 418, 419, 420, 421, 422, 423, 424, 425, 426, 427, 428, 429, 430, 431, 432, 433, 434, 435, 436, 437, 438, 439, 440, 441, 442, 443, 444, 445, 446, 447, 448, 449, 450, 451, 452, 453, 454, 455, 456, 457, 458, 459, 460, 461, 462, 463, 464, 465, 466, 467, 468, 469, 470, 471, 472, 473, 474, 475, 476, 477, 478, 479, 480, 481, 482, 483, 484, 485, 486, 487, 488, 489, 490, 491, 492, 493, 494, 495],
      "AcquisitionTime": ["160144.217500", "160145.707500", "160147.197500", "160148.687500", "160150.177500", "160151.667500", "160153.157500", "160154.647500", "160156.137500", "160157.627500", "160159.117500", "160200.607500", "160202.097500", "160203.587500", "160205.077500", "160206.567500", "160208.057500", "160209.547500", "160211.037500", "160212.527500", "160214.017500", "160215.507500", "160216.997500", "160218.487500", "160219.977500", "160221.467500", "160222.957500", "160224.447500", "160225.937500", "160227.427500", "160228.917500", "160230.407500", "160231.897500", "160233.387500", "160234.877500", "160236.367500", "160237.857500", "160239.347500", "160240.837500", "160242.327500", "160243.817500", "160245.307500", "160246.797500", "160248.287500", "160249.777500", "160251.267500", "160252.757500", "160254.247500", "160255.737500", "160257.227500", "160258.717500", "160300.207500", "160301.697500", "160303.187500", "160304.677500", "160306.167500", "160307.657500", "160309.147500", "160310.637500", "160312.127500", "160313.617500", "160315.107500", "160316.597500", "160318.087500", "160319.577500", "160321.067500", "160322.557500", "160324.047500", "160325.537500", "160327.027500", "160328.517500", "160330.007500", "160331.497500", "160332.987500", "160334.477500", "160335.967500", "160337.457500", "160338.947500", "160340.437500", "160341.927500", "160343.417500", "160344.907500", "160346.397500", "160347.887500", "160349.377500", "160350.867500", "160352.357500", "160353.847500", "160355.337500", "160356.827500", "160358.317500", "160359.807500", "160401.297500", "160402.787500", "160404.277500", "160405.767500", "160407.257500", "160408.747500", "160410.237500", "160411.727500", "160413.217500", "160414.707500", "160416.197500", "160417.687500", "160419.177500", "160420.667500", "160422.157500", "160423.647500", "160425.137500", "160426.627500", "160428.117500", "160429.607500", "160431.097500", "160432.587500", "160434.077500", "160435.567500", "160437.057500", "160438.547500", "160440.037500", "160441.527500", "160443.017500", "160444.507500", "160445.997500", "160447.487500", "160448.977500", "160450.467500", "160451.957500", "160453.447500", "160454.937500", "160456.427500", "160457.917500", "160459.407500", "160500.897500", "160502.387500", "160503.877500", "160505.367500", "160506.857500", "160508.347500", "160509.837500", "160511.327500", "160512.817500", "160514.307500", "160515.797500", "160517.287500", "160518.777500", "160520.267500", "160521.757500", "160523.247500", "160524.737500", "160526.227500", "160527.717500", "160529.207500", "160530.697500", "160532.187500", "160533.677500", "160535.167500", "160536.657500", "160538.147500", "160539.637500", "160541.127500", "160542.617500", "160544.107500", "160545.597500", "160547.087500", "160548.577500", "160550.067500", "160551.557500", "160553.047500", "160554.537500", "160556.027500", "160557.517500", "160559.007500", "160600.497500", "160601.987500", "160603.477500", "160604.967500", "160606.457500", "160607.947500", "160609.437500", "160610.927500", "160612.417500", "160613.907500", "160615.397500", "160616.887500", "160618.377500", "160619.867500", "160621.357500", "160622.847500", "160624.337500", "160625.827500", "160627.317500", "160628.807500", "160630.297500", "160631.787500", "160633.277500", "160634.767500", "160636.257500", "160637.747500", "160639.237500", "160640.727500", "160642.217500", "160643.707500", "160645.197500", "160646.687500", "160648.177500", "160649.667500", "160651.157500", "160652.647500", "160654.137500", "160655.627500", "160657.117500", "160658.607500", "160700.097500", "160701.587500", "160703.077500", "160704.567500", "160706.057500", "160707.547500", "160709.037500", "160710.527500", "160712.017500", "160713.507500", "160714.997500", "160716.487500", "160717.977500", "160719.467500", "160720.957500", "160722.447500", "160723.937500", "160725.427500", "160726.917500", "160728.407500", "160729.897500", "160731.387500", "160732.877500", "160734.367500", "160735.857500", "160737.347500", "160738.837500", "160740.327500", "160741.817500", "160743.307500", "160744.797500", "160746.287500", "160747.777500", "160749.267500", "160750.757500", "160752.247500", "160753.737500", "160755.227500", "160756.717500", "160758.207500", "160759.697500", "160801.187500", "160802.677500", "160804.167500", "160805.657500", "160807.147500", "160808.637500", "160810.127500", "160811.617500", "160813.107500", "160814.597500", "160816.087500", "160817.577500", "160819.067500", "160820.557500", "160822.047500", "160823.537500", "160825.027500", "160826.517500", "160828.007500", "160829.497500", "160830.987500", "160832.477500", "160833.967500", "160835.457500", "160836.947500", "160838.437500", "160839.927500", "160841.417500", "160842.907500", "160844.397500", "160845.887500", "160847.377500", "160848.867500", "160850.357500", "160851.847500", "160853.337500", "160854.827500", "160856.317500", "160857.807500", "160859.297500", "160900.787500", "160902.277500", "160903.767500", "160905.257500", "160906.747500", "160908.237500", "160909.727500", "160911.217500", "160912.707500", "160914.197500", "160915.687500", "160917.177500", "160918.667500", "160920.157500", "160921.647500", "160923.137500", "160924.627500", "160926.117500", "160927.607500", "160929.097500", "160930.587500", "160932.077500", "160933.567500", "160935.057500", "160936.547500", "160938.037500", "160939.527500", "160941.017500", "160942.507500", "160943.997500", "160945.487500", "160946.977500", "160948.467500", "160949.957500", "160951.447500", "160952.937500", "160954.427500", "160955.917500", "160957.407500", "160958.897500", "161000.387500", "161001.877500", "161003.367500", "161004.857500", "161006.347500", "161007.837500", "161009.327500", "161010.817500", "161012.307500", "161013.797500", "161015.287500", "161016.777500", "161018.267500", "161019.757500", "161021.247500", "161022.737500", "161024.227500", "161025.717500", "161027.207500", "161028.697500", "161030.187500", "161031.677500", "161033.167500", "161034.657500", "161036.147500", "161037.637500", "161039.127500", "161040.617500", "161042.107500", "161043.597500", "161045.087500", "161046.577500", "161048.067500", "161049.557500", "161051.047500", "161052.537500", "161054.027500", "161055.517500", "161057.007500", "161058.497500", "161059.987500", "161101.477500", "161102.967500", "161104.457500", "161105.947500", "161107.437500", "161108.927500", "161110.417500", "161111.907500", "161113.397500", "161114.887500", "161116.377500", "161117.867500", "161119.357500", "161120.847500", "161122.337500", "161123.827500", "161125.317500", "161126.807500", "161128.297500", "161129.787500", "161131.277500", "161132.767500", "161134.257500", "161135.747500", "161137.237500", "161138.727500", "161140.217500", "161141.707500", "161143.197500", "161144.687500", "161146.177500", "161147.667500", "161149.157500", "161150.647500", "161152.137500", "161153.627500", "161155.117500", "161156.607500", "161158.097500", "161159.587500", "161201.077500", "161202.567500", "161204.057500", "161205.547500", "161207.037500", "161208.527500", "161210.017500", "161211.507500", "161212.997500", "161214.487500", "161215.977500", "161217.467500", "161218.957500", "161220.447500", "161221.937500", "161223.427500", "161224.917500", "161226.407500", "161227.897500", "161229.387500", "161230.877500", "161232.367500", "161233.857500", "161235.347500", "161236.837500", "161238.327500", "161239.817500", "161241.307500", "161242.797500", "161244.287500", "161245.777500", "161247.267500", "161248.757500", "161250.247500", "161251.737500", "161253.227500", "161254.717500", "161256.207500", "161257.697500", "161259.187500", "161300.677500", "161302.167500", "161303.657500", "161305.147500", "161306.637500", "161308.127500", "161309.617500", "161311.107500", "161312.597500", "161314.087500", "161315.577500", "161317.067500", "161318.557500", "161320.047500", "161321.537500", "161323.027500", "161324.517500", "161326.007500", "161327.497500", "161328.987500", "161330.477500", "161331.967500", "161333.457500", "161334.947500", "161336.437500", "161337.927500", "161339.417500", "161340.907500", "161342.397500", "161343.887500", "161345.377500", "161346.867500", "161348.357500", "161349.847500", "161351.337500", "161352.827500", "161354.317500", "161355.807500", "161357.297500", "161358.787500", "161400.277500"],
      "ContentTime": ["160246.434000", "160246.437000", "160246.440000", "160246.451000", "160246.454000", "160246.457000", "160246.460000", "160246.462000", "160306.407000", "160306.410000", "160306.413000", "160306.416000", "160306.419000", "160306.422000", "160306.425000", "160306.427000", "160306.430000", "160306.433000", "160306.436000", "160306.439000", "160306.442000", "160306.445000", "160306.448000", "160306.451000", "160306.454000", "160306.456000", "160306.459000", "160306.462000", "160326.408000", "160326.411000", "160326.414000", "160326.417000", "160326.420000", "160326.422000", "160326.425000", "160326.428000", "160326.431000", "160326.434000", "160326.437000", "160326.440000", "160326.443000", "160326.446000", "160326.448000", "160326.451000", "160326.464000", "160326.467000", "160326.470000", "160326.473000", "160346.407000", "160346.410000", "160346.413000", "160346.416000", "160346.419000", "160346.421000", "160346.424000", "160346.427000", "160346.430000", "160346.433000", "160346.436000", "160346.439000", "160346.442000", "160346.445000", "160346.447000", "160346.450000", "160346.453000", "160346.456000", "160346.459000", "160346.462000", "160406.407000", "160406.410000", "160406.413000", "160406.416000", "160406.419000", "160406.423000", "160406.426000", "160406.429000", "160406.432000", "160406.435000", "160406.438000", "160406.441000", "160406.445000", "160406.447000", "160406.450000", "160406.453000", "160406.456000", "160406.470000", "160406.473000", "160406.476000", "160426.407000", "160426.410000", "160426.413000", "160426.416000", "160426.419000", "160426.421000", "160426.424000", "160426.427000", "160426.430000", "160426.433000", "160426.436000", "160426.439000", "160426.442000", "160426.445000", "160426.447000", "160426.450000", "160426.453000", "160426.456000", "160426.459000", "160426.462000", "160506.407000", "160506.410000", "160506.413000", "160506.416000", "160506.419000", "160506.422000", "160506.424000", "160506.427000", "160506.430000", "160506.433000", "160506.436000", "160506.439000", "160506.442000", "160506.445000", "160506.448000", "160506.451000", "160506.453000", "160506.456000", "160506.459000", "160506.462000", "160506.465000", "160506.468000", "160506.471000", "160506.474000", "160506.477000", "160506.487000", "160506.490000", "160546.408000", "160546.411000", "160546.414000", "160546.417000", "160546.420000", "160546.423000", "160546.426000", "160546.429000", "160546.431000", "160546.434000", "160546.437000", "160546.440000", "160546.443000", "160546.446000", "160546.449000", "160546.452000", "160546.455000", "160546.458000", "160546.461000", "160546.463000", "160546.466000", "160546.469000", "160546.472000", "160546.475000", "160546.478000", "160546.481000", "160546.484000", "160626.407000", "160626.410000", "160626.413000", "160626.416000", "160626.419000", "160626.422000", "160626.424000", "160626.427000", "160626.430000", "160626.433000", "160626.436000", "160626.439000", "160626.442000", "160626.445000", "160626.448000", "160626.451000", "160626.453000", "160626.456000", "160626.459000", "160626.462000", "160626.465000", "160626.468000", "160626.471000", "160626.474000", "160626.477000", "160626.480000", "160626.483000", "160706.407000", "160706.416000", "160706.419000", "160706.422000", "160706.424000", "160706.428000", "160706.431000", "160706.433000", "160706.436000", "160706.439000", "160706.442000", "160706.453000", "160706.456000", "160706.459000", "160706.462000", "160706.465000", "160706.467000", "160706.470000", "160706.473000", "160706.476000", "160706.479000", "160706.482000", "160706.485000", "160706.488000", "160706.491000", "160706.494000", "160706.497000", "160746.407000", "160746.410000", "160746.413000", "160746.416000", "160746.419000", "160746.422000", "160746.425000", "160746.428000", "160746.430000", "160746.433000", "160746.436000", "160746.440000", "160746.443000", "160746.446000", "160746.449000", "160746.452000", "160746.455000", "160746.458000", "160746.461000", "160746.464000", "160746.466000", "160746.469000", "160746.472000", "160746.475000", "160746.478000", "160746.481000", "160826.407000", "160826.410000", "160826.413000", "160826.416000", "160826.419000", "160826.422000", "160826.425000", "160826.428000", "160826.431000", "160826.434000", "160826.436000", "160826.439000", "160826.442000", "160826.445000", "160826.448000", "160826.451000", "160826.454000", "160826.457000", "160826.460000", "160826.463000", "160826.466000", "160826.468000", "160826.471000", "160826.474000", "160826.477000", "160826.480000", "160826.483000", "160906.407000", "160906.410000", "160906.413000", "160906.416000", "160906.431000", "160906.434000", "160906.437000", "160906.440000", "160906.443000", "160906.446000", "160906.449000", "160906.452000", "160906.454000", "160906.457000", "160906.460000", "160906.463000", "160906.466000", "160906.469000", "160906.472000", "160906.475000", "160906.478000", "160906.481000", "160906.484000", "160906.487000", "160906.490000", "160906.493000", "160906.496000", "160946.407000", "160946.410000", "160946.413000", "160946.416000", "160946.419000", "160946.422000", "160946.425000", "160946.428000", "160946.431000", "160946.434000", "160946.437000", "160946.439000", "160946.442000", "160946.445000", "160946.448000", "160946.451000", "160946.454000", "160946.457000", "160946.460000", "160946.463000", "160946.466000", "160946.469000", "160946.471000", "160946.474000", "160946.477000", "160946.480000", "160946.483000", "161026.408000", "161026.411000", "161026.414000", "161026.417000", "161026.420000", "161026.423000", "161026.426000", "161026.429000", "161026.432000", "161026.435000", "161026.437000", "161026.440000", "161026.443000", "161026.446000", "161026.449000", "161026.452000", "161026.455000", "161026.458000", "161026.461000", "161026.464000", "161026.467000", "161026.469000", "161026.472000", "161026.475000", "161026.478000", "161026.481000", "161026.484000", "161106.407000", "161106.410000", "161106.413000", "161106.416000", "161106.419000", "161106.422000", "161106.425000", "161106.428000", "161106.431000", "161106.434000", "161106.436000", "161106.439000", "161106.442000", "161106.445000", "161106.448000", "161106.451000", "161106.454000", "161106.457000", "161106.460000", "161106.463000", "161106.466000", "161106.468000", "161106.471000", "161106.474000", "161106.477000", "161106.480000", "161106.483000", "161146.407000", "161146.410000", "161146.413000", "161146.416000", "161146.419000", "161146.422000", "161146.425000", "161146.428000", "161146.431000", "161146.434000", "161146.436000", "161146.439000", "161146.443000", "161146.446000", "161146.461000", "161146.464000", "161146.467000", "161146.470000", "161146.473000", "161146.476000", "161146.479000", "161146.482000", "161146.485000", "161146.488000", "161146.491000", "161146.494000", "161226.407000", "161226.410000", "161226.413000", "161226.416000", "161226.419000", "161226.422000", "161226.425000", "161226.428000", "161226.430000", "161226.433000", "161226.436000", "161226.439000", "161226.442000", "161226.445000", "161226.448000", "161226.451000", "161226.454000", "161226.457000", "161226.460000", "161226.463000", "161226.465000", "161226.468000", "161226.471000", "161226.474000", "161226.477000", "161226.480000", "161226.483000", "161306.407000", "161306.410000", "161306.413000", "161306.416000", "161306.419000", "161306.422000", "161306.425000", "161306.428000", "161306.431000", "161306.433000", "161306.436000", "161306.439000", "161306.442000", "161306.445000", "161306.461000", "161306.464000", "161306.467000", "161306.470000", "161306.473000", "161306.476000", "161306.479000", "161306.481000", "161306.484000", "161306.487000", "161306.490000", "161306.493000", "161306.496000", "161346.407000", "161346.410000", "161346.413000", "161346.416000", "161346.419000", "161346.422000", "161346.425000", "161346.428000", "161346.431000", "161346.434000", "161346.436000", "161346.439000", "161346.442000", "161346.445000", "161346.448000", "161346.451000", "161346.454000", "161346.457000", "161346.460000", "161346.463000", "161346.466000", "161346.469000", "161346.471000", "161346.478000", "161346.481000", "161346.484000", "161346.487000", "161402.111000", "161402.115000", "161402.118000", "161402.121000", "161402.124000", "161402.127000", "161402.130000", "161402.133000", "161402.136000", "161402.139000", "161402.142000"],
