{
  "AcquisitionMatrixPE": 104,
  "AcquisitionNumber": 1,
  "AcquisitionTime": "13:30:22.750000",
  "BandwidthPerPixelPhaseEncode": 17.17,
  "BaseResolution": 104,
  "BodyPartExamined": "BRAIN",
  "CoilString": "HC1-7;NC1_2",
  "ConsistencyInfo": "N4_VE11C_LATEST_20160120",
  "ConversionSoftware": "dcm2niix",
  "ConversionSoftwareVersion": "v1.0.20190902",
  "DerivedVendorReportedEchoSpacing": 0.000560011,
  "DeviceSerialNumber": "167006",
  "DwellTime": 2.1e-06,
  "EchoTime": 0.037,
  "EchoTrainLength": 104,
  "EffectiveEchoSpacing": 0.000560011,
  "FlipAngle": 52,
  "ImageComments": "Unaliased_MB4_PE3_LB",
  "ImageOrientationPatientDICOM": [0.998458, 0.0150358, -0.0534286, -0.0249249, 0.981552, -0.189562],
  "ImageType": [
    "ORIGINAL",
    "PRIMARY",
    "M",
    "MB",
    "ND",
    "MOSAIC"
],
  "ImagingFrequency": 123.259,
  "InPlanePhaseEncodingDirectionDICOM": "COL",
  "InstitutionAddress": "Chemin_Queen-Mary_4565_Montreal_District_CA_H3W_1W5",
  "InstitutionName": "IUGM",
  "InstitutionalDepartmentName": "Department",
  "MRAcquisitionType": "2D",
  "MagneticFieldStrength": 3,
  "Manufacturer": "Siemens",
  "ManufacturersModelName": "Prisma_fit",
  "Modality": "MR",
  "MultibandAccelerationFactor": 4,
  "PartialFourier": 1,
  "PatientPosition": "HFS",
  "PercentPhaseFOV": 100,
  "PhaseEncodingDirection": "j",
  "PhaseEncodingSteps": 104,
  "PhaseResolution": 1,
  "PixelBandwidth": 2290,
  "ProcedureStepDescription": "video_friends",
  "ProtocolName": "func_task-friends-s04e18b",
  "PulseSequenceDetails": "%CustomerSeq%_cmrr_mbep2d_bold",
  "ReceiveCoilActiveElements": "HC1-7;NC1,2",
  "ReceiveCoilName": "HeadNeck_64",
  "ReconMatrixPE": 104,
  "RepetitionTime": 1.49,
  "SAR": 0.0300155,
  "ScanOptions": "FS",
  "ScanningSequence": "EP",
  "SequenceName": "epfid2d1_104",
  "SequenceVariant": "SK_SS",
  "SeriesDescription": "func_task-friends-s04e18b",
  "SeriesNumber": 11,
  "ShimSetting": [605, -7256, -8827, 624, -36, -301, 32, 56],
  "SliceThickness": 2,
  "SliceTiming": [0, 0.785, 0.0975, 0.8825, 0.1975, 0.98, 0.295, 1.0775, 0.3925, 1.1775, 0.49, 1.275, 0.5875, 1.3725, 0.6875, 0, 0.785, 0.0975, 0.8825, 0.1975, 0.98, 0.295, 1.0775, 0.3925, 1.1775, 0.49, 1.275, 0.5875, 1.3725, 0.6875, 0, 0.785, 0.0975, 0.8825, 0.1975, 0.98, 0.295, 1.0775, 0.3925, 1.1775, 0.49, 1.275, 0.5875, 1.3725, 0.6875, 0, 0.785, 0.0975, 0.8825, 0.1975, 0.98, 0.295, 1.0775, 0.3925, 1.1775, 0.49, 1.275, 0.5875, 1.3725, 0.6875],
  "SoftwareVersions": "syngo_MR_E11",
  "SpacingBetweenSlices": 2,
  "StationName": "MRC35049",
  "TaskName": "s04e18b",
  "TotalReadoutTime": 0.0576811,
  "TxRefAmp": 218.213,
  "WipMemBlock": "78c3cb14-8808-4965-84a8-8526be5dfb9d||Sequence: R016 ve11c/master r/e634e98; Dec 19 2017 11:00:25 by eja",
  "dcmmeta_affine": [
    [-1.9969168901443481, -0.049849819391965866, -0.09918545931577682, 104.38287353515625],
    [-0.03007161058485508, 1.963104486465454, -0.3812039792537689, -81.7789535522461],
    [-0.10685718059539795, 0.3791249990463257, 1.9608278274536133, -46.50859069824219],
    [0.0, 0.0, 0.0, 1.0]
],
  "dcmmeta_reorient_transform": [
    [0.0, -1.0, 0.0, 103.0],
    [1.0, 0.0, 0.0, 0.0],
    [0.0, 0.0, 1.0, 0.0],
    [0.0, 0.0, 0.0, 1.0]
],
  "dcmmeta_shape": [104, 104, 60, 450],
  "dcmmeta_slice_dim": 2,
  "dcmmeta_version": 0.6,
  "global": {
    "const": {
      "AcquisitionMatrix": [104, 0, 0, 104],
      "AngioFlag": "N",
      "BitsAllocated": 16,
      "BitsStored": 16,
      "BodyPartExamined": "BRAIN",
      "Columns": 832,
      "EchoNumbers": 1,
      "EchoTime": 37.0,
      "EchoTrainLength": 104,
      "FlipAngle": 52.0,
      "HighBit": 15,
      "ImageOrientationPatient": [0.99845846689462, 0.01503580570013, -0.0534285919091, -0.0249249087744, 0.98155224419355, -0.1895624985096],
      "ImagePositionPatient": [-807.98076936459, -845.93690753596, 169.43879749447],
      "ImageType": [
        "ORIGINAL",
        "PRIMARY",
        "M",
        "MB",
        "ND",
        "MOSAIC"
],
      "ImagedNucleus": "1H",
      "ImagingFrequency": 123.259017,
      "InPlanePhaseEncodingDirection": "COL",
      "MRAcquisitionType": "2D",
      "MagneticFieldStrength": 3.0,
      "Manufacturer": "SIEMENS",
      "ManufacturerModelName": "Prisma_fit",
      "Modality": "MR",
      "NumberOfAverages": 1.0,
      "NumberOfPhaseEncodingSteps": 104,
      "PercentPhaseFieldOfView": 100.0,
      "PercentSampling": 100.0,
      "PerformedProcedureStepStartTime": "130527.487000",
      "PhotometricInterpretation": "MONOCHROME2",
      "PixelBandwidth": 2290.0,
      "PixelRepresentation": 0,
      "PixelSpacing": [2.0, 2.0],
      "ProtocolName": "func_task-friends-s04e18b",
      "RepetitionTime": 1490.0,
      "Rows": 832,
      "SAR": 0.03001548272534,
      "SamplesPerPixel": 1,
      "ScanOptions": "FS",
      "ScanningSequence": "EP",
      "SequenceName": "epfid2d1_104",
      "SequenceVariant": [
        "SK",
        "SS"
],
      "SeriesDescription": "func_task-friends-s04e18b",
      "SeriesNumber": 11,
      "SeriesTime": "133118.044000",
      "SliceLocation": -35.187070120601,
      "SliceThickness": 2.0,
      "SmallestImagePixelValue": 0,
      "SoftwareVersions": "syngo MR E11",
      "SpacingBetweenSlices": 2.0000000188843,
      "SpecificCharacterSet": "ISO_IR 100",
      "StudyID": "1",
      "StudyTime": "130527.327000",
      "TransmitCoilName": "Body",
      "VariableFlipAngleFlag": "N",
      "WindowCenterWidthExplanation": "Algo1",
      "dBdt": 0.0},
    "slices": {}
  },
  "time": {
    "samples": {
      "AcquisitionNumber": [1, 2, 3, 4, 5, 6, 7, 8, 9, 10, 11, 12, 13, 14, 15, 16, 17, 18, 19, 20, 21, 22, 23, 24, 25, 26, 27, 28, 29, 30, 31, 32, 33, 34, 35, 36, 37, 38, 39, 40, 41, 42, 43, 44, 45, 46, 47, 48, 49, 50, 51, 52, 53, 54, 55, 56, 57, 58, 59, 60, 61, 62, 63, 64, 65, 66, 67, 68, 69, 70, 71, 72, 73, 74, 75, 76, 77, 78, 79, 80, 81, 82, 83, 84, 85, 86, 87, 88, 89, 90, 91, 92, 93, 94, 95, 96, 97, 98, 99, 100, 101, 102, 103, 104, 105, 106, 107, 108, 109, 110, 111, 112, 113, 114, 115, 116, 117, 118, 119, 120, 121, 122, 123, 124, 125, 126, 127, 128, 129, 130, 131, 132, 133, 134, 135, 136, 137, 138, 139, 140, 141, 142, 143, 144, 145, 146, 147, 148, 149, 150, 151, 152, 153, 154, 155, 156, 157, 158, 159, 160, 161, 162, 163, 164, 165, 166, 167, 168, 169, 170, 171, 172, 173, 174, 175, 176, 177, 178, 179, 180, 181, 182, 183, 184, 185, 186, 187, 188, 189, 190, 191, 192, 193, 194, 195, 196, 197, 198, 199, 200, 201, 202, 203, 204, 205, 206, 207, 208, 209, 210, 211, 212, 213, 214, 215, 216, 217, 218, 219, 220, 221, 222, 223, 224, 225, 226, 227, 228, 229, 230, 231, 232, 233, 234, 235, 236, 237, 238, 239, 240, 241, 242, 243, 244, 245, 246, 247, 248, 249, 250, 251, 252, 253, 254, 255, 256, 257, 258, 259, 260, 261, 262, 263, 264, 265, 266, 267, 268, 269, 270, 271, 272, 273, 274, 275, 276, 277, 278, 279, 280, 281, 282, 283, 284, 285, 286, 287, 288, 289, 290, 291, 292, 293, 294, 295, 296, 297, 298, 299, 300, 301, 302, 303, 304, 305, 306, 307, 308, 309, 310, 311, 312, 313, 314, 315, 316, 317, 318, 319, 320, 321, 322, 323, 324, 325, 326, 327, 328, 329, 330, 331, 332, 333, 334, 335, 336, 337, 338, 339, 340, 341, 342, 343, 344, 345, 346, 347, 348, 349, 350, 351, 352, 353, 354, 355, 356, 357, 358, 359, 360, 361, 362, 363, 364, 365, 366, 367, 368, 369, 370, 371, 372, 373, 374, 375, 376, 377, 378, 379, 380, 381, 382, 383, 384, 385, 386, 387, 388, 389, 390, 391, 392, 393, 394, 395, 396, 397, 398, 399, 400, 401, 402, 403, 404, 405, 406, 407, 408, 409, 410, 411, 412, 413, 414, 415, 416, 417, 418, 419, 420, 421, 422, 423, 424, 425, 426, 427, 428, 429, 430, 431, 432, 433, 434, 435, 436, 437, 438, 439, 440, 441, 442, 443, 444, 445, 446, 447, 448, 449, 450],
      "AcquisitionTime": ["133022.750000", "133024.240000", "133025.730000", "133027.220000", "133028.710000", "133030.200000", "133031.690000", "133033.180000", "133034.670000", "133036.160000", "133037.650000", "133039.140000", "133040.630000", "133042.120000", "133043.610000", "133045.100000", "133046.590000", "133048.080000", "133049.570000", "133051.060000", "133052.550000", "133054.040000", "133055.530000", "133057.020000", "133058.510000", "133100.000000", "133101.490000", "133102.980000", "133104.470000", "133105.960000", "133107.450000", "133108.940000", "133110.430000", "133111.920000", "133113.410000", "133114.900000", "133116.390000", "133117.880000", "133119.370000", "133120.860000", "133122.350000", "133123.840000", "133125.330000", "133126.820000", "133128.310000", "133129.800000", "133131.290000", "133132.780000", "133134.270000", "133135.760000", "133137.250000", "133138.740000", "133140.230000", "133141.720000", "133143.210000", "133144.700000", "133146.190000", "133147.680000", "133149.170000", "133150.660000", "133152.150000", "133153.640000", "133155.130000", "133156.620000", "133158.110000", "133159.600000", "133201.090000", "133202.580000", "133204.070000", "133205.560000", "133207.050000", "133208.540000", "133210.030000", "133211.520000", "133213.010000", "133214.500000", "133215.990000", "133217.480000", "133218.970000", "133220.460000", "133221.950000", "133223.440000", "133224.930000", "133226.420000", "133227.910000", "133229.400000", "133230.890000", "133232.380000", "133233.870000", "133235.360000", "133236.850000", "133238.340000", "133239.830000", "133241.320000", "133242.810000", "133244.300000", "133245.790000", "133247.280000", "133248.770000", "133250.260000", "133251.750000", "133253.240000", "133254.730000", "133256.220000", "133257.710000", "133259.200000", "133300.690000", "133302.180000", "133303.670000", "133305.160000", "133306.650000", "133308.140000", "133309.630000", "133311.120000", "133312.610000", "133314.100000", "133315.590000", "133317.080000", "133318.570000", "133320.060000", "133321.550000", "133323.040000", "133324.530000", "133326.020000", "133327.510000", "133329.000000", "133330.490000", "133331.980000", "133333.470000", "133334.960000", "133336.450000", "133337.940000", "133339.430000", "133340.920000", "133342.410000", "133343.900000", "133345.390000", "133346.880000", "133348.370000", "133349.860000", "133351.350000", "133352.840000", "133354.330000", "133355.820000", "133357.310000", "133358.800000", "133400.290000", "133401.780000", "133403.270000", "133404.760000", "133406.250000", "133407.740000", "133409.230000", "133410.720000", "133412.210000", "133413.700000", "133415.190000", "133416.680000", "133418.170000", "133419.660000", "133421.150000", "133422.640000", "133424.130000", "133425.620000", "133427.110000", "133428.600000", "133430.090000", "133431.580000", "133433.070000", "133434.560000", "133436.050000", "133437.540000", "133439.030000", "133440.520000", "133442.010000", "133443.500000", "133444.990000", "133446.480000", "133447.970000", "133449.460000", "133450.950000", "133452.440000", "133453.930000", "133455.420000", "133456.910000", "133458.400000", "133459.890000", "133501.380000", "133502.870000", "133504.360000", "133505.850000", "133507.340000", "133508.830000", "133510.320000", "133511.810000", "133513.300000", "133514.790000", "133516.280000", "133517.770000", "133519.260000", "133520.750000", "133522.240000", "133523.730000", "133525.220000", "133526.710000", "133528.200000", "133529.690000", "133531.180000", "133532.670000", "133534.160000", "133535.650000", "133537.140000", "133538.630000", "133540.120000", "133541.610000", "133543.100000", "133544.590000", "133546.080000", "133547.570000", "133549.060000", "133550.550000", "133552.040000", "133553.530000", "133555.020000", "133556.510000", "133558.000000", "133559.490000", "133600.980000", "133602.470000", "133603.960000", "133605.450000", "133606.940000", "133608.430000", "133609.920000", "133611.410000", "133612.900000", "133614.390000", "133615.880000", "133617.370000", "133618.860000", "133620.350000", "133621.840000", "133623.330000", "133624.820000", "133626.310000", "133627.800000", "133629.290000", "133630.780000", "133632.270000", "133633.760000", "133635.250000", "133636.740000", "133638.230000", "133639.720000", "133641.210000", "133642.700000", "133644.190000", "133645.680000", "133647.170000", "133648.660000", "133650.150000", "133651.640000", "133653.130000", "133654.620000", "133656.110000", "133657.600000", "133659.090000", "133700.580000", "133702.070000", "133703.560000", "133705.050000", "133706.540000", "133708.030000", "133709.520000", "133711.010000", "133712.500000", "133713.990000", "133715.480000", "133716.970000", "133718.460000", "133719.950000", "133721.440000", "133722.930000", "133724.420000", "133725.910000", "133727.400000", "133728.890000", "133730.380000", "133731.870000", "133733.360000", "133734.850000", "133736.340000", "133737.830000", "133739.320000", "133740.810000", "133742.300000", "133743.790000", "133745.280000", "133746.770000", "133748.260000", "133749.750000", "133751.240000", "133752.730000", "133754.220000", "133755.710000", "133757.200000", "133758.690000", "133800.180000", "133801.670000", "133803.160000", "133804.650000", "133806.140000", "133807.630000", "133809.120000", "133810.610000", "133812.100000", "133813.590000", "133815.080000", "133816.570000", "133818.060000", "133819.550000", "133821.040000", "133822.530000", "133824.020000", "133825.510000", "133827.000000", "133828.490000", "133829.980000", "133831.470000", "133832.960000", "133834.450000", "133835.940000", "133837.430000", "133838.920000", "133840.410000", "133841.900000", "133843.390000", "133844.880000", "133846.370000", "133847.860000", "133849.350000", "133850.840000", "133852.330000", "133853.820000", "133855.310000", "133856.800000", "133858.290000", "133859.780000", "133901.270000", "133902.760000", "133904.250000", "133905.740000", "133907.230000", "133908.720000", "133910.210000", "133911.700000", "133913.190000", "133914.680000", "133916.170000", "133917.660000", "133919.150000", "133920.640000", "133922.130000", "133923.620000", "133925.110000", "133926.600000", "133928.090000", "133929.580000", "133931.070000", "133932.560000", "133934.050000", "133935.540000", "133937.030000", "133938.520000", "133940.010000", "133941.500000", "133942.990000", "133944.480000", "133945.970000", "133947.460000", "133948.950000", "133950.440000", "133951.930000", "133953.420000", "133954.910000", "133956.400000", "133957.890000", "133959.380000", "134000.870000", "134002.360000", "134003.850000", "134005.340000", "134006.830000", "134008.320000", "134009.810000", "134011.300000", "134012.790000", "134014.280000", "134015.770000", "134017.260000", "134018.750000", "134020.240000", "134021.730000", "134023.220000", "134024.710000", "134026.200000", "134027.690000", "134029.180000", "134030.670000", "134032.160000", "134033.650000", "134035.140000", "134036.630000", "134038.120000", "134039.610000", "134041.100000", "134042.590000", "134044.080000", "134045.570000", "134047.060000", "134048.550000", "134050.040000", "134051.530000", "134053.020000", "134054.510000", "134056.000000", "134057.490000", "134058.980000", "134100.470000", "134101.960000", "134103.450000", "134104.940000", "134106.430000", "134107.920000", "134109.410000", "134110.900000", "134112.390000", "134113.880000", "134115.370000", "134116.860000", "134118.350000", "134119.840000", "134121.330000", "134122.820000", "134124.310000", "134125.800000", "134127.290000", "134128.780000", "134130.270000", "134131.760000"],
      "ContentTime": ["133118.047000", "133137.974000", "133137.977000", "133137.980000", "133137.983000", "133137.986000", "133137.989000", "133137.991000", "133137.994000", "133137.997000", "133138.001000", "133138.004000", "133138.007000", "133138.017000", "133138.021000", "133138.023000", "133138.026000", "133138.029000", "133138.032000", "133138.035000", "133138.038000", "133157.973000", "133157.976000", "133157.979000", "133157.982000", "133157.985000", "133157.988000", "133157.991000", "133157.994000", "133157.996000", "133158.000000", "133158.004000", "133158.008000", "133158.011000", "133158.014000", "133158.017000", "133158.021000", "133158.024000", "133158.027000", "133158.030000", "133158.033000", "133217.973000", "133217.976000", "133217.979000", "133217.982000", "133217.984000", "133217.987000", "133217.990000", "133217.994000", "133217.997000", "133218.001000", "133218.009000", "133218.012000", "133218.015000", "133218.018000", "133218.021000", "133218.024000", "133218.026000", "133218.029000", "133218.032000", "133218.035000", "133218.038000", "133237.973000", "133237.976000", "133237.979000", "133237.982000", "133237.985000", "133237.988000", "133237.991000", "133237.994000", "133237.996000", "133238.000000", "133238.003000", "133238.006000", "133238.009000", "133238.012000", "133238.015000", "133238.018000", "133238.020000", "133238.023000", "133238.026000", "133238.029000", "133257.974000", "133257.977000", "133257.980000", "133257.983000", "133257.986000", "133257.989000", "133257.992000", "133257.994000", "133257.997000", "133258.000000", "133258.003000", "133258.006000", "133258.009000", "133258.012000", "133258.015000", "133258.018000", "133258.021000", "133258.024000", "133258.027000", "133258.029000", "133337.974000", "133337.977000", "133337.980000", "133337.992000", "133337.995000", "133337.998000", "133338.002000", "133338.005000", "133338.008000", "133338.010000", "133338.013000", "133338.016000", "133338.019000", "133338.022000", "133338.025000", "133338.028000", "133338.031000", "133338.043000", "133338.046000", "133338.049000", "133338.052000", "133338.055000", "133338.058000", "133338.061000", "133338.064000", "133338.066000", "133338.069000", "133338.072000", "133417.973000", "133417.976000", "133417.979000", "133417.982000", "133417.985000", "133417.988000", "133417.991000", "133417.994000", "133417.997000", "133418.000000", "133418.003000", "133418.006000", "133418.009000", "133418.012000", "133418.015000", "133418.018000", "133418.021000", "133418.024000", "133418.027000", "133418.030000", "133418.033000", "133418.035000", "133418.038000", "133418.041000", "133418.044000", "133418.047000", "133418.050000", "133457.973000", "133457.977000", "133457.980000", "133457.983000", "133457.986000", "133457.989000", "133457.992000", "133457.996000", "133457.999000", "133458.002000", "133458.005000", "133458.008000", "133458.011000", "133458.013000", "133458.016000", "133458.019000", "133458.022000", "133458.025000", "133458.028000", "133458.031000", "133458.034000", "133458.037000", "133458.040000", "133458.043000", "133458.046000", "133458.049000", "133537.974000", "133537.977000", "133537.980000", "133537.983000", "133537.986000", "133537.989000", "133537.992000", "133537.995000", "133537.998000", "133538.002000", "133538.005000", "133538.007000", "133538.010000", "133538.013000", "133538.016000", "133538.019000", "133538.022000", "133538.025000", "133538.028000", "133538.031000", "133538.034000", "133538.037000", "133538.040000", "133538.043000", "133538.045000", "133538.048000", "133538.051000", "133617.974000", "133617.977000", "133617.980000", "133617.983000", "133617.986000", "133617.989000", "133617.992000", "133617.995000", "133617.998000", "133618.002000", "133618.004000", "133618.007000", "133618.010000", "133618.013000", "133618.016000", "133618.019000", "133618.022000", "133618.025000", "133618.028000", "133618.031000", "133618.034000", "133618.037000", "133618.040000", "133618.042000", "133618.046000", "133618.048000", "133618.051000", "133657.973000", "133657.976000", "133657.979000", "133657.982000", "133657.985000", "133657.988000", "133657.991000", "133657.994000", "133657.997000", "133657.999000", "133658.002000", "133658.005000", "133658.008000", "133658.011000", "133658.014000", "133658.017000", "133658.020000", "133658.023000", "133658.026000", "133658.029000", "133658.032000", "133658.035000", "133658.037000", "133658.041000", "133658.043000", "133658.046000", "133658.049000", "133737.974000", "133737.977000", "133737.980000", "133737.983000", "133737.986000", "133737.989000", "133737.992000", "133737.995000", "133737.998000", "133738.002000", "133738.005000", "133738.008000", "133738.011000", "133738.014000", "133738.017000", "133738.020000", "133738.022000", "133738.025000", "133738.029000", "133738.031000", "133738.034000", "133738.037000", "133738.040000", "133738.043000", "133738.046000", "133738.049000", "133738.052000", "133817.974000", "133817.977000", "133817.980000", "133817.983000", "133817.986000", "133817.989000", "133817.992000", "133817.995000", "133817.998000", "133818.002000", "133818.005000", "133818.007000", "133818.010000", "133818.013000", "133818.016000", "133818.019000", "133818.022000", "133818.044000", "133818.047000", "133818.050000", "133818.053000", "133818.056000", "133818.059000", "133818.062000", "133818.064000", "133818.067000", "133818.070000", "133857.973000", "133857.976000", "133857.979000", "133857.982000", "133857.985000", "133857.988000", "133857.991000", "133857.994000", "133857.997000", "133858.001000", "133858.004000", "133858.006000", "133858.010000", "133858.012000", "133858.015000", "133858.018000", "133858.021000", "133858.024000", "133858.027000", "133858.030000", "133858.033000", "133858.036000", "133858.039000", "133858.042000", "133858.045000", "133858.048000", "133858.051000", "133937.973000", "133937.977000", "133937.980000", "133937.983000", "133937.986000", "133937.989000", "133937.992000", "133937.995000", "133937.998000", "133938.002000", "133938.005000", "133938.008000", "133938.011000", "133938.014000", "133938.017000", "133938.020000", "133938.023000", "133938.026000", "133938.029000", "133938.033000", "133938.036000", "133938.039000", "133938.041000", "133938.044000", "133938.047000", "133938.050000", "134017.974000", "134017.977000", "134017.980000", "134017.983000", "134017.986000", "134017.990000", "134017.992000", "134017.996000", "134018.000000", "134018.003000", "134018.006000", "134018.009000", "134018.011000", "134018.015000", "134018.017000", "134018.020000", "134018.023000", "134018.027000", "134018.030000", "134018.032000", "134018.036000", "134018.039000", "134018.041000", "134018.044000", "134018.047000", "134018.050000", "134018.053000", "134037.974000", "134037.977000", "134037.980000", "134037.983000", "134037.986000", "134037.989000", "134037.992000", "134037.995000", "134037.998000", "134038.001000", "134038.005000", "134038.007000", "134038.010000", "134038.013000", "134117.973000", "134117.976000", "134117.979000", "134117.982000", "134117.985000", "134117.988000", "134117.991000", "134117.994000", "134117.997000", "134118.001000", "134118.004000", "134118.007000", "134118.009000", "134118.012000", "134118.015000", "134118.018000", "134118.021000", "134118.024000", "134118.027000", "134118.030000", "134118.033000", "134118.036000", "134118.039000", "134118.042000", "134118.045000", "134118.048000", "134118.051000", "134134.380000", "134134.383000", "134134.386000", "134134.389000", "134134.392000", "134134.395000", "134134.398000", "134134.401000", "134134.404000", "134134.407000", "134134.410000"],
