{
  "AcquisitionMatrixPE": 104,
  "AcquisitionNumber": 1,
  "AcquisitionTime": "13:55:7.155000",
  "BandwidthPerPixelPhaseEncode": 17.17,
  "BaseResolution": 104,
  "BodyPartExamined": "BRAIN",
  "CoilString": "HC1-7;NC1_2",
  "ConsistencyInfo": "N4_VE11C_LATEST_20160120",
  "ConversionSoftware": "dcm2niix",
  "ConversionSoftwareVersion": "v1.0.20190902",
  "DerivedVendorReportedEchoSpacing": 0.000560011,
  "DeviceSerialNumber": "167006",
  "DwellTime": 2.1e-06,
  "EchoTime": 0.037,
  "EchoTrainLength": 104,
  "EffectiveEchoSpacing": 0.000560011,
  "FlipAngle": 52,
  "ImageComments": "Unaliased_MB4_PE3_LB",
  "ImageOrientationPatientDICOM": [0.998458, 0.0150358, -0.0534286, -0.0249249, 0.981552, -0.189562],
  "ImageType": [
    "ORIGINAL",
    "PRIMARY",
    "M",
    "MB",
    "ND",
    "MOSAIC"
],
  "ImagingFrequency": 123.259,
  "InPlanePhaseEncodingDirectionDICOM": "COL",
  "InstitutionAddress": "Chemin_Queen-Mary_4565_Montreal_District_CA_H3W_1W5",
  "InstitutionName": "IUGM",
  "InstitutionalDepartmentName": "Department",
  "MRAcquisitionType": "2D",
  "MagneticFieldStrength": 3,
  "Manufacturer": "Siemens",
  "ManufacturersModelName": "Prisma_fit",
  "Modality": "MR",
  "MultibandAccelerationFactor": 4,
  "PartialFourier": 1,
  "PatientPosition": "HFS",
  "PercentPhaseFOV": 100,
  "PhaseEncodingDirection": "j",
  "PhaseEncodingSteps": 104,
  "PhaseResolution": 1,
  "PixelBandwidth": 2290,
  "ProcedureStepDescription": "video_friends",
  "ProtocolName": "func_task-friends-s04e19b",
  "PulseSequenceDetails": "%CustomerSeq%_cmrr_mbep2d_bold",
  "ReceiveCoilActiveElements": "HC1-7;NC1,2",
  "ReceiveCoilName": "HeadNeck_64",
  "ReconMatrixPE": 104,
  "RepetitionTime": 1.49,
  "SAR": 0.0300116,
  "ScanOptions": "FS",
  "ScanningSequence": "EP",
  "SequenceName": "epfid2d1_104",
  "SequenceVariant": "SK_SS",
  "SeriesDescription": "func_task-friends-s04e19b",
  "SeriesNumber": 15,
  "ShimSetting": [605, -7256, -8827, 624, -36, -301, 32, 56],
  "SliceThickness": 2,
  "SliceTiming": [0, 0.7825, 0.0975, 0.8825, 0.195, 0.98, 0.2925, 1.0775, 0.3925, 1.175, 0.49, 1.2725, 0.5875, 1.3725, 0.685, 0, 0.7825, 0.0975, 0.8825, 0.195, 0.98, 0.2925, 1.0775, 0.3925, 1.175, 0.49, 1.2725, 0.5875, 1.3725, 0.685, 0, 0.7825, 0.0975, 0.8825, 0.195, 0.98, 0.2925, 1.0775, 0.3925, 1.175, 0.49, 1.2725, 0.5875, 1.3725, 0.685, 0, 0.7825, 0.0975, 0.8825, 0.195, 0.98, 0.2925, 1.0775, 0.3925, 1.175, 0.49, 1.2725, 0.5875, 1.3725, 0.685],
  "SoftwareVersions": "syngo_MR_E11",
  "SpacingBetweenSlices": 2,
  "StationName": "MRC35049",
  "TaskName": "s04e19b",
  "TotalReadoutTime": 0.0576811,
  "TxRefAmp": 218.213,
  "WipMemBlock": "565d114a-fbfc-44fa-b5d5-66703dc86ee5||Sequence: R016 ve11c/master r/e634e98; Dec 19 2017 11:00:25 by eja",
  "dcmmeta_affine": [
    [-1.9969168901443481, -0.049849819391965866, -0.09918545931577682, 104.38287353515625],
    [-0.03007161058485508, 1.963104486465454, -0.3812039792537689, -81.7789535522461],
    [-0.10685718059539795, 0.3791249990463257, 1.9608278274536133, -46.50859069824219],
    [0.0, 0.0, 0.0, 1.0]
],
  "dcmmeta_reorient_transform": [
    [0.0, -1.0, 0.0, 103.0],
    [1.0, 0.0, 0.0, 0.0],
    [0.0, 0.0, 1.0, 0.0],
    [0.0, 0.0, 0.0, 1.0]
],
  "dcmmeta_shape": [104, 104, 60, 437],
  "dcmmeta_slice_dim": 2,
  "dcmmeta_version": 0.6,
  "global": {
    "const": {
      "AcquisitionMatrix": [104, 0, 0, 104],
      "AngioFlag": "N",
      "BitsAllocated": 16,
      "BitsStored": 16,
      "BodyPartExamined": "BRAIN",
      "Columns": 832,
      "EchoNumbers": 1,
      "EchoTime": 37.0,
      "EchoTrainLength": 104,
      "FlipAngle": 52.0,
      "HighBit": 15,
      "ImageOrientationPatient": [0.99845846689462, 0.01503580570013, -0.0534285919091, -0.0249249087744, 0.98155224419355, -0.1895624985096],
      "ImagePositionPatient": [-807.98076936459, -845.93690753596, 169.43879749447],
      "ImageType": [
        "ORIGINAL",
        "PRIMARY",
        "M",
        "MB",
        "ND",
        "MOSAIC"
],
      "ImagedNucleus": "1H",
      "ImagingFrequency": 123.259024,
      "InPlanePhaseEncodingDirection": "COL",
      "MRAcquisitionType": "2D",
      "MagneticFieldStrength": 3.0,
      "Manufacturer": "SIEMENS",
      "ManufacturerModelName": "Prisma_fit",
      "Modality": "MR",
      "NumberOfAverages": 1.0,
      "NumberOfPhaseEncodingSteps": 104,
      "PercentPhaseFieldOfView": 100.0,
      "PercentSampling": 100.0,
      "PerformedProcedureStepStartTime": "130527.487000",
      "PhotometricInterpretation": "MONOCHROME2",
      "PixelBandwidth": 2290.0,
      "PixelRepresentation": 0,
      "PixelSpacing": [2.0, 2.0],
      "ProtocolName": "func_task-friends-s04e19b",
      "RepetitionTime": 1490.0,
      "Rows": 832,
      "SAR": 0.03001156442304,
      "SamplesPerPixel": 1,
      "ScanOptions": "FS",
      "ScanningSequence": "EP",
      "SequenceName": "epfid2d1_104",
      "SequenceVariant": [
        "SK",
        "SS"
],
      "SeriesDescription": "func_task-friends-s04e19b",
      "SeriesNumber": 15,
      "SeriesTime": "135628.572000",
      "SliceLocation": -35.187070120601,
      "SliceThickness": 2.0,
      "SmallestImagePixelValue": 0,
      "SoftwareVersions": "syngo MR E11",
      "SpacingBetweenSlices": 2.0000000188843,
      "SpecificCharacterSet": "ISO_IR 100",
      "StudyID": "1",
      "StudyTime": "130527.327000",
      "TransmitCoilName": "Body",
      "VariableFlipAngleFlag": "N",
      "WindowCenterWidthExplanation": "Algo1",
      "dBdt": 0.0},
    "slices": {}
  },
  "time": {
    "samples": {
      "AcquisitionNumber": [1, 2, 3, 4, 5, 6, 7, 8, 9, 10, 11, 12, 13, 14, 15, 16, 17, 18, 19, 20, 21, 22, 23, 24, 25, 26, 27, 28, 29, 30, 31, 32, 33, 34, 35, 36, 37, 38, 39, 40, 41, 42, 43, 44, 45, 46, 47, 48, 49, 50, 51, 52, 53, 54, 55, 56, 57, 58, 59, 60, 61, 62, 63, 64, 65, 66, 67, 68, 69, 70, 71, 72, 73, 74, 75, 76, 77, 78, 79, 80, 81, 82, 83, 84, 85, 86, 87, 88, 89, 90, 91, 92, 93, 94, 95, 96, 97, 98, 99, 100, 101, 102, 103, 104, 105, 106, 107, 108, 109, 110, 111, 112, 113, 114, 115, 116, 117, 118, 119, 120, 121, 122, 123, 124, 125, 126, 127, 128, 129, 130, 131, 132, 133, 134, 135, 136, 137, 138, 139, 140, 141, 142, 143, 144, 145, 146, 147, 148, 149, 150, 151, 152, 153, 154, 155, 156, 157, 158, 159, 160, 161, 162, 163, 164, 165, 166, 167, 168, 169, 170, 171, 172, 173, 174, 175, 176, 177, 178, 179, 180, 181, 182, 183, 184, 185, 186, 187, 188, 189, 190, 191, 192, 193, 194, 195, 196, 197, 198, 199, 200, 201, 202, 203, 204, 205, 206, 207, 208, 209, 210, 211, 212, 213, 214, 215, 216, 217, 218, 219, 220, 221, 222, 223, 224, 225, 226, 227, 228, 229, 230, 231, 232, 233, 234, 235, 236, 237, 238, 239, 240, 241, 242, 243, 244, 245, 246, 247, 248, 249, 250, 251, 252, 253, 254, 255, 256, 257, 258, 259, 260, 261, 262, 263, 264, 265, 266, 267, 268, 269, 270, 271, 272, 273, 274, 275, 276, 277, 278, 279, 280, 281, 282, 283, 284, 285, 286, 287, 288, 289, 290, 291, 292, 293, 294, 295, 296, 297, 298, 299, 300, 301, 302, 303, 304, 305, 306, 307, 308, 309, 310, 311, 312, 313, 314, 315, 316, 317, 318, 319, 320, 321, 322, 323, 324, 325, 326, 327, 328, 329, 330, 331, 332, 333, 334, 335, 336, 337, 338, 339, 340, 341, 342, 343, 344, 345, 346, 347, 348, 349, 350, 351, 352, 353, 354, 355, 356, 357, 358, 359, 360, 361, 362, 363, 364, 365, 366, 367, 368, 369, 370, 371, 372, 373, 374, 375, 376, 377, 378, 379, 380, 381, 382, 383, 384, 385, 386, 387, 388, 389, 390, 391, 392, 393, 394, 395, 396, 397, 398, 399, 400, 401, 402, 403, 404, 405, 406, 407, 408, 409, 410, 411, 412, 413, 414, 415, 416, 417, 418, 419, 420, 421, 422, 423, 424, 425, 426, 427, 428, 429, 430, 431, 432, 433, 434, 435, 436, 437],
      "AcquisitionTime": ["135507.155000", "135508.645000", "135510.135000", "135511.625000", "135513.115000", "135514.605000", "135516.095000", "135517.585000", "135519.075000", "135520.565000", "135522.055000", "135523.545000", "135525.035000", "135526.525000", "135528.015000", "135529.505000", "135530.995000", "135532.485000", "135533.975000", "135535.465000", "135536.955000", "135538.445000", "135539.935000", "135541.425000", "135542.915000", "135544.405000", "135545.895000", "135547.385000", "135548.875000", "135550.365000", "135551.855000", "135553.345000", "135554.835000", "135556.325000", "135557.815000", "135559.305000", "135600.795000", "135602.285000", "135603.775000", "135605.265000", "135606.755000", "135608.245000", "135609.735000", "135611.225000", "135612.715000", "135614.205000", "135615.695000", "135617.185000", "135618.675000", "135620.165000", "135621.655000", "135623.145000", "135624.635000", "135626.125000", "135627.615000", "135629.105000", "135630.595000", "135632.085000", "135633.575000", "135635.065000", "135636.555000", "135638.045000", "135639.535000", "135641.025000", "135642.515000", "135644.005000", "135645.495000", "135646.985000", "135648.475000", "135649.965000", "135651.455000", "135652.945000", "135654.435000", "135655.925000", "135657.415000", "135658.905000", "135700.395000", "135701.885000", "135703.375000", "135704.865000", "135706.355000", "135707.845000", "135709.335000", "135710.825000", "135712.315000", "135713.805000", "135715.295000", "135716.785000", "135718.275000", "135719.765000", "135721.255000", "135722.745000", "135724.235000", "135725.725000", "135727.215000", "135728.705000", "135730.195000", "135731.685000", "135733.175000", "135734.665000", "135736.155000", "135737.645000", "135739.135000", "135740.625000", "135742.115000", "135743.605000", "135745.095000", "135746.585000", "135748.075000", "135749.565000", "135751.055000", "135752.545000", "135754.035000", "135755.525000", "135757.015000", "135758.505000", "135759.995000", "135801.485000", "135802.975000", "135804.465000", "135805.955000", "135807.445000", "135808.935000", "135810.425000", "135811.915000", "135813.405000", "135814.895000", "135816.385000", "135817.875000", "135819.365000", "135820.855000", "135822.345000", "135823.835000", "135825.325000", "135826.815000", "135828.305000", "135829.795000", "135831.285000", "135832.775000", "135834.265000", "135835.755000", "135837.245000", "135838.735000", "135840.225000", "135841.715000", "135843.205000", "135844.695000", "135846.185000", "135847.675000", "135849.165000", "135850.655000", "135852.145000", "135853.635000", "135855.125000", "135856.615000", "135858.105000", "135859.595000", "135901.085000", "135902.575000", "135904.065000", "135905.555000", "135907.045000", "135908.535000", "135910.025000", "135911.515000", "135913.005000", "135914.495000", "135915.985000", "135917.475000", "135918.965000", "135920.455000", "135921.945000", "135923.435000", "135924.925000", "135926.415000", "135927.905000", "135929.395000", "135930.885000", "135932.375000", "135933.865000", "135935.355000", "135936.845000", "135938.335000", "135939.825000", "135941.315000", "135942.805000", "135944.295000", "135945.785000", "135947.275000", "135948.765000", "135950.255000", "135951.745000", "135953.235000", "135954.725000", "135956.215000", "135957.705000", "135959.195000", "140000.685000", "140002.175000", "140003.665000", "140005.155000", "140006.645000", "140008.135000", "140009.625000", "140011.115000", "140012.605000", "140014.095000", "140015.585000", "140017.075000", "140018.565000", "140020.055000", "140021.545000", "140023.035000", "140024.525000", "140026.015000", "140027.505000", "140028.995000", "140030.485000", "140031.975000", "140033.465000", "140034.955000", "140036.445000", "140037.935000", "140039.425000", "140040.915000", "140042.405000", "140043.895000", "140045.385000", "140046.875000", "140048.365000", "140049.855000", "140051.345000", "140052.835000", "140054.325000", "140055.815000", "140057.305000", "140058.795000", "140100.285000", "140101.775000", "140103.265000", "140104.755000", "140106.245000", "140107.735000", "140109.225000", "140110.715000", "140112.205000", "140113.695000", "140115.185000", "140116.675000", "140118.165000", "140119.655000", "140121.145000", "140122.635000", "140124.125000", "140125.615000", "140127.105000", "140128.595000", "140130.085000", "140131.575000", "140133.065000", "140134.555000", "140136.045000", "140137.535000", "140139.025000", "140140.515000", "140142.005000", "140143.495000", "140144.985000", "140146.475000", "140147.965000", "140149.455000", "140150.945000", "140152.435000", "140153.925000", "140155.415000", "140156.905000", "140158.395000", "140159.885000", "140201.375000", "140202.865000", "140204.355000", "140205.845000", "140207.335000", "140208.825000", "140210.315000", "140211.805000", "140213.295000", "140214.785000", "140216.275000", "140217.765000", "140219.255000", "140220.745000", "140222.235000", "140223.725000", "140225.215000", "140226.705000", "140228.195000", "140229.685000", "140231.175000", "140232.665000", "140234.155000", "140235.645000", "140237.135000", "140238.625000", "140240.115000", "140241.605000", "140243.095000", "140244.585000", "140246.075000", "140247.565000", "140249.055000", "140250.545000", "140252.035000", "140253.525000", "140255.015000", "140256.505000", "140257.995000", "140259.485000", "140300.975000", "140302.465000", "140303.955000", "140305.445000", "140306.935000", "140308.425000", "140309.915000", "140311.405000", "140312.895000", "140314.385000", "140315.875000", "140317.365000", "140318.855000", "140320.345000", "140321.835000", "140323.325000", "140324.815000", "140326.305000", "140327.795000", "140329.285000", "140330.775000", "140332.265000", "140333.755000", "140335.245000", "140336.735000", "140338.225000", "140339.715000", "140341.205000", "140342.695000", "140344.185000", "140345.675000", "140347.165000", "140348.655000", "140350.145000", "140351.635000", "140353.125000", "140354.615000", "140356.105000", "140357.595000", "140359.085000", "140400.575000", "140402.065000", "140403.555000", "140405.045000", "140406.535000", "140408.025000", "140409.515000", "140411.005000", "140412.495000", "140413.985000", "140415.475000", "140416.965000", "140418.455000", "140419.945000", "140421.435000", "140422.925000", "140424.415000", "140425.905000", "140427.395000", "140428.885000", "140430.375000", "140431.865000", "140433.355000", "140434.845000", "140436.335000", "140437.825000", "140439.315000", "140440.805000", "140442.295000", "140443.785000", "140445.275000", "140446.765000", "140448.255000", "140449.745000", "140451.235000", "140452.725000", "140454.215000", "140455.705000", "140457.195000", "140458.685000", "140500.175000", "140501.665000", "140503.155000", "140504.645000", "140506.135000", "140507.625000", "140509.115000", "140510.605000", "140512.095000", "140513.585000", "140515.075000", "140516.565000", "140518.055000", "140519.545000", "140521.035000", "140522.525000", "140524.015000", "140525.505000", "140526.995000", "140528.485000", "140529.975000", "140531.465000", "140532.955000", "140534.445000", "140535.935000", "140537.425000", "140538.915000", "140540.405000", "140541.895000", "140543.385000", "140544.875000", "140546.365000", "140547.855000", "140549.345000", "140550.835000", "140552.325000", "140553.815000", "140555.305000", "140556.795000"],
      "ContentTime": ["135628.575000", "135628.578000", "135628.581000", "135628.584000", "135628.587000", "135628.590000", "135628.593000", "135628.601000", "135628.604000", "135628.607000", "135628.610000", "135628.613000", "135628.616000", "135628.619000", "135628.622000", "135628.625000", "135628.629000", "135628.632000", "135628.636000", "135628.638000", "135628.642000", "135628.644000", "135628.647000", "135628.650000", "135628.653000", "135628.656000", "135648.550000", "135648.553000", "135648.556000", "135648.559000", "135648.562000", "135648.565000", "135648.568000", "135648.571000", "135648.573000", "135648.576000", "135648.579000", "135648.582000", "135648.585000", "135648.589000", "135648.591000", "135648.594000", "135648.597000", "135648.600000", "135648.603000", "135648.606000", "135708.551000", "135708.554000", "135708.557000", "135708.560000", "135708.563000", "135708.566000", "135708.569000", "135708.572000", "135708.575000", "135708.578000", "135708.581000", "135708.584000", "135708.586000", "135708.590000", "135708.592000", "135708.595000", "135708.598000", "135708.601000", "135708.604000", "135708.607000", "135728.551000", "135728.554000", "135728.557000", "135728.560000", "135728.563000", "135728.566000", "135728.569000", "135728.572000", "135728.576000", "135728.579000", "135728.582000", "135728.585000", "135728.588000", "135728.591000", "135728.594000", "135728.597000", "135728.600000", "135728.603000", "135728.606000", "135728.611000", "135748.551000", "135748.554000", "135748.557000", "135748.560000", "135748.563000", "135748.566000", "135748.581000", "135748.584000", "135748.587000", "135748.590000", "135748.593000", "135748.596000", "135748.599000", "135748.602000", "135748.605000", "135748.608000", "135748.611000", "135748.614000", "135748.617000", "135748.620000", "135748.623000", "135828.551000", "135828.554000", "135828.570000", "135828.573000", "135828.576000", "135828.579000", "135828.582000", "135828.585000", "135828.588000", "135828.591000", "135828.594000", "135828.602000", "135828.605000", "135828.608000", "135828.611000", "135828.614000", "135828.617000", "135828.619000", "135828.623000", "135828.625000", "135828.628000", "135828.631000", "135828.635000", "135828.638000", "135828.641000", "135828.643000", "135828.647000", "135828.649000", "135908.550000", "135908.553000", "135908.556000", "135908.559000", "135908.562000", "135908.565000", "135908.568000", "135908.571000", "135908.574000", "135908.577000", "135908.580000", "135908.583000", "135908.585000", "135908.588000", "135908.592000", "135908.595000", "135908.598000", "135908.601000", "135908.604000", "135908.607000", "135908.610000", "135908.613000", "135908.616000", "135908.619000", "135908.621000", "135908.624000", "135948.551000", "135948.554000", "135948.557000", "135948.560000", "135948.563000", "135948.566000", "135948.569000", "135948.572000", "135948.575000", "135948.578000", "135948.581000", "135948.584000", "135948.587000", "135948.589000", "135948.592000", "135948.595000", "135948.598000", "135948.601000", "135948.604000", "135948.607000", "135948.610000", "135948.613000", "135948.616000", "135948.619000", "135948.622000", "135948.625000", "135948.628000", "140028.551000", "140028.554000", "140028.557000", "140028.560000", "140028.563000", "140028.566000", "140028.569000", "140028.572000", "140028.575000", "140028.578000", "140028.581000", "140028.584000", "140028.587000", "140028.590000", "140028.593000", "140028.596000", "140028.598000", "140028.601000", "140028.604000", "140028.607000", "140028.610000", "140028.613000", "140028.616000", "140028.619000", "140028.622000", "140028.625000", "140028.640000", "140108.551000", "140108.554000", "140108.557000", "140108.560000", "140108.563000", "140108.566000", "140108.569000", "140108.572000", "140108.575000", "140108.578000", "140108.581000", "140108.584000", "140108.587000", "140108.590000", "140108.593000", "140108.595000", "140108.598000", "140108.601000", "140108.604000", "140108.607000", "140108.610000", "140108.613000", "140108.616000", "140108.619000", "140108.622000", "140108.625000", "140108.628000", "140148.551000", "140148.554000", "140148.557000", "140148.560000", "140148.563000", "140148.566000", "140148.569000", "140148.572000", "140148.575000", "140148.578000", "140148.581000", "140148.584000", "140148.587000", "140148.590000", "140148.593000", "140148.596000", "140148.599000", "140148.601000", "140148.604000", "140148.607000", "140148.610000", "140148.613000", "140148.616000", "140148.619000", "140148.622000", "140148.625000", "140148.628000", "140228.551000", "140228.554000", "140228.563000", "140228.566000", "140228.569000", "140228.572000", "140228.575000", "140228.578000", "140228.581000", "140228.584000", "140228.587000", "140228.590000", "140228.593000", "140228.596000", "140228.599000", "140228.602000", "140228.605000", "140228.608000", "140228.611000", "140228.614000", "140228.616000", "140228.619000", "140228.622000", "140228.625000", "140228.628000", "140228.642000", "140228.645000", "140308.551000", "140308.554000", "140308.557000", "140308.560000", "140308.563000", "140308.566000", "140308.569000", "140308.572000", "140308.575000", "140308.578000", "140308.581000", "140308.584000", "140308.587000", "140308.590000", "140308.593000", "140308.596000", "140308.599000", "140308.602000", "140308.605000", "140308.608000", "140308.611000", "140308.615000", "140308.618000", "140308.621000", "140308.624000", "140308.627000", "140348.550000", "140348.553000", "140348.556000", "140348.559000", "140348.562000", "140348.565000", "140348.568000", "140348.571000", "140348.574000", "140348.577000", "140348.580000", "140348.583000", "140348.586000", "140348.589000", "140348.592000", "140348.595000", "140348.598000", "140348.601000", "140348.603000", "140348.607000", "140348.609000", "140348.612000", "140348.615000", "140348.618000", "140348.621000", "140348.624000", "140348.627000", "140428.551000", "140428.554000", "140428.557000", "140428.560000", "140428.563000", "140428.566000", "140428.569000", "140428.572000", "140428.575000", "140428.578000", "140428.581000", "140428.584000", "140428.587000", "140428.590000", "140428.593000", "140428.595000", "140428.598000", "140428.601000", "140428.604000", "140428.607000", "140428.610000", "140428.613000", "140428.616000", "140428.619000", "140428.622000", "140428.624000", "140428.628000", "140508.551000", "140508.554000", "140508.557000", "140508.560000", "140508.563000", "140508.566000", "140508.569000", "140508.572000", "140508.575000", "140508.578000", "140508.581000", "140508.584000", "140508.587000", "140508.590000", "140508.593000", "140508.595000", "140508.598000", "140508.601000", "140508.604000", "140508.607000", "140508.610000", "140508.613000", "140508.616000", "140508.619000", "140508.622000", "140508.625000", "140508.628000", "140548.550000", "140548.553000", "140548.556000", "140548.559000", "140548.562000", "140548.565000", "140548.568000", "140548.571000", "140548.574000", "140548.577000", "140548.580000", "140548.583000", "140548.586000", "140548.589000", "140548.592000", "140548.595000", "140548.598000", "140548.600000", "140548.603000", "140548.606000", "140548.609000", "140548.612000", "140548.615000", "140548.618000", "140548.621000", "140548.624000", "140548.627000", "140558.527000", "140558.530000", "140558.533000", "140558.536000", "140558.539000", "140558.542000", "140558.545000"],
