{
  "AcquisitionMatrixPE": 104,
  "AcquisitionNumber": 1,
  "AcquisitionTime": "17:57:40.255000",
  "BandwidthPerPixelPhaseEncode": 17.17,
  "BaseResolution": 104,
  "BodyPartExamined": "BRAIN",
  "CoilCombinationMethod": "Sum of Squares",
  "ConsistencyInfo": "N4_VE11C_LATEST_20160120",
  "ConversionSoftware": "dcm2niix",
  "ConversionSoftwareVersion": "v1.0.20211006",
  "DerivedVendorReportedEchoSpacing": 0.000560011,
  "DeviceSerialNumber": "167006",
  "DwellTime": 2.1e-06,
  "EchoTime": 0.037,
  "EchoTrainLength": 104,
  "EffectiveEchoSpacing": 0.000560011,
  "FlipAngle": 52,
  "HeudiconvVersion": "0.11.3.post9+gc939bf8",
  "ImageComments": "Unaliased MB4/PE3/LB",
  "ImageOrientationPatientDICOM": [0.994488, 0.0994416, 0.033231, -0.0786172, 0.916951, -0.391177],
  "ImageOrientationText": "Tra>Cor(-22.8)>Sag(4.0)",
  "ImageType": [
    "ORIGINAL",
    "PRIMARY",
    "M",
    "MB",
    "ND",
    "MOSAIC"
],
  "ImagingFrequency": 123.259,
  "InPlanePhaseEncodingDirectionDICOM": "COL",
  "InstitutionAddress": "Chemin Queen-Mary 4565,Montreal,District,CA,H3W 1W5",
  "InstitutionName": "IUGM",
  "InstitutionalDepartmentName": "Department",
  "MRAcquisitionType": "2D",
  "MagneticFieldStrength": 3,
  "Manufacturer": "Siemens",
  "ManufacturersModelName": "Prisma_fit",
  "MatrixCoilMode": "SENSE",
  "Modality": "MR",
  "MultibandAccelerationFactor": 4,
  "PartialFourier": 1,
  "PatientPosition": "HFS",
  "PercentPhaseFOV": 100,
  "PercentSampling": 100,
  "PhaseEncodingDirection": "j",
  "PhaseEncodingSteps": 104,
  "PhaseResolution": 1,
  "PixelBandwidth": 2290,
  "ProcedureStepDescription": "video^friends",
  "ProtocolName": "func_task-friends-s06e11b",
  "PulseSequenceDetails": "%CustomerSeq%\\cmrr_mbep2d_bold",
  "ReceiveCoilActiveElements": "HC1-7;NC1,2",
  "ReceiveCoilName": "HeadNeck_64",
  "ReconMatrixPE": 104,
  "RepetitionTime": 1.49,
  "SAR": 0.0589435,
  "ScanOptions": "FS",
  "ScanningSequence": "EP",
  "SequenceName": "epfid2d1_104",
  "SequenceVariant": "SK\\SS",
  "SeriesDescription": "func_task-friends-s06e11b",
  "SeriesNumber": 14,
  "ShimSetting": [634, -7187, -8831, 629, 106, -47, -85, -21],
  "SliceThickness": 2,
  "SliceTiming": [0, 0.785, 0.0975, 0.8825, 0.1975, 0.98, 0.295, 1.0775, 0.3925, 1.1775, 0.49, 1.275, 0.5875, 1.3725, 0.6875, 0, 0.785, 0.0975, 0.8825, 0.1975, 0.98, 0.295, 1.0775, 0.3925, 1.1775, 0.49, 1.275, 0.5875, 1.3725, 0.6875, 0, 0.785, 0.0975, 0.8825, 0.1975, 0.98, 0.295, 1.0775, 0.3925, 1.1775, 0.49, 1.275, 0.5875, 1.3725, 0.6875, 0, 0.785, 0.0975, 0.8825, 0.1975, 0.98, 0.295, 1.0775, 0.3925, 1.1775, 0.49, 1.275, 0.5875, 1.3725, 0.6875],
  "SoftwareVersions": "syngo MR E11",
  "SpacingBetweenSlices": 2,
  "StationName": "MRC35049",
  "TaskName": "s06e11b",
  "TotalReadoutTime": 0.0576811,
  "TxRefAmp": 291.768,
  "WipMemBlock": "35da2687-2255-4abc-9d65-1dc8201b0dd3||Sequence: R016 ve11c/master r/e634e98; Dec 19 2017 11:00:25 by eja",
  "dcmmeta_affine": [
    [-1.9889767169952393, -0.15723446011543274, 0.13874094188213348, 106.83841705322266],
    [-0.19888320565223694, 1.8339028358459473, -0.7728168368339539, -56.75686264038086],
    [0.06646198034286499, 0.7823539972305298, 1.8394306898117065, -73.30892944335938],
    [0.0, 0.0, 0.0, 1.0]
],
  "dcmmeta_reorient_transform": [
    [0.0, -1.0, 0.0, 103.0],
    [1.0, 0.0, 0.0, 0.0],
    [0.0, 0.0, 1.0, 0.0],
    [0.0, 0.0, 0.0, 1.0]
],
  "dcmmeta_shape": [104, 104, 60, 484],
  "dcmmeta_slice_dim": 2,
  "dcmmeta_version": 0.6,
  "global": {
    "const": {
      "AcquisitionMatrix": [104, 0, 0, 104],
      "AngioFlag": "N",
      "BitsAllocated": 16,
      "BitsStored": 16,
      "BodyPartExamined": "BRAIN",
      "Columns": 832,
      "EchoNumbers": 1,
      "EchoTime": 37.0,
      "EchoTrainLength": 104,
      "FlipAngle": 52.0,
      "HighBit": 15,
      "ImageOrientationPatient": [0.99448834561529, 0.09944159926998, 0.03323099110755, -0.0786172271514, 0.91695141465442, -0.3911769864886],
      "ImagePositionPatient": [-757.39744167023, -872.06924156765, 267.85821400052],
      "ImageType": [
        "ORIGINAL",
        "PRIMARY",
        "M",
        "MB",
        "ND",
        "MOSAIC"
],
      "ImagedNucleus": "1H",
      "ImagingFrequency": 123.258831,
      "InPlanePhaseEncodingDirection": "COL",
      "MRAcquisitionType": "2D",
      "MagneticFieldStrength": 3.0,
      "Manufacturer": "SIEMENS",
      "ManufacturerModelName": "Prisma_fit",
      "Modality": "MR",
      "NumberOfAverages": 1.0,
      "NumberOfPhaseEncodingSteps": 104,
      "PercentPhaseFieldOfView": 100.0,
      "PercentSampling": 100.0,
      "PerformedProcedureStepStartTime": "170058.281000",
      "PhotometricInterpretation": "MONOCHROME2",
      "PixelBandwidth": 2290.0,
      "PixelRepresentation": 0,
      "PixelSpacing": [2.0, 2.0],
      "ProtocolName": "func_task-friends-s06e11b",
      "RepetitionTime": 1490.0,
      "Rows": 832,
      "SAR": 0.05894354716055,
      "SamplesPerPixel": 1,
      "ScanOptions": "FS",
      "ScanningSequence": "EP",
      "SequenceName": "epfid2d1_104",
      "SequenceVariant": [
        "SK",
        "SS"
],
      "SeriesDescription": "func_task-friends-s06e11b",
      "SeriesNumber": 14,
      "SeriesTime": "175839.025000",
      "SliceLocation": -38.080584192466,
      "SliceThickness": 2.0,
      "SmallestImagePixelValue": 0,
      "SoftwareVersions": "syngo MR E11",
      "SpacingBetweenSlices": 2.0000000309428,
      "SpecificCharacterSet": "ISO_IR 100",
      "StudyID": "1",
      "StudyTime": "170058.230000",
      "TransmitCoilName": "Body",
      "VariableFlipAngleFlag": "N",
      "WindowCenterWidthExplanation": "Algo1",
      "dBdt": 0.0},
    "slices": {}
  },
  "time": {
    "samples": {
      "AcquisitionNumber": [1, 2, 3, 4, 5, 6, 7, 8, 9, 10, 11, 12, 13, 14, 15, 16, 17, 18, 19, 20, 21, 22, 23, 24, 25, 26, 27, 28, 29, 30, 31, 32, 33, 34, 35, 36, 37, 38, 39, 40, 41, 42, 43, 44, 45, 46, 47, 48, 49, 50, 51, 52, 53, 54, 55, 56, 57, 58, 59, 60, 61, 62, 63, 64, 65, 66, 67, 68, 69, 70, 71, 72, 73, 74, 75, 76, 77, 78, 79, 80, 81, 82, 83, 84, 85, 86, 87, 88, 89, 90, 91, 92, 93, 94, 95, 96, 97, 98, 99, 100, 101, 102, 103, 104, 105, 106, 107, 108, 109, 110, 111, 112, 113, 114, 115, 116, 117, 118, 119, 120, 121, 122, 123, 124, 125, 126, 127, 128, 129, 130, 131, 132, 133, 134, 135, 136, 137, 138, 139, 140, 141, 142, 143, 144, 145, 146, 147, 148, 149, 150, 151, 152, 153, 154, 155, 156, 157, 158, 159, 160, 161, 162, 163, 164, 165, 166, 167, 168, 169, 170, 171, 172, 173, 174, 175, 176, 177, 178, 179, 180, 181, 182, 183, 184, 185, 186, 187, 188, 189, 190, 191, 192, 193, 194, 195, 196, 197, 198, 199, 200, 201, 202, 203, 204, 205, 206, 207, 208, 209, 210, 211, 212, 213, 214, 215, 216, 217, 218, 219, 220, 221, 222, 223, 224, 225, 226, 227, 228, 229, 230, 231, 232, 233, 234, 235, 236, 237, 238, 239, 240, 241, 242, 243, 244, 245, 246, 247, 248, 249, 250, 251, 252, 253, 254, 255, 256, 257, 258, 259, 260, 261, 262, 263, 264, 265, 266, 267, 268, 269, 270, 271, 272, 273, 274, 275, 276, 277, 278, 279, 280, 281, 282, 283, 284, 285, 286, 287, 288, 289, 290, 291, 292, 293, 294, 295, 296, 297, 298, 299, 300, 301, 302, 303, 304, 305, 306, 307, 308, 309, 310, 311, 312, 313, 314, 315, 316, 317, 318, 319, 320, 321, 322, 323, 324, 325, 326, 327, 328, 329, 330, 331, 332, 333, 334, 335, 336, 337, 338, 339, 340, 341, 342, 343, 344, 345, 346, 347, 348, 349, 350, 351, 352, 353, 354, 355, 356, 357, 358, 359, 360, 361, 362, 363, 364, 365, 366, 367, 368, 369, 370, 371, 372, 373, 374, 375, 376, 377, 378, 379, 380, 381, 382, 383, 384, 385, 386, 387, 388, 389, 390, 391, 392, 393, 394, 395, 396, 397, 398, 399, 400, 401, 402, 403, 404, 405, 406, 407, 408, 409, 410, 411, 412, 413, 414, 415, 416, 417, 418, 419, 420, 421, 422, 423, 424, 425, 426, 427, 428, 429, 430, 431, 432, 433, 434, 435, 436, 437, 438, 439, 440, 441, 442, 443, 444, 445, 446, 447, 448, 449, 450, 451, 452, 453, 454, 455, 456, 457, 458, 459, 460, 461, 462, 463, 464, 465, 466, 467, 468, 469, 470, 471, 472, 473, 474, 475, 476, 477, 478, 479, 480, 481, 482, 483, 484],
      "AcquisitionTime": ["175740.255000", "175741.745000", "175743.235000", "175744.725000", "175746.215000", "175747.705000", "175749.195000", "175750.685000", "175752.175000", "175753.665000", "175755.155000", "175756.645000", "175758.135000", "175759.625000", "175801.115000", "175802.605000", "175804.095000", "175805.585000", "175807.075000", "175808.565000", "175810.055000", "175811.545000", "175813.035000", "175814.525000", "175816.015000", "175817.505000", "175818.995000", "175820.485000", "175821.975000", "175823.465000", "175824.955000", "175826.445000", "175827.935000", "175829.425000", "175830.915000", "175832.405000", "175833.895000", "175835.385000", "175836.875000", "175838.365000", "175839.855000", "175841.345000", "175842.835000", "175844.325000", "175845.815000", "175847.305000", "175848.795000", "175850.285000", "175851.775000", "175853.265000", "175854.755000", "175856.245000", "175857.735000", "175859.225000", "175900.715000", "175902.205000", "175903.695000", "175905.185000", "175906.675000", "175908.165000", "175909.655000", "175911.145000", "175912.635000", "175914.125000", "175915.615000", "175917.105000", "175918.595000", "175920.085000", "175921.575000", "175923.065000", "175924.555000", "175926.045000", "175927.535000", "175929.025000", "175930.515000", "175932.005000", "175933.495000", "175934.985000", "175936.475000", "175937.965000", "175939.455000", "175940.945000", "175942.435000", "175943.925000", "175945.415000", "175946.905000", "175948.395000", "175949.885000", "175951.375000", "175952.865000", "175954.355000", "175955.845000", "175957.335000", "175958.825000", "180000.315000", "180001.805000", "180003.295000", "180004.785000", "180006.275000", "180007.765000", "180009.255000", "180010.745000", "180012.235000", "180013.725000", "180015.215000", "180016.705000", "180018.195000", "180019.685000", "180021.175000", "180022.665000", "180024.155000", "180025.645000", "180027.135000", "180028.625000", "180030.115000", "180031.605000", "180033.095000", "180034.585000", "180036.075000", "180037.565000", "180039.055000", "180040.545000", "180042.035000", "180043.525000", "180045.015000", "180046.505000", "180047.995000", "180049.485000", "180050.975000", "180052.465000", "180053.955000", "180055.445000", "180056.935000", "180058.425000", "180059.915000", "180101.405000", "180102.895000", "180104.385000", "180105.875000", "180107.365000", "180108.855000", "180110.345000", "180111.835000", "180113.325000", "180114.815000", "180116.305000", "180117.795000", "180119.285000", "180120.775000", "180122.265000", "180123.755000", "180125.245000", "180126.735000", "180128.225000", "180129.715000", "180131.205000", "180132.695000", "180134.185000", "180135.675000", "180137.165000", "180138.655000", "180140.145000", "180141.635000", "180143.125000", "180144.615000", "180146.105000", "180147.595000", "180149.085000", "180150.575000", "180152.065000", "180153.555000", "180155.045000", "180156.535000", "180158.025000", "180159.515000", "180201.005000", "180202.495000", "180203.985000", "180205.475000", "180206.965000", "180208.455000", "180209.945000", "180211.435000", "180212.925000", "180214.415000", "180215.905000", "180217.395000", "180218.885000", "180220.375000", "180221.865000", "180223.355000", "180224.845000", "180226.335000", "180227.825000", "180229.315000", "180230.805000", "180232.295000", "180233.785000", "180235.275000", "180236.765000", "180238.255000", "180239.745000", "180241.235000", "180242.725000", "180244.215000", "180245.705000", "180247.195000", "180248.685000", "180250.175000", "180251.665000", "180253.155000", "180254.645000", "180256.135000", "180257.625000", "180259.115000", "180300.605000", "180302.095000", "180303.585000", "180305.075000", "180306.565000", "180308.055000", "180309.545000", "180311.035000", "180312.525000", "180314.015000", "180315.505000", "180316.995000", "180318.485000", "180319.975000", "180321.465000", "180322.955000", "180324.445000", "180325.935000", "180327.425000", "180328.915000", "180330.405000", "180331.895000", "180333.385000", "180334.875000", "180336.365000", "180337.855000", "180339.345000", "180340.835000", "180342.325000", "180343.815000", "180345.305000", "180346.795000", "180348.285000", "180349.775000", "180351.265000", "180352.755000", "180354.245000", "180355.735000", "180357.225000", "180358.715000", "180400.205000", "180401.695000", "180403.185000", "180404.675000", "180406.165000", "180407.655000", "180409.145000", "180410.635000", "180412.125000", "180413.615000", "180415.105000", "180416.595000", "180418.085000", "180419.575000", "180421.065000", "180422.555000", "180424.045000", "180425.535000", "180427.025000", "180428.515000", "180430.005000", "180431.495000", "180432.985000", "180434.475000", "180435.965000", "180437.455000", "180438.945000", "180440.435000", "180441.925000", "180443.415000", "180444.905000", "180446.395000", "180447.885000", "180449.375000", "180450.865000", "180452.355000", "180453.845000", "180455.335000", "180456.825000", "180458.315000", "180459.805000", "180501.295000", "180502.785000", "180504.275000", "180505.765000", "180507.255000", "180508.745000", "180510.235000", "180511.725000", "180513.215000", "180514.705000", "180516.195000", "180517.685000", "180519.175000", "180520.665000", "180522.155000", "180523.645000", "180525.135000", "180526.625000", "180528.115000", "180529.605000", "180531.095000", "180532.585000", "180534.075000", "180535.565000", "180537.055000", "180538.545000", "180540.035000", "180541.525000", "180543.015000", "180544.505000", "180545.995000", "180547.485000", "180548.975000", "180550.465000", "180551.955000", "180553.445000", "180554.935000", "180556.425000", "180557.915000", "180559.405000", "180600.895000", "180602.385000", "180603.875000", "180605.365000", "180606.855000", "180608.345000", "180609.835000", "180611.325000", "180612.815000", "180614.305000", "180615.795000", "180617.285000", "180618.775000", "180620.265000", "180621.755000", "180623.245000", "180624.735000", "180626.225000", "180627.715000", "180629.205000", "180630.695000", "180632.185000", "180633.675000", "180635.165000", "180636.655000", "180638.145000", "180639.635000", "180641.125000", "180642.615000", "180644.105000", "180645.595000", "180647.085000", "180648.575000", "180650.065000", "180651.555000", "180653.045000", "180654.535000", "180656.025000", "180657.515000", "180659.005000", "180700.495000", "180701.985000", "180703.475000", "180704.965000", "180706.455000", "180707.945000", "180709.435000", "180710.925000", "180712.415000", "180713.905000", "180715.395000", "180716.885000", "180718.375000", "180719.865000", "180721.355000", "180722.845000", "180724.335000", "180725.825000", "180727.315000", "180728.805000", "180730.295000", "180731.785000", "180733.275000", "180734.765000", "180736.255000", "180737.745000", "180739.235000", "180740.725000", "180742.215000", "180743.705000", "180745.195000", "180746.685000", "180748.175000", "180749.665000", "180751.155000", "180752.645000", "180754.135000", "180755.625000", "180757.115000", "180758.605000", "180800.095000", "180801.585000", "180803.075000", "180804.565000", "180806.055000", "180807.545000", "180809.035000", "180810.525000", "180812.015000", "180813.505000", "180814.995000", "180816.485000", "180817.975000", "180819.465000", "180820.955000", "180822.445000", "180823.935000", "180825.425000", "180826.915000", "180828.405000", "180829.895000", "180831.385000", "180832.875000", "180834.365000", "180835.855000", "180837.345000", "180838.835000", "180840.325000", "180841.815000", "180843.305000", "180844.795000", "180846.285000", "180847.775000", "180849.265000", "180850.755000", "180852.245000", "180853.735000", "180855.225000", "180856.715000", "180858.205000", "180859.695000", "180901.185000", "180902.675000", "180904.165000", "180905.655000", "180907.145000", "180908.635000", "180910.125000", "180911.615000", "180913.105000", "180914.595000", "180916.085000", "180917.575000", "180919.065000", "180920.555000", "180922.045000", "180923.535000", "180925.025000", "180926.515000", "180928.005000", "180929.495000", "180930.985000", "180932.475000", "180933.965000", "180935.455000", "180936.945000", "180938.435000", "180939.925000"],
      "ContentTime": ["175839.027000", "175839.037000", "175839.040000", "175839.042000", "175858.987000", "175858.990000", "175858.993000", "175858.996000", "175858.998000", "175859.002000", "175859.009000", "175859.012000", "175859.015000", "175859.018000", "175859.020000", "175859.023000", "175859.026000", "175859.029000", "175859.032000", "175859.035000", "175859.038000", "175859.040000", "175859.043000", "175859.046000", "175918.987000", "175918.990000", "175918.993000", "175918.996000", "175918.998000", "175919.002000", "175919.005000", "175919.008000", "175919.011000", "175919.014000", "175919.017000", "175919.019000", "175919.022000", "175919.025000", "175919.028000", "175919.031000", "175919.034000", "175919.037000", "175919.040000", "175919.042000", "175919.051000", "175938.987000", "175938.990000", "175938.993000", "175938.998000", "175939.001000", "175939.004000", "175939.007000", "175939.010000", "175939.012000", "175939.015000", "175939.018000", "175939.021000", "175939.024000", "175939.027000", "175939.029000", "175939.032000", "175939.035000", "175939.038000", "175939.041000", "175939.044000", "175958.986000", "175958.989000", "175958.992000", "175958.995000", "175958.997000", "175959.001000", "175959.004000", "175959.007000", "175959.010000", "175959.013000", "175959.016000", "175959.019000", "175959.022000", "175959.025000", "175959.027000", "175959.030000", "175959.033000", "175959.036000", "175959.039000", "175959.042000", "180018.986000", "180018.989000", "180018.992000", "180018.995000", "180018.998000", "180019.001000", "180019.004000", "180019.007000", "180019.010000", "180019.013000", "180019.016000", "180019.019000", "180019.022000", "180019.024000", "180019.027000", "180019.030000", "180019.033000", "180019.036000", "180019.039000", "180019.041000", "180058.987000", "180058.990000", "180058.993000", "180058.996000", "180059.000000", "180059.002000", "180059.005000", "180059.008000", "180059.011000", "180059.014000", "180059.017000", "180059.020000", "180059.023000", "180059.025000", "180059.041000", "180059.044000", "180059.047000", "180059.050000", "180059.053000", "180059.056000", "180059.059000", "180059.062000", "180059.064000", "180059.067000", "180059.070000", "180059.073000", "180059.076000", "180138.987000", "180138.990000", "180138.993000", "180138.996000", "180139.000000", "180139.003000", "180139.006000", "180139.008000", "180139.011000", "180139.014000", "180139.017000", "180139.020000", "180139.023000", "180139.026000", "180139.029000", "180139.032000", "180139.034000", "180139.037000", "180139.040000", "180139.043000", "180139.046000", "180139.049000", "180139.051000", "180139.054000", "180139.057000", "180139.060000", "180139.063000", "180218.986000", "180218.989000", "180218.992000", "180218.995000", "180218.998000", "180219.002000", "180219.011000", "180219.014000", "180219.017000", "180219.020000", "180219.023000", "180219.026000", "180219.029000", "180219.032000", "180219.035000", "180219.038000", "180219.041000", "180219.044000", "180219.046000", "180219.049000", "180219.052000", "180219.055000", "180219.058000", "180219.061000", "180219.064000", "180219.067000", "180219.070000", "180258.987000", "180258.990000", "180258.993000", "180258.996000", "180259.000000", "180259.003000", "180259.006000", "180259.009000", "180259.011000", "180259.014000", "180259.017000", "180259.020000", "180259.023000", "180259.026000", "180259.029000", "180259.032000", "180259.034000", "180259.037000", "180259.040000", "180259.043000", "180259.046000", "180259.049000", "180259.052000", "180259.055000", "180259.058000", "180259.060000", "180259.063000", "180338.987000", "180338.990000", "180338.993000", "180338.997000", "180339.001000", "180339.004000", "180339.007000", "180339.010000", "180339.013000", "180339.015000", "180339.018000", "180339.021000", "180339.024000", "180339.027000", "180339.030000", "180339.033000", "180339.036000", "180339.039000", "180339.042000", "180339.044000", "180339.047000", "180339.050000", "180339.053000", "180339.056000", "180339.059000", "180339.062000", "180339.065000", "180418.987000", "180418.990000", "180418.993000", "180418.996000", "180419.000000", "180419.003000", "180419.006000", "180419.009000", "180419.011000", "180419.014000", "180419.017000", "180419.020000", "180419.023000", "180419.026000", "180419.029000", "180419.031000", "180419.034000", "180419.037000", "180419.040000", "180419.043000", "180419.046000", "180419.049000", "180419.053000", "180419.056000", "180419.059000", "180419.062000", "180458.986000", "180458.989000", "180458.992000", "180458.995000", "180458.998000", "180459.002000", "180459.005000", "180459.007000", "180459.010000", "180459.013000", "180459.016000", "180459.019000", "180459.022000", "180459.025000", "180459.028000", "180459.031000", "180459.033000", "180459.036000", "180459.039000", "180459.042000", "180459.045000", "180459.048000", "180459.051000", "180459.054000", "180459.057000", "180459.059000", "180459.062000", "180538.987000", "180538.990000", "180538.993000", "180538.996000", "180539.000000", "180539.003000", "180539.006000", "180539.009000", "180539.011000", "180539.014000", "180539.017000", "180539.020000", "180539.023000", "180539.026000", "180539.029000", "180539.032000", "180539.036000", "180539.039000", "180539.042000", "180539.045000", "180539.048000", "180539.051000", "180539.054000", "180539.057000", "180539.059000", "180539.062000", "180539.065000", "180618.987000", "180619.000000", "180619.003000", "180619.006000", "180619.009000", "180619.012000", "180619.015000", "180619.018000", "180619.021000", "180619.024000", "180619.026000", "180619.029000", "180619.032000", "180619.035000", "180619.038000", "180619.041000", "180619.044000", "180619.047000", "180619.050000", "180619.053000", "180619.055000", "180619.058000", "180619.061000", "180619.064000", "180619.067000", "180619.070000", "180619.073000", "180658.986000", "180658.989000", "180658.992000", "180658.995000", "180658.998000", "180659.002000", "180659.005000", "180659.008000", "180659.010000", "180659.013000", "180659.016000", "180659.019000", "180659.022000", "180659.025000", "180659.028000", "180659.031000", "180659.034000", "180659.037000", "180659.039000", "180659.042000", "180659.045000", "180659.048000", "180659.051000", "180659.054000", "180659.057000", "180659.060000", "180659.063000", "180738.987000", "180738.990000", "180738.993000", "180738.996000", "180739.000000", "180739.003000", "180739.006000", "180739.009000", "180739.011000", "180739.014000", "180739.017000", "180739.020000", "180739.023000", "180739.026000", "180739.029000", "180739.032000", "180739.035000", "180739.038000", "180739.040000", "180739.043000", "180739.046000", "180739.049000", "180739.052000", "180739.055000", "180739.058000", "180739.061000", "180739.064000", "180758.987000", "180758.990000", "180758.993000", "180758.996000", "180759.000000", "180759.003000", "180759.006000", "180759.009000", "180759.012000", "180759.014000", "180759.017000", "180759.026000", "180759.029000", "180838.987000", "180838.990000", "180838.993000", "180838.996000", "180839.000000", "180839.003000", "180839.006000", "180839.009000", "180839.012000", "180839.014000", "180839.017000", "180839.020000", "180839.023000", "180839.026000", "180839.029000", "180839.032000", "180839.035000", "180839.038000", "180839.040000", "180839.043000", "180839.046000", "180839.049000", "180839.052000", "180839.055000", "180839.058000", "180839.061000", "180839.063000", "180918.986000", "180918.989000", "180918.992000", "180918.995000", "180918.998000", "180919.002000", "180919.005000", "180919.008000", "180919.010000", "180919.013000", "180919.016000", "180919.019000", "180919.022000", "180919.025000", "180919.028000", "180919.031000", "180919.034000", "180919.037000", "180919.040000", "180919.042000", "180919.045000", "180919.048000", "180919.051000", "180919.054000", "180919.057000", "180919.060000", "180919.062000", "180942.565000", "180942.569000", "180942.572000", "180942.575000", "180942.577000", "180942.580000", "180942.583000", "180942.586000", "180942.589000", "180942.592000", "180942.595000", "180942.598000", "180942.602000", "180942.605000", "180942.608000", "180942.612000"],
