{
  "AcquisitionMatrixPE": 104,
  "AcquisitionNumber": 1,
  "AcquisitionTime": "18:23:58.050000",
  "BandwidthPerPixelPhaseEncode": 17.17,
  "BaseResolution": 104,
  "BodyPartExamined": "BRAIN",
  "CoilCombinationMethod": "Sum of Squares",
  "ConsistencyInfo": "N4_VE11C_LATEST_20160120",
  "ConversionSoftware": "dcm2niix",
  "ConversionSoftwareVersion": "v1.0.20211006",
  "DerivedVendorReportedEchoSpacing": 0.000560011,
  "DeviceSerialNumber": "167006",
  "DwellTime": 2.1e-06,
  "EchoTime": 0.037,
  "EchoTrainLength": 104,
  "EffectiveEchoSpacing": 0.000560011,
  "FlipAngle": 52,
  "HeudiconvVersion": "0.11.3.post9+gc939bf8",
  "ImageComments": "Unaliased MB4/PE3/LB",
  "ImageOrientationPatientDICOM": [0.994488, 0.0994416, 0.033231, -0.0786172, 0.916951, -0.391177],
  "ImageOrientationText": "Tra>Cor(-22.8)>Sag(4.0)",
  "ImageType": [
    "ORIGINAL",
    "PRIMARY",
    "M",
    "MB",
    "ND",
    "MOSAIC"
],
  "ImagingFrequency": 123.259,
  "InPlanePhaseEncodingDirectionDICOM": "COL",
  "InstitutionAddress": "Chemin Queen-Mary 4565,Montreal,District,CA,H3W 1W5",
  "InstitutionName": "IUGM",
  "InstitutionalDepartmentName": "Department",
  "MRAcquisitionType": "2D",
  "MagneticFieldStrength": 3,
  "Manufacturer": "Siemens",
  "ManufacturersModelName": "Prisma_fit",
  "MatrixCoilMode": "SENSE",
  "Modality": "MR",
  "MultibandAccelerationFactor": 4,
  "PartialFourier": 1,
  "PatientPosition": "HFS",
  "PercentPhaseFOV": 100,
  "PercentSampling": 100,
  "PhaseEncodingDirection": "j",
  "PhaseEncodingSteps": 104,
  "PhaseResolution": 1,
  "PixelBandwidth": 2290,
  "ProcedureStepDescription": "video^friends",
  "ProtocolName": "func_task-friends-s06e12b",
  "PulseSequenceDetails": "%CustomerSeq%\\cmrr_mbep2d_bold",
  "ReceiveCoilActiveElements": "HC1-7;NC1,2",
  "ReceiveCoilName": "HeadNeck_64",
  "ReconMatrixPE": 104,
  "RepetitionTime": 1.49,
  "SAR": 0.0589364,
  "ScanOptions": "FS",
  "ScanningSequence": "EP",
  "SequenceName": "epfid2d1_104",
  "SequenceVariant": "SK\\SS",
  "SeriesDescription": "func_task-friends-s06e12b",
  "SeriesNumber": 18,
  "ShimSetting": [634, -7187, -8831, 629, 106, -47, -85, -21],
  "SliceThickness": 2,
  "SliceTiming": [0, 0.7825, 0.0975, 0.88, 0.195, 0.98, 0.2925, 1.0775, 0.39, 1.175, 0.49, 1.2725, 0.5875, 1.37, 0.685, 0, 0.7825, 0.0975, 0.88, 0.195, 0.98, 0.2925, 1.0775, 0.39, 1.175, 0.49, 1.2725, 0.5875, 1.37, 0.685, 0, 0.7825, 0.0975, 0.88, 0.195, 0.98, 0.2925, 1.0775, 0.39, 1.175, 0.49, 1.2725, 0.5875, 1.37, 0.685, 0, 0.7825, 0.0975, 0.88, 0.195, 0.98, 0.2925, 1.0775, 0.39, 1.175, 0.49, 1.2725, 0.5875, 1.37, 0.685],
  "SoftwareVersions": "syngo MR E11",
  "SpacingBetweenSlices": 2,
  "StationName": "MRC35049",
  "TaskName": "s06e12b",
  "TotalReadoutTime": 0.0576811,
  "TxRefAmp": 291.768,
  "WipMemBlock": "9250a452-3633-44e5-a3ad-859e4410d30c||Sequence: R016 ve11c/master r/e634e98; Dec 19 2017 11:00:25 by eja",
  "dcmmeta_affine": [
    [-1.9889767169952393, -0.15723446011543274, 0.13874094188213348, 106.83841705322266],
    [-0.19888320565223694, 1.8339028358459473, -0.7728168368339539, -56.75686264038086],
    [0.06646198034286499, 0.7823539972305298, 1.8394306898117065, -73.30892944335938],
    [0.0, 0.0, 0.0, 1.0]
],
  "dcmmeta_reorient_transform": [
    [0.0, -1.0, 0.0, 103.0],
    [1.0, 0.0, 0.0, 0.0],
    [0.0, 0.0, 1.0, 0.0],
    [0.0, 0.0, 0.0, 1.0]
],
  "dcmmeta_shape": [104, 104, 60, 470],
  "dcmmeta_slice_dim": 2,
  "dcmmeta_version": 0.6,
  "global": {
    "const": {
      "AcquisitionMatrix": [104, 0, 0, 104],
      "AngioFlag": "N",
      "BitsAllocated": 16,
      "BitsStored": 16,
      "BodyPartExamined": "BRAIN",
      "Columns": 832,
      "EchoNumbers": 1,
      "EchoTime": 37.0,
      "EchoTrainLength": 104,
      "FlipAngle": 52.0,
      "HighBit": 15,
      "ImageOrientationPatient": [0.99448834561529, 0.09944159926998, 0.03323099110755, -0.0786172271514, 0.91695141465442, -0.3911769864886],
      "ImagePositionPatient": [-757.39744167023, -872.06924156765, 267.85821400052],
      "ImageType": [
        "ORIGINAL",
        "PRIMARY",
        "M",
        "MB",
        "ND",
        "MOSAIC"
],
      "ImagedNucleus": "1H",
      "ImagingFrequency": 123.258839,
      "InPlanePhaseEncodingDirection": "COL",
      "MRAcquisitionType": "2D",
      "MagneticFieldStrength": 3.0,
      "Manufacturer": "SIEMENS",
      "ManufacturerModelName": "Prisma_fit",
      "Modality": "MR",
      "NumberOfAverages": 1.0,
      "NumberOfPhaseEncodingSteps": 104,
      "PercentPhaseFieldOfView": 100.0,
      "PercentSampling": 100.0,
      "PerformedProcedureStepStartTime": "170058.281000",
      "PhotometricInterpretation": "MONOCHROME2",
      "PixelBandwidth": 2290.0,
      "PixelRepresentation": 0,
      "PixelSpacing": [2.0, 2.0],
      "ProtocolName": "func_task-friends-s06e12b",
      "RepetitionTime": 1490.0,
      "Rows": 832,
      "SAR": 0.05893637906615,
      "SamplesPerPixel": 1,
      "ScanOptions": "FS",
      "ScanningSequence": "EP",
      "SequenceName": "epfid2d1_104",
      "SequenceVariant": [
        "SK",
        "SS"
],
      "SeriesDescription": "func_task-friends-s06e12b",
      "SeriesNumber": 18,
      "SeriesTime": "182514.624000",
      "SliceLocation": -38.080584192466,
      "SliceThickness": 2.0,
      "SmallestImagePixelValue": 0,
      "SoftwareVersions": "syngo MR E11",
      "SpacingBetweenSlices": 2.0000000309428,
      "SpecificCharacterSet": "ISO_IR 100",
      "StudyID": "1",
      "StudyTime": "170058.230000",
      "TransmitCoilName": "Body",
      "VariableFlipAngleFlag": "N",
      "WindowCenterWidthExplanation": "Algo1",
      "dBdt": 0.0},
    "slices": {}
  },
  "time": {
    "samples": {
      "AcquisitionNumber": [1, 2, 3, 4, 5, 6, 7, 8, 9, 10, 11, 12, 13, 14, 15, 16, 17, 18, 19, 20, 21, 22, 23, 24, 25, 26, 27, 28, 29, 30, 31, 32, 33, 34, 35, 36, 37, 38, 39, 40, 41, 42, 43, 44, 45, 46, 47, 48, 49, 50, 51, 52, 53, 54, 55, 56, 57, 58, 59, 60, 61, 62, 63, 64, 65, 66, 67, 68, 69, 70, 71, 72, 73, 74, 75, 76, 77, 78, 79, 80, 81, 82, 83, 84, 85, 86, 87, 88, 89, 90, 91, 92, 93, 94, 95, 96, 97, 98, 99, 100, 101, 102, 103, 104, 105, 106, 107, 108, 109, 110, 111, 112, 113, 114, 115, 116, 117, 118, 119, 120, 121, 122, 123, 124, 125, 126, 127, 128, 129, 130, 131, 132, 133, 134, 135, 136, 137, 138, 139, 140, 141, 142, 143, 144, 145, 146, 147, 148, 149, 150, 151, 152, 153, 154, 155, 156, 157, 158, 159, 160, 161, 162, 163, 164, 165, 166, 167, 168, 169, 170, 171, 172, 173, 174, 175, 176, 177, 178, 179, 180, 181, 182, 183, 184, 185, 186, 187, 188, 189, 190, 191, 192, 193, 194, 195, 196, 197, 198, 199, 200, 201, 202, 203, 204, 205, 206, 207, 208, 209, 210, 211, 212, 213, 214, 215, 216, 217, 218, 219, 220, 221, 222, 223, 224, 225, 226, 227, 228, 229, 230, 231, 232, 233, 234, 235, 236, 237, 238, 239, 240, 241, 242, 243, 244, 245, 246, 247, 248, 249, 250, 251, 252, 253, 254, 255, 256, 257, 258, 259, 260, 261, 262, 263, 264, 265, 266, 267, 268, 269, 270, 271, 272, 273, 274, 275, 276, 277, 278, 279, 280, 281, 282, 283, 284, 285, 286, 287, 288, 289, 290, 291, 292, 293, 294, 295, 296, 297, 298, 299, 300, 301, 302, 303, 304, 305, 306, 307, 308, 309, 310, 311, 312, 313, 314, 315, 316, 317, 318, 319, 320, 321, 322, 323, 324, 325, 326, 327, 328, 329, 330, 331, 332, 333, 334, 335, 336, 337, 338, 339, 340, 341, 342, 343, 344, 345, 346, 347, 348, 349, 350, 351, 352, 353, 354, 355, 356, 357, 358, 359, 360, 361, 362, 363, 364, 365, 366, 367, 368, 369, 370, 371, 372, 373, 374, 375, 376, 377, 378, 379, 380, 381, 382, 383, 384, 385, 386, 387, 388, 389, 390, 391, 392, 393, 394, 395, 396, 397, 398, 399, 400, 401, 402, 403, 404, 405, 406, 407, 408, 409, 410, 411, 412, 413, 414, 415, 416, 417, 418, 419, 420, 421, 422, 423, 424, 425, 426, 427, 428, 429, 430, 431, 432, 433, 434, 435, 436, 437, 438, 439, 440, 441, 442, 443, 444, 445, 446, 447, 448, 449, 450, 451, 452, 453, 454, 455, 456, 457, 458, 459, 460, 461, 462, 463, 464, 465, 466, 467, 468, 469, 470],
      "AcquisitionTime": ["182358.050000", "182359.540000", "182401.030000", "182402.520000", "182404.010000", "182405.500000", "182406.990000", "182408.480000", "182409.970000", "182411.460000", "182412.950000", "182414.440000", "182415.930000", "182417.420000", "182418.910000", "182420.400000", "182421.890000", "182423.380000", "182424.870000", "182426.360000", "182427.850000", "182429.340000", "182430.830000", "182432.320000", "182433.810000", "182435.300000", "182436.790000", "182438.280000", "182439.770000", "182441.260000", "182442.750000", "182444.240000", "182445.730000", "182447.220000", "182448.710000", "182450.200000", "182451.690000", "182453.180000", "182454.670000", "182456.160000", "182457.650000", "182459.140000", "182500.630000", "182502.120000", "182503.610000", "182505.100000", "182506.590000", "182508.080000", "182509.570000", "182511.060000", "182512.550000", "182514.040000", "182515.530000", "182517.020000", "182518.510000", "182520.000000", "182521.490000", "182522.980000", "182524.470000", "182525.960000", "182527.450000", "182528.940000", "182530.430000", "182531.920000", "182533.410000", "182534.900000", "182536.390000", "182537.880000", "182539.370000", "182540.860000", "182542.350000", "182543.840000", "182545.330000", "182546.820000", "182548.310000", "182549.800000", "182551.290000", "182552.780000", "182554.270000", "182555.760000", "182557.250000", "182558.740000", "182600.230000", "182601.720000", "182603.210000", "182604.700000", "182606.190000", "182607.680000", "182609.170000", "182610.660000", "182612.150000", "182613.640000", "182615.130000", "182616.620000", "182618.110000", "182619.600000", "182621.090000", "182622.580000", "182624.070000", "182625.560000", "182627.050000", "182628.540000", "182630.030000", "182631.520000", "182633.010000", "182634.500000", "182635.990000", "182637.480000", "182638.970000", "182640.460000", "182641.950000", "182643.440000", "182644.930000", "182646.420000", "182647.910000", "182649.400000", "182650.890000", "182652.380000", "182653.870000", "182655.360000", "182656.850000", "182658.340000", "182659.830000", "182701.320000", "182702.810000", "182704.300000", "182705.790000", "182707.280000", "182708.770000", "182710.260000", "182711.750000", "182713.240000", "182714.730000", "182716.220000", "182717.710000", "182719.200000", "182720.690000", "182722.180000", "182723.670000", "182725.160000", "182726.650000", "182728.140000", "182729.630000", "182731.120000", "182732.610000", "182734.100000", "182735.590000", "182737.080000", "182738.570000", "182740.060000", "182741.550000", "182743.040000", "182744.530000", "182746.020000", "182747.510000", "182749.000000", "182750.490000", "182751.980000", "182753.470000", "182754.960000", "182756.450000", "182757.940000", "182759.430000", "182800.920000", "182802.410000", "182803.900000", "182805.390000", "182806.880000", "182808.370000", "182809.860000", "182811.350000", "182812.840000", "182814.330000", "182815.820000", "182817.310000", "182818.800000", "182820.290000", "182821.780000", "182823.270000", "182824.760000", "182826.250000", "182827.740000", "182829.230000", "182830.720000", "182832.210000", "182833.700000", "182835.190000", "182836.680000", "182838.170000", "182839.660000", "182841.150000", "182842.640000", "182844.130000", "182845.620000", "182847.110000", "182848.600000", "182850.090000", "182851.580000", "182853.070000", "182854.560000", "182856.050000", "182857.540000", "182859.030000", "182900.520000", "182902.010000", "182903.500000", "182904.990000", "182906.480000", "182907.970000", "182909.460000", "182910.950000", "182912.440000", "182913.930000", "182915.420000", "182916.910000", "182918.400000", "182919.890000", "182921.380000", "182922.870000", "182924.360000", "182925.850000", "182927.340000", "182928.830000", "182930.320000", "182931.810000", "182933.300000", "182934.790000", "182936.280000", "182937.770000", "182939.260000", "182940.750000", "182942.240000", "182943.730000", "182945.220000", "182946.710000", "182948.200000", "182949.690000", "182951.180000", "182952.670000", "182954.160000", "182955.650000", "182957.140000", "182958.630000", "183000.120000", "183001.610000", "183003.100000", "183004.590000", "183006.080000", "183007.570000", "183009.060000", "183010.550000", "183012.040000", "183013.530000", "183015.020000", "183016.510000", "183018.000000", "183019.490000", "183020.980000", "183022.470000", "183023.960000", "183025.450000", "183026.940000", "183028.430000", "183029.920000", "183031.410000", "183032.900000", "183034.390000", "183035.880000", "183037.370000", "183038.860000", "183040.350000", "183041.840000", "183043.330000", "183044.820000", "183046.310000", "183047.800000", "183049.290000", "183050.780000", "183052.270000", "183053.760000", "183055.250000", "183056.740000", "183058.230000", "183059.720000", "183101.210000", "183102.700000", "183104.190000", "183105.680000", "183107.170000", "183108.660000", "183110.150000", "183111.640000", "183113.130000", "183114.620000", "183116.110000", "183117.600000", "183119.090000", "183120.580000", "183122.070000", "183123.560000", "183125.050000", "183126.540000", "183128.030000", "183129.520000", "183131.010000", "183132.500000", "183133.990000", "183135.480000", "183136.970000", "183138.460000", "183139.950000", "183141.440000", "183142.930000", "183144.420000", "183145.910000", "183147.400000", "183148.890000", "183150.380000", "183151.870000", "183153.360000", "183154.850000", "183156.340000", "183157.830000", "183159.320000", "183200.810000", "183202.300000", "183203.790000", "183205.280000", "183206.770000", "183208.260000", "183209.750000", "183211.240000", "183212.730000", "183214.220000", "183215.710000", "183217.200000", "183218.690000", "183220.180000", "183221.670000", "183223.160000", "183224.650000", "183226.140000", "183227.630000", "183229.120000", "183230.610000", "183232.100000", "183233.590000", "183235.080000", "183236.570000", "183238.060000", "183239.550000", "183241.040000", "183242.530000", "183244.020000", "183245.510000", "183247.000000", "183248.490000", "183249.980000", "183251.470000", "183252.960000", "183254.450000", "183255.940000", "183257.430000", "183258.920000", "183300.410000", "183301.900000", "183303.390000", "183304.880000", "183306.370000", "183307.860000", "183309.350000", "183310.840000", "183312.330000", "183313.820000", "183315.310000", "183316.800000", "183318.290000", "183319.780000", "183321.270000", "183322.760000", "183324.250000", "183325.740000", "183327.230000", "183328.720000", "183330.210000", "183331.700000", "183333.190000", "183334.680000", "183336.170000", "183337.660000", "183339.150000", "183340.640000", "183342.130000", "183343.620000", "183345.110000", "183346.600000", "183348.090000", "183349.580000", "183351.070000", "183352.560000", "183354.050000", "183355.540000", "183357.030000", "183358.520000", "183400.010000", "183401.500000", "183402.990000", "183404.480000", "183405.970000", "183407.460000", "183408.950000", "183410.440000", "183411.930000", "183413.420000", "183414.910000", "183416.400000", "183417.890000", "183419.380000", "183420.870000", "183422.360000", "183423.850000", "183425.340000", "183426.830000", "183428.320000", "183429.810000", "183431.300000", "183432.790000", "183434.280000", "183435.770000", "183437.260000", "183438.750000", "183440.240000", "183441.730000", "183443.220000", "183444.710000", "183446.200000", "183447.690000", "183449.180000", "183450.670000", "183452.160000", "183453.650000", "183455.140000", "183456.630000", "183458.120000", "183459.610000", "183501.100000", "183502.590000", "183504.080000", "183505.570000", "183507.060000", "183508.550000", "183510.040000", "183511.530000", "183513.020000", "183514.510000", "183516.000000", "183517.490000", "183518.980000", "183520.470000", "183521.960000", "183523.450000", "183524.940000", "183526.430000", "183527.920000", "183529.410000", "183530.900000", "183532.390000", "183533.880000", "183535.370000", "183536.860000"],
      "ContentTime": ["182514.627000", "182514.630000", "182514.633000", "182514.636000", "182514.639000", "182514.642000", "182514.645000", "182514.648000", "182514.650000", "182514.653000", "182514.656000", "182514.659000", "182514.662000", "182514.665000", "182514.668000", "182514.671000", "182514.674000", "182514.676000", "182514.679000", "182514.682000", "182514.685000", "182514.688000", "182514.691000", "182534.594000", "182534.597000", "182534.600000", "182534.602000", "182534.605000", "182534.608000", "182534.614000", "182534.617000", "182534.620000", "182534.623000", "182534.625000", "182534.628000", "182534.631000", "182534.634000", "182534.637000", "182534.640000", "182534.643000", "182534.646000", "182534.649000", "182534.652000", "182534.655000", "182554.594000", "182554.597000", "182554.600000", "182554.603000", "182554.605000", "182554.608000", "182554.611000", "182554.614000", "182554.617000", "182554.620000", "182554.623000", "182554.631000", "182554.633000", "182554.636000", "182554.639000", "182554.642000", "182554.645000", "182554.648000", "182554.650000", "182554.653000", "182614.594000", "182614.597000", "182614.600000", "182614.603000", "182614.606000", "182614.608000", "182614.611000", "182614.614000", "182614.617000", "182614.620000", "182614.623000", "182614.626000", "182614.628000", "182614.631000", "182614.634000", "182614.637000", "182614.640000", "182614.643000", "182614.646000", "182614.648000", "182634.594000", "182634.597000", "182634.600000", "182634.603000", "182634.606000", "182634.608000", "182634.611000", "182634.614000", "182634.617000", "182634.620000", "182634.623000", "182634.626000", "182634.628000", "182634.631000", "182634.634000", "182634.637000", "182634.640000", "182634.643000", "182634.646000", "182634.648000", "182714.594000", "182714.597000", "182714.600000", "182714.603000", "182714.606000", "182714.609000", "182714.611000", "182714.614000", "182714.617000", "182714.620000", "182714.623000", "182714.626000", "182714.629000", "182714.631000", "182714.634000", "182714.645000", "182714.648000", "182714.651000", "182714.654000", "182714.657000", "182714.659000", "182714.662000", "182714.665000", "182714.668000", "182714.682000", "182714.685000", "182714.687000", "182754.594000", "182754.597000", "182754.600000", "182754.603000", "182754.606000", "182754.609000", "182754.612000", "182754.614000", "182754.617000", "182754.620000", "182754.623000", "182754.626000", "182754.629000", "182754.632000", "182754.634000", "182754.637000", "182754.640000", "182754.643000", "182754.646000", "182754.649000", "182754.652000", "182754.654000", "182754.657000", "182754.660000", "182754.663000", "182754.666000", "182754.669000", "182834.594000", "182834.597000", "182834.600000", "182834.603000", "182834.606000", "182834.609000", "182834.612000", "182834.614000", "182834.617000", "182834.620000", "182834.623000", "182834.626000", "182834.629000", "182834.632000", "182834.635000", "182834.638000", "182834.640000", "182834.643000", "182834.646000", "182834.649000", "182834.652000", "182834.655000", "182834.658000", "182834.660000", "182834.663000", "182834.666000", "182834.669000", "182914.594000", "182914.597000", "182914.600000", "182914.603000", "182914.606000", "182914.609000", "182914.611000", "182914.614000", "182914.617000", "182914.620000", "182914.623000", "182914.626000", "182914.629000", "182914.632000", "182914.634000", "182914.637000", "182914.640000", "182914.643000", "182914.646000", "182914.649000", "182914.652000", "182914.655000", "182914.658000", "182914.660000", "182914.663000", "182914.666000", "182914.669000", "182954.594000", "182954.597000", "182954.600000", "182954.603000", "182954.606000", "182954.609000", "182954.612000", "182954.614000", "182954.617000", "182954.620000", "182954.623000", "182954.626000", "182954.629000", "182954.632000", "182954.635000", "182954.638000", "182954.641000", "182954.643000", "182954.646000", "182954.649000", "182954.652000", "182954.655000", "182954.658000", "182954.661000", "182954.664000", "182954.666000", "182954.669000", "183034.594000", "183034.597000", "183034.600000", "183034.611000", "183034.614000", "183034.617000", "183034.620000", "183034.623000", "183034.625000", "183034.628000", "183034.631000", "183034.634000", "183034.637000", "183034.640000", "183034.643000", "183034.646000", "183034.649000", "183034.652000", "183034.654000", "183034.657000", "183034.660000", "183034.663000", "183034.666000", "183034.669000", "183034.672000", "183034.675000", "183114.594000", "183114.597000", "183114.600000", "183114.603000", "183114.606000", "183114.609000", "183114.612000", "183114.615000", "183114.617000", "183114.620000", "183114.623000", "183114.626000", "183114.629000", "183114.632000", "183114.635000", "183114.638000", "183114.641000", "183114.643000", "183114.646000", "183114.649000", "183114.652000", "183114.655000", "183114.658000", "183114.661000", "183114.664000", "183114.667000", "183114.669000", "183154.594000", "183154.597000", "183154.600000", "183154.603000", "183154.606000", "183154.609000", "183154.612000", "183154.615000", "183154.617000", "183154.620000", "183154.623000", "183154.626000", "183154.629000", "183154.632000", "183154.635000", "183154.638000", "183154.657000", "183154.660000", "183154.663000", "183154.666000", "183154.669000", "183154.672000", "183154.674000", "183154.677000", "183154.680000", "183154.683000", "183154.686000", "183234.594000", "183234.597000", "183234.600000", "183234.603000", "183234.606000", "183234.609000", "183234.612000", "183234.614000", "183234.617000", "183234.620000", "183234.623000", "183234.626000", "183234.629000", "183234.632000", "183234.635000", "183234.638000", "183234.641000", "183234.644000", "183234.646000", "183234.649000", "183234.652000", "183234.655000", "183234.658000", "183234.661000", "183234.664000", "183234.667000", "183234.670000", "183314.594000", "183314.597000", "183314.600000", "183314.603000", "183314.606000", "183314.609000", "183314.612000", "183314.615000", "183314.618000", "183314.621000", "183314.623000", "183314.626000", "183314.629000", "183314.632000", "183314.635000", "183314.638000", "183314.641000", "183314.644000", "183314.647000", "183314.649000", "183314.652000", "183314.655000", "183314.658000", "183314.661000", "183314.664000", "183314.667000", "183314.670000", "183354.594000", "183354.597000", "183354.600000", "183354.603000", "183354.606000", "183354.609000", "183354.612000", "183354.615000", "183354.617000", "183354.620000", "183354.623000", "183354.637000", "183354.640000", "183354.643000", "183354.646000", "183354.649000", "183354.652000", "183354.654000", "183354.657000", "183354.660000", "183354.663000", "183354.666000", "183354.669000", "183354.672000", "183354.675000", "183354.677000", "183354.680000", "183434.594000", "183434.597000", "183434.600000", "183434.603000", "183434.606000", "183434.608000", "183434.611000", "183434.614000", "183434.617000", "183434.620000", "183434.623000", "183434.626000", "183434.629000", "183434.632000", "183434.634000", "183434.637000", "183434.640000", "183434.643000", "183434.646000", "183434.649000", "183434.652000", "183434.655000", "183434.658000", "183434.661000", "183434.663000", "183434.666000", "183434.669000", "183514.594000", "183514.597000", "183514.600000", "183514.603000", "183514.606000", "183514.609000", "183514.612000", "183514.615000", "183514.617000", "183514.620000", "183514.623000", "183514.626000", "183514.629000", "183514.632000", "183514.635000", "183514.638000", "183514.641000", "183514.643000", "183514.646000", "183514.649000", "183514.652000", "183514.655000", "183514.658000", "183514.661000", "183514.664000", "183514.666000", "183538.702000", "183538.705000", "183538.708000", "183538.711000", "183538.714000", "183538.716000", "183538.719000", "183538.722000", "183538.725000", "183538.728000", "183538.731000", "183538.734000", "183538.737000", "183538.740000", "183538.743000", "183538.745000", "183538.748000"],
