{
  "AcquisitionMatrixPE": 104,
  "AcquisitionNumber": 1,
  "AcquisitionTime": "17:31:1.820000",
  "BandwidthPerPixelPhaseEncode": 17.17,
  "BaseResolution": 104,
  "BodyPartExamined": "BRAIN",
  "CoilCombinationMethod": "Sum of Squares",
  "ConsistencyInfo": "N4_VE11C_LATEST_20160120",
  "ConversionSoftware": "dcm2niix",
  "ConversionSoftwareVersion": "v1.0.20211006",
  "DerivedVendorReportedEchoSpacing": 0.000560011,
  "DeviceSerialNumber": "167006",
  "DwellTime": 2.1e-06,
  "EchoTime": 0.037,
  "EchoTrainLength": 104,
  "EffectiveEchoSpacing": 0.000560011,
  "FlipAngle": 52,
  "HeudiconvVersion": "0.11.3.post9+gc939bf8",
  "ImageComments": "Unaliased MB4/PE3/LB",
  "ImageOrientationPatientDICOM": [0.994488, 0.0994416, 0.033231, -0.0786172, 0.916951, -0.391177],
  "ImageOrientationText": "Tra>Cor(-22.8)>Sag(4.0)",
  "ImageType": [
    "ORIGINAL",
    "PRIMARY",
    "M",
    "MB",
    "ND",
    "MOSAIC"
],
  "ImagingFrequency": 123.259,
  "InPlanePhaseEncodingDirectionDICOM": "COL",
  "InstitutionAddress": "Chemin Queen-Mary 4565,Montreal,District,CA,H3W 1W5",
  "InstitutionName": "IUGM",
  "InstitutionalDepartmentName": "Department",
  "MRAcquisitionType": "2D",
  "MagneticFieldStrength": 3,
  "Manufacturer": "Siemens",
  "ManufacturersModelName": "Prisma_fit",
  "MatrixCoilMode": "SENSE",
  "Modality": "MR",
  "MultibandAccelerationFactor": 4,
  "PartialFourier": 1,
  "PatientPosition": "HFS",
  "PercentPhaseFOV": 100,
  "PercentSampling": 100,
  "PhaseEncodingDirection": "j",
  "PhaseEncodingSteps": 104,
  "PhaseResolution": 1,
  "PixelBandwidth": 2290,
  "ProcedureStepDescription": "video^friends",
  "ProtocolName": "func_task-friends-s06e10b",
  "PulseSequenceDetails": "%CustomerSeq%\\cmrr_mbep2d_bold",
  "ReceiveCoilActiveElements": "HC1-7;NC1,2",
  "ReceiveCoilName": "HeadNeck_64",
  "ReconMatrixPE": 104,
  "RepetitionTime": 1.49,
  "SAR": 0.0589513,
  "ScanOptions": "FS",
  "ScanningSequence": "EP",
  "SequenceName": "epfid2d1_104",
  "SequenceVariant": "SK\\SS",
  "SeriesDescription": "func_task-friends-s06e10b",
  "SeriesNumber": 10,
  "ShimSetting": [634, -7187, -8831, 629, 106, -47, -85, -21],
  "SliceThickness": 2,
  "SliceTiming": [0, 0.7825, 0.0975, 0.88, 0.195, 0.98, 0.2925, 1.0775, 0.39, 1.175, 0.49, 1.2725, 0.5875, 1.37, 0.685, 0, 0.7825, 0.0975, 0.88, 0.195, 0.98, 0.2925, 1.0775, 0.39, 1.175, 0.49, 1.2725, 0.5875, 1.37, 0.685, 0, 0.7825, 0.0975, 0.88, 0.195, 0.98, 0.2925, 1.0775, 0.39, 1.175, 0.49, 1.2725, 0.5875, 1.37, 0.685, 0, 0.7825, 0.0975, 0.88, 0.195, 0.98, 0.2925, 1.0775, 0.39, 1.175, 0.49, 1.2725, 0.5875, 1.37, 0.685],
  "SoftwareVersions": "syngo MR E11",
  "SpacingBetweenSlices": 2,
  "StationName": "MRC35049",
  "TaskName": "s06e10b",
  "TotalReadoutTime": 0.0576811,
  "TxRefAmp": 291.768,
  "WipMemBlock": "28e00e1f-18fa-4ddd-b9f5-258929064221||Sequence: R016 ve11c/master r/e634e98; Dec 19 2017 11:00:25 by eja",
  "dcmmeta_affine": [
    [-1.9889767169952393, -0.15723446011543274, 0.13874094188213348, 106.83841705322266],
    [-0.19888320565223694, 1.8339028358459473, -0.7728168368339539, -56.75686264038086],
    [0.06646198034286499, 0.7823539972305298, 1.8394306898117065, -73.30892944335938],
    [0.0, 0.0, 0.0, 1.0]
],
  "dcmmeta_reorient_transform": [
    [0.0, -1.0, 0.0, 103.0],
    [1.0, 0.0, 0.0, 0.0],
    [0.0, 0.0, 1.0, 0.0],
    [0.0, 0.0, 0.0, 1.0]
],
  "dcmmeta_shape": [104, 104, 60, 500],
  "dcmmeta_slice_dim": 2,
  "dcmmeta_version": 0.6,
  "global": {
    "const": {
      "AcquisitionMatrix": [104, 0, 0, 104],
      "AngioFlag": "N",
      "BitsAllocated": 16,
      "BitsStored": 16,
      "BodyPartExamined": "BRAIN",
      "Columns": 832,
      "EchoNumbers": 1,
      "EchoTime": 37.0,
      "EchoTrainLength": 104,
      "FlipAngle": 52.0,
      "HighBit": 15,
      "ImageOrientationPatient": [0.99448834561529, 0.09944159926998, 0.03323099110755, -0.0786172271514, 0.91695141465442, -0.3911769864886],
      "ImagePositionPatient": [-757.39744167023, -872.06924156765, 267.85821400052],
      "ImageType": [
        "ORIGINAL",
        "PRIMARY",
        "M",
        "MB",
        "ND",
        "MOSAIC"
],
      "ImagedNucleus": "1H",
      "ImagingFrequency": 123.258815,
      "InPlanePhaseEncodingDirection": "COL",
      "MRAcquisitionType": "2D",
      "MagneticFieldStrength": 3.0,
      "Manufacturer": "SIEMENS",
      "ManufacturerModelName": "Prisma_fit",
      "Modality": "MR",
      "NumberOfAverages": 1.0,
      "NumberOfPhaseEncodingSteps": 104,
      "PercentPhaseFieldOfView": 100.0,
      "PercentSampling": 100.0,
      "PerformedProcedureStepStartTime": "170058.281000",
      "PhotometricInterpretation": "MONOCHROME2",
      "PixelBandwidth": 2290.0,
      "PixelRepresentation": 0,
      "PixelSpacing": [2.0, 2.0],
      "ProtocolName": "func_task-friends-s06e10b",
      "RepetitionTime": 1490.0,
      "Rows": 832,
      "SAR": 0.05895125632075,
      "SamplesPerPixel": 1,
      "ScanOptions": "FS",
      "ScanningSequence": "EP",
      "SequenceName": "epfid2d1_104",
      "SequenceVariant": [
        "SK",
        "SS"
],
      "SeriesDescription": "func_task-friends-s06e10b",
      "SeriesNumber": 10,
      "SeriesTime": "173217.042000",
      "SliceLocation": -38.080584192466,
      "SliceThickness": 2.0,
      "SmallestImagePixelValue": 0,
      "SoftwareVersions": "syngo MR E11",
      "SpacingBetweenSlices": 2.0000000309428,
      "SpecificCharacterSet": "ISO_IR 100",
      "StudyID": "1",
      "StudyTime": "170058.230000",
      "TransmitCoilName": "Body",
      "VariableFlipAngleFlag": "N",
      "WindowCenterWidthExplanation": "Algo1",
      "dBdt": 0.0},
    "slices": {}
  },
  "time": {
    "samples": {
      "AcquisitionNumber": [1, 2, 3, 4, 5, 6, 7, 8, 9, 10, 11, 12, 13, 14, 15, 16, 17, 18, 19, 20, 21, 22, 23, 24, 25, 26, 27, 28, 29, 30, 31, 32, 33, 34, 35, 36, 37, 38, 39, 40, 41, 42, 43, 44, 45, 46, 47, 48, 49, 50, 51, 52, 53, 54, 55, 56, 57, 58, 59, 60, 61, 62, 63, 64, 65, 66, 67, 68, 69, 70, 71, 72, 73, 74, 75, 76, 77, 78, 79, 80, 81, 82, 83, 84, 85, 86, 87, 88, 89, 90, 91, 92, 93, 94, 95, 96, 97, 98, 99, 100, 101, 102, 103, 104, 105, 106, 107, 108, 109, 110, 111, 112, 113, 114, 115, 116, 117, 118, 119, 120, 121, 122, 123, 124, 125, 126, 127, 128, 129, 130, 131, 132, 133, 134, 135, 136, 137, 138, 139, 140, 141, 142, 143, 144, 145, 146, 147, 148, 149, 150, 151, 152, 153, 154, 155, 156, 157, 158, 159, 160, 161, 162, 163, 164, 165, 166, 167, 168, 169, 170, 171, 172, 173, 174, 175, 176, 177, 178, 179, 180, 181, 182, 183, 184, 185, 186, 187, 188, 189, 190, 191, 192, 193, 194, 195, 196, 197, 198, 199, 200, 201, 202, 203, 204, 205, 206, 207, 208, 209, 210, 211, 212, 213, 214, 215, 216, 217, 218, 219, 220, 221, 222, 223, 224, 225, 226, 227, 228, 229, 230, 231, 232, 233, 234, 235, 236, 237, 238, 239, 240, 241, 242, 243, 244, 245, 246, 247, 248, 249, 250, 251, 252, 253, 254, 255, 256, 257, 258, 259, 260, 261, 262, 263, 264, 265, 266, 267, 268, 269, 270, 271, 272, 273, 274, 275, 276, 277, 278, 279, 280, 281, 282, 283, 284, 285, 286, 287, 288, 289, 290, 291, 292, 293, 294, 295, 296, 297, 298, 299, 300, 301, 302, 303, 304, 305, 306, 307, 308, 309, 310, 311, 312, 313, 314, 315, 316, 317, 318, 319, 320, 321, 322, 323, 324, 325, 326, 327, 328, 329, 330, 331, 332, 333, 334, 335, 336, 337, 338, 339, 340, 341, 342, 343, 344, 345, 346, 347, 348, 349, 350, 351, 352, 353, 354, 355, 356, 357, 358, 359, 360, 361, 362, 363, 364, 365, 366, 367, 368, 369, 370, 371, 372, 373, 374, 375, 376, 377, 378, 379, 380, 381, 382, 383, 384, 385, 386, 387, 388, 389, 390, 391, 392, 393, 394, 395, 396, 397, 398, 399, 400, 401, 402, 403, 404, 405, 406, 407, 408, 409, 410, 411, 412, 413, 414, 415, 416, 417, 418, 419, 420, 421, 422, 423, 424, 425, 426, 427, 428, 429, 430, 431, 432, 433, 434, 435, 436, 437, 438, 439, 440, 441, 442, 443, 444, 445, 446, 447, 448, 449, 450, 451, 452, 453, 454, 455, 456, 457, 458, 459, 460, 461, 462, 463, 464, 465, 466, 467, 468, 469, 470, 471, 472, 473, 474, 475, 476, 477, 478, 479, 480, 481, 482, 483, 484, 485, 486, 487, 488, 489, 490, 491, 492, 493, 494, 495, 496, 497, 498, 499, 500],
      "AcquisitionTime": ["173101.820000", "173103.310000", "173104.800000", "173106.290000", "173107.780000", "173109.270000", "173110.760000", "173112.250000", "173113.740000", "173115.230000", "173116.720000", "173118.210000", "173119.700000", "173121.190000", "173122.680000", "173124.170000", "173125.660000", "173127.150000", "173128.640000", "173130.130000", "173131.620000", "173133.110000", "173134.600000", "173136.090000", "173137.580000", "173139.070000", "173140.560000", "173142.050000", "173143.540000", "173145.030000", "173146.520000", "173148.010000", "173149.500000", "173150.990000", "173152.480000", "173153.970000", "173155.460000", "173156.950000", "173158.440000", "173159.930000", "173201.420000", "173202.910000", "173204.400000", "173205.890000", "173207.380000", "173208.870000", "173210.360000", "173211.850000", "173213.340000", "173214.830000", "173216.320000", "173217.810000", "173219.300000", "173220.790000", "173222.280000", "173223.770000", "173225.260000", "173226.750000", "173228.240000", "173229.730000", "173231.220000", "173232.710000", "173234.200000", "173235.690000", "173237.180000", "173238.670000", "173240.160000", "173241.650000", "173243.140000", "173244.630000", "173246.120000", "173247.610000", "173249.100000", "173250.590000", "173252.080000", "173253.570000", "173255.060000", "173256.550000", "173258.040000", "173259.530000", "173301.020000", "173302.510000", "173304.000000", "173305.490000", "173306.980000", "173308.470000", "173309.960000", "173311.450000", "173312.940000", "173314.430000", "173315.920000", "173317.410000", "173318.900000", "173320.390000", "173321.880000", "173323.370000", "173324.860000", "173326.350000", "173327.840000", "173329.330000", "173330.820000", "173332.310000", "173333.800000", "173335.290000", "173336.780000", "173338.270000", "173339.760000", "173341.250000", "173342.740000", "173344.230000", "173345.720000", "173347.210000", "173348.700000", "173350.190000", "173351.680000", "173353.170000", "173354.660000", "173356.150000", "173357.640000", "173359.130000", "173400.620000", "173402.110000", "173403.600000", "173405.090000", "173406.580000", "173408.070000", "173409.560000", "173411.050000", "173412.540000", "173414.030000", "173415.520000", "173417.010000", "173418.500000", "173419.990000", "173421.480000", "173422.970000", "173424.460000", "173425.950000", "173427.440000", "173428.930000", "173430.420000", "173431.910000", "173433.400000", "173434.890000", "173436.380000", "173437.870000", "173439.360000", "173440.850000", "173442.340000", "173443.830000", "173445.320000", "173446.810000", "173448.300000", "173449.790000", "173451.280000", "173452.770000", "173454.260000", "173455.750000", "173457.240000", "173458.730000", "173500.220000", "173501.710000", "173503.200000", "173504.690000", "173506.180000", "173507.670000", "173509.160000", "173510.650000", "173512.140000", "173513.630000", "173515.120000", "173516.610000", "173518.100000", "173519.590000", "173521.080000", "173522.570000", "173524.060000", "173525.550000", "173527.040000", "173528.530000", "173530.020000", "173531.510000", "173533.000000", "173534.490000", "173535.980000", "173537.470000", "173538.960000", "173540.450000", "173541.940000", "173543.430000", "173544.920000", "173546.410000", "173547.900000", "173549.390000", "173550.880000", "173552.370000", "173553.860000", "173555.350000", "173556.840000", "173558.330000", "173559.820000", "173601.310000", "173602.800000", "173604.290000", "173605.780000", "173607.270000", "173608.760000", "173610.250000", "173611.740000", "173613.230000", "173614.720000", "173616.210000", "173617.700000", "173619.190000", "173620.680000", "173622.170000", "173623.660000", "173625.150000", "173626.640000", "173628.130000", "173629.620000", "173631.110000", "173632.600000", "173634.090000", "173635.580000", "173637.070000", "173638.560000", "173640.050000", "173641.540000", "173643.030000", "173644.520000", "173646.010000", "173647.500000", "173648.990000", "173650.480000", "173651.970000", "173653.460000", "173654.950000", "173656.440000", "173657.930000", "173659.420000", "173700.910000", "173702.400000", "173703.890000", "173705.380000", "173706.870000", "173708.360000", "173709.850000", "173711.340000", "173712.830000", "173714.320000", "173715.810000", "173717.300000", "173718.790000", "173720.280000", "173721.770000", "173723.260000", "173724.750000", "173726.240000", "173727.730000", "173729.220000", "173730.710000", "173732.200000", "173733.690000", "173735.180000", "173736.670000", "173738.160000", "173739.650000", "173741.140000", "173742.630000", "173744.120000", "173745.610000", "173747.100000", "173748.590000", "173750.080000", "173751.570000", "173753.060000", "173754.550000", "173756.040000", "173757.530000", "173759.020000", "173800.510000", "173802.000000", "173803.490000", "173804.980000", "173806.470000", "173807.960000", "173809.450000", "173810.940000", "173812.430000", "173813.920000", "173815.410000", "173816.900000", "173818.390000", "173819.880000", "173821.370000", "173822.860000", "173824.350000", "173825.840000", "173827.330000", "173828.820000", "173830.310000", "173831.800000", "173833.290000", "173834.780000", "173836.270000", "173837.760000", "173839.250000", "173840.740000", "173842.230000", "173843.720000", "173845.210000", "173846.700000", "173848.190000", "173849.680000", "173851.170000", "173852.660000", "173854.150000", "173855.640000", "173857.130000", "173858.620000", "173900.110000", "173901.600000", "173903.090000", "173904.580000", "173906.070000", "173907.560000", "173909.050000", "173910.540000", "173912.030000", "173913.520000", "173915.010000", "173916.500000", "173917.990000", "173919.480000", "173920.970000", "173922.460000", "173923.950000", "173925.440000", "173926.930000", "173928.420000", "173929.910000", "173931.400000", "173932.890000", "173934.380000", "173935.870000", "173937.360000", "173938.850000", "173940.340000", "173941.830000", "173943.320000", "173944.810000", "173946.300000", "173947.790000", "173949.280000", "173950.770000", "173952.260000", "173953.750000", "173955.240000", "173956.730000", "173958.220000", "173959.710000", "174001.200000", "174002.690000", "174004.180000", "174005.670000", "174007.160000", "174008.650000", "174010.140000", "174011.630000", "174013.120000", "174014.610000", "174016.100000", "174017.590000", "174019.080000", "174020.570000", "174022.060000", "174023.550000", "174025.040000", "174026.530000", "174028.020000", "174029.510000", "174031.000000", "174032.490000", "174033.980000", "174035.470000", "174036.960000", "174038.450000", "174039.940000", "174041.430000", "174042.920000", "174044.410000", "174045.900000", "174047.390000", "174048.880000", "174050.370000", "174051.860000", "174053.350000", "174054.840000", "174056.330000", "174057.820000", "174059.310000", "174100.800000", "174102.290000", "174103.780000", "174105.270000", "174106.760000", "174108.250000", "174109.740000", "174111.230000", "174112.720000", "174114.210000", "174115.700000", "174117.190000", "174118.680000", "174120.170000", "174121.660000", "174123.150000", "174124.640000", "174126.130000", "174127.620000", "174129.110000", "174130.600000", "174132.090000", "174133.580000", "174135.070000", "174136.560000", "174138.050000", "174139.540000", "174141.030000", "174142.520000", "174144.010000", "174145.500000", "174146.990000", "174148.480000", "174149.970000", "174151.460000", "174152.950000", "174154.440000", "174155.930000", "174157.420000", "174158.910000", "174200.400000", "174201.890000", "174203.380000", "174204.870000", "174206.360000", "174207.850000", "174209.340000", "174210.830000", "174212.320000", "174213.810000", "174215.300000", "174216.790000", "174218.280000", "174219.770000", "174221.260000", "174222.750000", "174224.240000", "174225.730000", "174227.220000", "174228.710000", "174230.200000", "174231.690000", "174233.180000", "174234.670000", "174236.160000", "174237.650000", "174239.140000", "174240.630000", "174242.120000", "174243.610000", "174245.100000", "174246.590000", "174248.080000", "174249.570000", "174251.060000", "174252.550000", "174254.040000", "174255.530000", "174257.020000", "174258.510000", "174300.000000", "174301.490000", "174302.980000", "174304.470000", "174305.960000", "174307.450000", "174308.940000", "174310.430000", "174311.920000", "174313.410000", "174314.900000", "174316.390000", "174317.880000", "174319.370000", "174320.860000", "174322.350000", "174323.840000", "174325.330000"],
      "ContentTime": ["173217.044000", "173217.048000", "173217.051000", "173217.054000", "173217.056000", "173217.065000", "173217.068000", "173217.070000", "173217.073000", "173217.076000", "173217.079000", "173217.082000", "173217.085000", "173217.088000", "173217.090000", "173217.093000", "173217.096000", "173217.099000", "173217.102000", "173217.105000", "173237.008000", "173237.011000", "173237.014000", "173237.017000", "173237.019000", "173237.022000", "173237.025000", "173237.028000", "173237.031000", "173237.034000", "173237.037000", "173237.039000", "173237.042000", "173237.045000", "173237.048000", "173237.051000", "173237.054000", "173237.057000", "173237.059000", "173237.062000", "173257.009000", "173257.012000", "173257.015000", "173257.018000", "173257.021000", "173257.023000", "173257.026000", "173257.029000", "173257.032000", "173257.035000", "173257.038000", "173257.040000", "173257.044000", "173257.046000", "173257.056000", "173257.059000", "173257.062000", "173257.065000", "173257.068000", "173257.071000", "173317.010000", "173317.014000", "173317.016000", "173317.019000", "173317.022000", "173317.025000", "173317.028000", "173317.031000", "173317.034000", "173317.037000", "173317.040000", "173317.042000", "173317.045000", "173317.048000", "173317.051000", "173317.054000", "173317.057000", "173317.059000", "173317.062000", "173317.065000", "173337.009000", "173337.012000", "173337.015000", "173337.018000", "173337.020000", "173337.023000", "173337.026000", "173337.029000", "173337.032000", "173337.035000", "173337.037000", "173337.040000", "173337.043000", "173337.046000", "173337.049000", "173337.052000", "173337.055000", "173337.058000", "173337.060000", "173337.063000", "173337.066000", "173417.009000", "173417.012000", "173417.015000", "173417.018000", "173417.021000", "173417.023000", "173417.026000", "173417.029000", "173417.032000", "173417.035000", "173417.038000", "173417.041000", "173417.044000", "173417.046000", "173417.049000", "173417.052000", "173417.055000", "173417.058000", "173417.061000", "173417.064000", "173417.067000", "173417.069000", "173417.072000", "173417.075000", "173417.078000", "173417.081000", "173417.084000", "173417.087000", "173417.089000", "173457.008000", "173457.011000", "173457.014000", "173457.017000", "173457.020000", "173457.023000", "173457.025000", "173457.028000", "173457.031000", "173457.034000", "173457.037000", "173457.040000", "173457.043000", "173457.045000", "173457.048000", "173457.051000", "173457.054000", "173457.057000", "173457.060000", "173457.063000", "173457.066000", "173457.069000", "173457.072000", "173457.075000", "173457.077000", "173457.080000", "173457.083000", "173537.009000", "173537.012000", "173537.015000", "173537.018000", "173537.021000", "173537.024000", "173537.026000", "173537.029000", "173537.032000", "173537.035000", "173537.038000", "173537.041000", "173537.044000", "173537.047000", "173537.049000", "173537.052000", "173537.055000", "173537.058000", "173537.061000", "173537.064000", "173537.067000", "173537.070000", "173537.072000", "173537.075000", "173537.078000", "173537.081000", "173537.084000", "173617.009000", "173617.012000", "173617.015000", "173617.018000", "173617.021000", "173617.024000", "173617.026000", "173617.029000", "173617.032000", "173617.035000", "173617.038000", "173617.041000", "173617.044000", "173617.047000", "173617.050000", "173617.052000", "173617.055000", "173617.058000", "173617.061000", "173617.064000", "173617.067000", "173617.070000", "173617.073000", "173617.075000", "173617.078000", "173617.081000", "173617.084000", "173657.009000", "173657.012000", "173657.015000", "173657.018000", "173657.021000", "173657.023000", "173657.026000", "173657.029000", "173657.032000", "173657.035000", "173657.038000", "173657.041000", "173657.044000", "173657.048000", "173657.051000", "173657.054000", "173657.057000", "173657.059000", "173657.062000", "173657.065000", "173657.068000", "173657.071000", "173657.074000", "173657.077000", "173657.080000", "173657.083000", "173737.009000", "173737.012000", "173737.015000", "173737.018000", "173737.021000", "173737.024000", "173737.027000", "173737.029000", "173737.032000", "173737.035000", "173737.038000", "173737.041000", "173737.044000", "173737.046000", "173737.049000", "173737.052000", "173737.055000", "173737.058000", "173737.061000", "173737.064000", "173737.067000", "173737.070000", "173737.072000", "173737.075000", "173737.078000", "173737.081000", "173737.084000", "173757.009000", "173757.012000", "173757.015000", "173757.018000", "173757.021000", "173757.024000", "173757.026000", "173757.029000", "173757.032000", "173757.035000", "173757.038000", "173757.041000", "173757.044000", "173757.047000", "173837.009000", "173837.013000", "173837.016000", "173837.019000", "173837.023000", "173837.026000", "173837.028000", "173837.031000", "173837.034000", "173837.037000", "173837.040000", "173837.043000", "173837.046000", "173837.049000", "173837.051000", "173837.054000", "173837.057000", "173837.060000", "173837.063000", "173837.066000", "173837.069000", "173837.072000", "173837.075000", "173837.078000", "173837.080000", "173837.083000", "173917.009000", "173917.012000", "173917.015000", "173917.018000", "173917.021000", "173917.023000", "173917.026000", "173917.029000", "173917.032000", "173917.035000", "173917.038000", "173917.041000", "173917.044000", "173917.047000", "173917.049000", "173917.052000", "173917.055000", "173917.058000", "173917.061000", "173917.064000", "173917.067000", "173917.070000", "173917.073000", "173917.075000", "173917.078000", "173917.081000", "173917.084000", "173957.009000", "173957.012000", "173957.015000", "173957.018000", "173957.034000", "173957.037000", "173957.040000", "173957.042000", "173957.045000", "173957.048000", "173957.051000", "173957.054000", "173957.057000", "173957.060000", "173957.062000", "173957.065000", "173957.068000", "173957.071000", "173957.074000", "173957.077000", "173957.080000", "173957.083000", "173957.086000", "173957.088000", "173957.091000", "173957.094000", "173957.097000", "174037.009000", "174037.012000", "174037.015000", "174037.018000", "174037.021000", "174037.024000", "174037.027000", "174037.029000", "174037.032000", "174037.035000", "174037.038000", "174037.041000", "174037.044000", "174037.047000", "174037.050000", "174037.052000", "174037.055000", "174037.058000", "174037.061000", "174037.064000", "174037.067000", "174037.070000", "174037.073000", "174037.076000", "174037.078000", "174037.081000", "174037.084000", "174117.009000", "174117.012000", "174117.015000", "174117.018000", "174117.021000", "174117.024000", "174117.026000", "174117.029000", "174117.032000", "174117.035000", "174117.038000", "174117.041000", "174117.044000", "174117.046000", "174117.049000", "174117.052000", "174117.055000", "174117.058000", "174117.061000", "174117.064000", "174117.067000", "174117.069000", "174117.072000", "174117.075000", "174117.078000", "174117.081000", "174117.084000", "174157.008000", "174157.011000", "174157.014000", "174157.017000", "174157.020000", "174157.023000", "174157.026000", "174157.028000", "174157.031000", "174157.034000", "174157.037000", "174157.040000", "174157.043000", "174157.046000", "174157.049000", "174157.052000", "174157.054000", "174157.057000", "174157.060000", "174157.063000", "174157.066000", "174157.069000", "174157.072000", "174157.075000", "174157.077000", "174157.080000", "174157.083000", "174237.009000", "174237.012000", "174237.015000", "174237.018000", "174237.021000", "174237.024000", "174237.027000", "174237.030000", "174237.032000", "174237.035000", "174237.038000", "174237.041000", "174237.044000", "174237.047000", "174237.050000", "174237.053000", "174237.056000", "174237.058000", "174237.061000", "174237.064000", "174237.067000", "174237.070000", "174237.073000", "174237.076000", "174237.079000", "174237.082000", "174237.084000", "174317.009000", "174317.012000", "174317.015000", "174317.018000", "174317.021000", "174317.024000", "174317.027000", "174317.030000", "174317.032000", "174317.035000", "174317.038000", "174317.041000", "174317.044000", "174317.047000", "174317.050000", "174317.053000", "174317.056000", "174317.059000", "174317.062000", "174317.065000", "174317.068000", "174317.070000", "174317.073000", "174317.076000", "174317.079000", "174317.082000", "174327.605000", "174327.609000", "174327.611000", "174327.614000", "174327.617000", "174327.620000", "174327.623000", "174327.626000"],
