{
  "AcquisitionMatrixPE": 104,
  "AcquisitionNumber": 1,
  "AcquisitionTime": "18:11:10.282500",
  "BandwidthPerPixelPhaseEncode": 17.17,
  "BaseResolution": 104,
  "BodyPartExamined": "BRAIN",
  "CoilCombinationMethod": "Sum of Squares",
  "ConsistencyInfo": "N4_VE11C_LATEST_20160120",
  "ConversionSoftware": "dcm2niix",
  "ConversionSoftwareVersion": "v1.0.20211006",
  "DerivedVendorReportedEchoSpacing": 0.000560011,
  "DeviceSerialNumber": "167006",
  "DwellTime": 2.1e-06,
  "EchoTime": 0.037,
  "EchoTrainLength": 104,
  "EffectiveEchoSpacing": 0.000560011,
  "FlipAngle": 52,
  "HeudiconvVersion": "0.11.3.post9+gc939bf8",
  "ImageComments": "Unaliased MB4/PE3/LB",
  "ImageOrientationPatientDICOM": [0.994488, 0.0994416, 0.033231, -0.0786172, 0.916951, -0.391177],
  "ImageOrientationText": "Tra>Cor(-22.8)>Sag(4.0)",
  "ImageType": [
    "ORIGINAL",
    "PRIMARY",
    "M",
    "MB",
    "ND",
    "MOSAIC"
],
  "ImagingFrequency": 123.259,
  "InPlanePhaseEncodingDirectionDICOM": "COL",
  "InstitutionAddress": "Chemin Queen-Mary 4565,Montreal,District,CA,H3W 1W5",
  "InstitutionName": "IUGM",
  "InstitutionalDepartmentName": "Department",
  "MRAcquisitionType": "2D",
  "MagneticFieldStrength": 3,
  "Manufacturer": "Siemens",
  "ManufacturersModelName": "Prisma_fit",
  "MatrixCoilMode": "SENSE",
  "Modality": "MR",
  "MultibandAccelerationFactor": 4,
  "PartialFourier": 1,
  "PatientPosition": "HFS",
  "PercentPhaseFOV": 100,
  "PercentSampling": 100,
  "PhaseEncodingDirection": "j",
  "PhaseEncodingSteps": 104,
  "PhaseResolution": 1,
  "PixelBandwidth": 2290,
  "ProcedureStepDescription": "video^friends",
  "ProtocolName": "func_task-friends-s06e12a",
  "PulseSequenceDetails": "%CustomerSeq%\\cmrr_mbep2d_bold",
  "ReceiveCoilActiveElements": "HC1-7;NC1,2",
  "ReceiveCoilName": "HeadNeck_64",
  "ReconMatrixPE": 104,
  "RepetitionTime": 1.49,
  "SAR": 0.0589165,
  "ScanOptions": "FS",
  "ScanningSequence": "EP",
  "SequenceName": "epfid2d1_104",
  "SequenceVariant": "SK\\SS",
  "SeriesDescription": "func_task-friends-s06e12a",
  "SeriesNumber": 16,
  "ShimSetting": [634, -7187, -8831, 629, 106, -47, -85, -21],
  "SliceThickness": 2,
  "SliceTiming": [0, 0.7825, 0.0975, 0.88, 0.195, 0.98, 0.2925, 1.0775, 0.39, 1.175, 0.49, 1.2725, 0.5875, 1.37, 0.685, 0, 0.7825, 0.0975, 0.88, 0.195, 0.98, 0.2925, 1.0775, 0.39, 1.175, 0.49, 1.2725, 0.5875, 1.37, 0.685, 0, 0.7825, 0.0975, 0.88, 0.195, 0.98, 0.2925, 1.0775, 0.39, 1.175, 0.49, 1.2725, 0.5875, 1.37, 0.685, 0, 0.7825, 0.0975, 0.88, 0.195, 0.98, 0.2925, 1.0775, 0.39, 1.175, 0.49, 1.2725, 0.5875, 1.37, 0.685],
  "SoftwareVersions": "syngo MR E11",
  "SpacingBetweenSlices": 2,
  "StationName": "MRC35049",
  "TaskName": "s06e12a",
  "TotalReadoutTime": 0.0576811,
  "TxRefAmp": 291.768,
  "WipMemBlock": "14865172-5b39-4323-aced-eb35cf76e2cd||Sequence: R016 ve11c/master r/e634e98; Dec 19 2017 11:00:25 by eja",
  "dcmmeta_affine": [
    [-1.9889767169952393, -0.15723446011543274, 0.13874094188213348, 106.83841705322266],
    [-0.19888320565223694, 1.8339028358459473, -0.7728168368339539, -56.75686264038086],
    [0.06646198034286499, 0.7823539972305298, 1.8394306898117065, -73.30892944335938],
    [0.0, 0.0, 0.0, 1.0]
],
  "dcmmeta_reorient_transform": [
    [0.0, -1.0, 0.0, 103.0],
    [1.0, 0.0, 0.0, 0.0],
    [0.0, 0.0, 1.0, 0.0],
    [0.0, 0.0, 0.0, 1.0]
],
  "dcmmeta_shape": [104, 104, 60, 435],
  "dcmmeta_slice_dim": 2,
  "dcmmeta_version": 0.6,
  "global": {
    "const": {
      "AcquisitionMatrix": [104, 0, 0, 104],
      "AngioFlag": "N",
      "BitsAllocated": 16,
      "BitsStored": 16,
      "BodyPartExamined": "BRAIN",
      "Columns": 832,
      "EchoNumbers": 1,
      "EchoTime": 37.0,
      "EchoTrainLength": 104,
      "FlipAngle": 52.0,
      "HighBit": 15,
      "ImageOrientationPatient": [0.99448834561529, 0.09944159926998, 0.03323099110755, -0.0786172271514, 0.91695141465442, -0.3911769864886],
      "ImagePositionPatient": [-757.39744167023, -872.06924156765, 267.85821400052],
      "ImageType": [
        "ORIGINAL",
        "PRIMARY",
        "M",
        "MB",
        "ND",
        "MOSAIC"
],
      "ImagedNucleus": "1H",
      "ImagingFrequency": 123.258835,
      "InPlanePhaseEncodingDirection": "COL",
      "MRAcquisitionType": "2D",
      "MagneticFieldStrength": 3.0,
      "Manufacturer": "SIEMENS",
      "ManufacturerModelName": "Prisma_fit",
      "Modality": "MR",
      "NumberOfAverages": 1.0,
      "NumberOfPhaseEncodingSteps": 104,
      "PercentPhaseFieldOfView": 100.0,
      "PercentSampling": 100.0,
      "PerformedProcedureStepStartTime": "170058.281000",
      "PhotometricInterpretation": "MONOCHROME2",
      "PixelBandwidth": 2290.0,
      "PixelRepresentation": 0,
      "PixelSpacing": [2.0, 2.0],
      "ProtocolName": "func_task-friends-s06e12a",
      "RepetitionTime": 1490.0,
      "Rows": 832,
      "SAR": 0.05891647074719,
      "SamplesPerPixel": 1,
      "ScanOptions": "FS",
      "ScanningSequence": "EP",
      "SequenceName": "epfid2d1_104",
      "SequenceVariant": [
        "SK",
        "SS"
],
      "SeriesDescription": "func_task-friends-s06e12a",
      "SeriesNumber": 16,
      "SeriesTime": "181237.045000",
      "SliceLocation": -38.080584192466,
      "SliceThickness": 2.0,
      "SmallestImagePixelValue": 0,
      "SoftwareVersions": "syngo MR E11",
      "SpacingBetweenSlices": 2.0000000309428,
      "SpecificCharacterSet": "ISO_IR 100",
      "StudyID": "1",
      "StudyTime": "170058.230000",
      "TransmitCoilName": "Body",
      "VariableFlipAngleFlag": "N",
      "WindowCenterWidthExplanation": "Algo1",
      "dBdt": 0.0},
    "slices": {}
  },
  "time": {
    "samples": {
      "AcquisitionNumber": [1, 2, 3, 4, 5, 6, 7, 8, 9, 10, 11, 12, 13, 14, 15, 16, 17, 18, 19, 20, 21, 22, 23, 24, 25, 26, 27, 28, 29, 30, 31, 32, 33, 34, 35, 36, 37, 38, 39, 40, 41, 42, 43, 44, 45, 46, 47, 48, 49, 50, 51, 52, 53, 54, 55, 56, 57, 58, 59, 60, 61, 62, 63, 64, 65, 66, 67, 68, 69, 70, 71, 72, 73, 74, 75, 76, 77, 78, 79, 80, 81, 82, 83, 84, 85, 86, 87, 88, 89, 90, 91, 92, 93, 94, 95, 96, 97, 98, 99, 100, 101, 102, 103, 104, 105, 106, 107, 108, 109, 110, 111, 112, 113, 114, 115, 116, 117, 118, 119, 120, 121, 122, 123, 124, 125, 126, 127, 128, 129, 130, 131, 132, 133, 134, 135, 136, 137, 138, 139, 140, 141, 142, 143, 144, 145, 146, 147, 148, 149, 150, 151, 152, 153, 154, 155, 156, 157, 158, 159, 160, 161, 162, 163, 164, 165, 166, 167, 168, 169, 170, 171, 172, 173, 174, 175, 176, 177, 178, 179, 180, 181, 182, 183, 184, 185, 186, 187, 188, 189, 190, 191, 192, 193, 194, 195, 196, 197, 198, 199, 200, 201, 202, 203, 204, 205, 206, 207, 208, 209, 210, 211, 212, 213, 214, 215, 216, 217, 218, 219, 220, 221, 222, 223, 224, 225, 226, 227, 228, 229, 230, 231, 232, 233, 234, 235, 236, 237, 238, 239, 240, 241, 242, 243, 244, 245, 246, 247, 248, 249, 250, 251, 252, 253, 254, 255, 256, 257, 258, 259, 260, 261, 262, 263, 264, 265, 266, 267, 268, 269, 270, 271, 272, 273, 274, 275, 276, 277, 278, 279, 280, 281, 282, 283, 284, 285, 286, 287, 288, 289, 290, 291, 292, 293, 294, 295, 296, 297, 298, 299, 300, 301, 302, 303, 304, 305, 306, 307, 308, 309, 310, 311, 312, 313, 314, 315, 316, 317, 318, 319, 320, 321, 322, 323, 324, 325, 326, 327, 328, 329, 330, 331, 332, 333, 334, 335, 336, 337, 338, 339, 340, 341, 342, 343, 344, 345, 346, 347, 348, 349, 350, 351, 352, 353, 354, 355, 356, 357, 358, 359, 360, 361, 362, 363, 364, 365, 366, 367, 368, 369, 370, 371, 372, 373, 374, 375, 376, 377, 378, 379, 380, 381, 382, 383, 384, 385, 386, 387, 388, 389, 390, 391, 392, 393, 394, 395, 396, 397, 398, 399, 400, 401, 402, 403, 404, 405, 406, 407, 408, 409, 410, 411, 412, 413, 414, 415, 416, 417, 418, 419, 420, 421, 422, 423, 424, 425, 426, 427, 428, 429, 430, 431, 432, 433, 434, 435],
      "AcquisitionTime": ["181110.282500", "181111.772500", "181113.262500", "181114.752500", "181116.242500", "181117.732500", "181119.222500", "181120.712500", "181122.202500", "181123.692500", "181125.182500", "181126.672500", "181128.162500", "181129.652500", "181131.142500", "181132.632500", "181134.122500", "181135.612500", "181137.102500", "181138.592500", "181140.082500", "181141.572500", "181143.062500", "181144.552500", "181146.042500", "181147.532500", "181149.022500", "181150.512500", "181152.002500", "181153.492500", "181154.982500", "181156.472500", "181157.962500", "181159.452500", "181200.942500", "181202.432500", "181203.922500", "181205.412500", "181206.902500", "181208.392500", "181209.882500", "181211.372500", "181212.862500", "181214.352500", "181215.842500", "181217.332500", "181218.822500", "181220.312500", "181221.802500", "181223.292500", "181224.782500", "181226.272500", "181227.762500", "181229.252500", "181230.742500", "181232.232500", "181233.722500", "181235.212500", "181236.702500", "181238.192500", "181239.682500", "181241.172500", "181242.662500", "181244.152500", "181245.642500", "181247.132500", "181248.622500", "181250.112500", "181251.602500", "181253.092500", "181254.582500", "181256.072500", "181257.562500", "181259.052500", "181300.542500", "181302.032500", "181303.522500", "181305.012500", "181306.502500", "181307.992500", "181309.482500", "181310.972500", "181312.462500", "181313.952500", "181315.442500", "181316.932500", "181318.422500", "181319.912500", "181321.402500", "181322.892500", "181324.382500", "181325.872500", "181327.362500", "181328.852500", "181330.342500", "181331.832500", "181333.322500", "181334.812500", "181336.302500", "181337.792500", "181339.282500", "181340.772500", "181342.262500", "181343.752500", "181345.242500", "181346.732500", "181348.222500", "181349.712500", "181351.202500", "181352.692500", "181354.182500", "181355.672500", "181357.162500", "181358.652500", "181400.142500", "181401.632500", "181403.122500", "181404.612500", "181406.102500", "181407.592500", "181409.082500", "181410.572500", "181412.062500", "181413.552500", "181415.042500", "181416.532500", "181418.022500", "181419.512500", "181421.002500", "181422.492500", "181423.982500", "181425.472500", "181426.962500", "181428.452500", "181429.942500", "181431.432500", "181432.922500", "181434.412500", "181435.902500", "181437.392500", "181438.882500", "181440.372500", "181441.862500", "181443.352500", "181444.842500", "181446.332500", "181447.822500", "181449.312500", "181450.802500", "181452.292500", "181453.782500", "181455.272500", "181456.762500", "181458.252500", "181459.742500", "181501.232500", "181502.722500", "181504.212500", "181505.702500", "181507.192500", "181508.682500", "181510.172500", "181511.662500", "181513.152500", "181514.642500", "181516.132500", "181517.622500", "181519.112500", "181520.602500", "181522.092500", "181523.582500", "181525.072500", "181526.562500", "181528.052500", "181529.542500", "181531.032500", "181532.522500", "181534.012500", "181535.502500", "181536.992500", "181538.482500", "181539.972500", "181541.462500", "181542.952500", "181544.442500", "181545.932500", "181547.422500", "181548.912500", "181550.402500", "181551.892500", "181553.382500", "181554.872500", "181556.362500", "181557.852500", "181559.342500", "181600.832500", "181602.322500", "181603.812500", "181605.302500", "181606.792500", "181608.282500", "181609.772500", "181611.262500", "181612.752500", "181614.242500", "181615.732500", "181617.222500", "181618.712500", "181620.202500", "181621.692500", "181623.182500", "181624.672500", "181626.162500", "181627.652500", "181629.142500", "181630.632500", "181632.122500", "181633.612500", "181635.102500", "181636.592500", "181638.082500", "181639.572500", "181641.062500", "181642.552500", "181644.042500", "181645.532500", "181647.022500", "181648.512500", "181650.002500", "181651.492500", "181652.982500", "181654.472500", "181655.962500", "181657.452500", "181658.942500", "181700.432500", "181701.922500", "181703.412500", "181704.902500", "181706.392500", "181707.882500", "181709.372500", "181710.862500", "181712.352500", "181713.842500", "181715.332500", "181716.822500", "181718.312500", "181719.802500", "181721.292500", "181722.782500", "181724.272500", "181725.762500", "181727.252500", "181728.742500", "181730.232500", "181731.722500", "181733.212500", "181734.702500", "181736.192500", "181737.682500", "181739.172500", "181740.662500", "181742.152500", "181743.642500", "181745.132500", "181746.622500", "181748.112500", "181749.602500", "181751.092500", "181752.582500", "181754.072500", "181755.562500", "181757.052500", "181758.542500", "181800.032500", "181801.522500", "181803.012500", "181804.502500", "181805.992500", "181807.482500", "181808.972500", "181810.462500", "181811.952500", "181813.442500", "181814.932500", "181816.422500", "181817.912500", "181819.402500", "181820.892500", "181822.382500", "181823.872500", "181825.362500", "181826.852500", "181828.342500", "181829.832500", "181831.322500", "181832.812500", "181834.302500", "181835.792500", "181837.282500", "181838.772500", "181840.262500", "181841.752500", "181843.242500", "181844.732500", "181846.222500", "181847.712500", "181849.202500", "181850.692500", "181852.182500", "181853.672500", "181855.162500", "181856.652500", "181858.142500", "181859.632500", "181901.122500", "181902.612500", "181904.102500", "181905.592500", "181907.082500", "181908.572500", "181910.062500", "181911.552500", "181913.042500", "181914.532500", "181916.022500", "181917.512500", "181919.002500", "181920.492500", "181921.982500", "181923.472500", "181924.962500", "181926.452500", "181927.942500", "181929.432500", "181930.922500", "181932.412500", "181933.902500", "181935.392500", "181936.882500", "181938.372500", "181939.862500", "181941.352500", "181942.842500", "181944.332500", "181945.822500", "181947.312500", "181948.802500", "181950.292500", "181951.782500", "181953.272500", "181954.762500", "181956.252500", "181957.742500", "181959.232500", "182000.722500", "182002.212500", "182003.702500", "182005.192500", "182006.682500", "182008.172500", "182009.662500", "182011.152500", "182012.642500", "182014.132500", "182015.622500", "182017.112500", "182018.602500", "182020.092500", "182021.582500", "182023.072500", "182024.562500", "182026.052500", "182027.542500", "182029.032500", "182030.522500", "182032.012500", "182033.502500", "182034.992500", "182036.482500", "182037.972500", "182039.462500", "182040.952500", "182042.442500", "182043.932500", "182045.422500", "182046.912500", "182048.402500", "182049.892500", "182051.382500", "182052.872500", "182054.362500", "182055.852500", "182057.342500", "182058.832500", "182100.322500", "182101.812500", "182103.302500", "182104.792500", "182106.282500", "182107.772500", "182109.262500", "182110.752500", "182112.242500", "182113.732500", "182115.222500", "182116.712500", "182118.202500", "182119.692500", "182121.182500", "182122.672500", "182124.162500", "182125.652500", "182127.142500", "182128.632500", "182130.122500", "182131.612500", "182133.102500", "182134.592500", "182136.082500", "182137.572500", "182139.062500", "182140.552500", "182142.042500", "182143.532500", "182145.022500", "182146.512500", "182148.002500", "182149.492500", "182150.982500", "182152.472500", "182153.962500", "182155.452500", "182156.942500"],
      "ContentTime": ["181237.048000", "181237.051000", "181237.054000", "181237.057000", "181237.060000", "181237.063000", "181237.066000", "181237.069000", "181237.072000", "181237.074000", "181237.077000", "181237.080000", "181237.083000", "181237.086000", "181237.089000", "181237.092000", "181237.095000", "181237.098000", "181237.108000", "181237.111000", "181237.114000", "181237.117000", "181237.119000", "181237.122000", "181237.125000", "181237.128000", "181237.131000", "181237.134000", "181237.137000", "181237.140000", "181237.142000", "181237.145000", "181237.148000", "181257.009000", "181257.012000", "181257.015000", "181257.018000", "181257.021000", "181257.024000", "181257.028000", "181257.031000", "181257.034000", "181257.037000", "181257.039000", "181257.042000", "181257.045000", "181257.048000", "181257.065000", "181257.068000", "181257.071000", "181257.074000", "181257.077000", "181257.080000", "181317.009000", "181317.012000", "181317.014000", "181317.017000", "181317.020000", "181317.023000", "181317.026000", "181317.029000", "181317.032000", "181317.034000", "181317.037000", "181317.040000", "181317.043000", "181317.046000", "181317.049000", "181317.052000", "181317.055000", "181317.058000", "181317.061000", "181317.064000", "181317.067000", "181337.009000", "181337.012000", "181337.015000", "181337.018000", "181337.020000", "181337.023000", "181337.026000", "181337.029000", "181337.032000", "181337.035000", "181337.038000", "181337.041000", "181337.044000", "181337.046000", "181337.049000", "181337.052000", "181337.055000", "181337.058000", "181337.061000", "181337.064000", "181417.008000", "181417.011000", "181417.014000", "181417.017000", "181417.020000", "181417.022000", "181417.025000", "181417.028000", "181417.031000", "181417.034000", "181417.037000", "181417.040000", "181417.043000", "181417.045000", "181417.048000", "181417.051000", "181417.054000", "181417.057000", "181417.060000", "181417.063000", "181417.066000", "181417.068000", "181417.071000", "181417.074000", "181417.077000", "181417.080000", "181417.083000", "181417.086000", "181417.089000", "181417.092000", "181457.009000", "181457.012000", "181457.015000", "181457.018000", "181457.021000", "181457.023000", "181457.026000", "181457.029000", "181457.032000", "181457.035000", "181457.038000", "181457.041000", "181457.044000", "181457.046000", "181457.049000", "181457.052000", "181457.055000", "181457.058000", "181457.061000", "181457.064000", "181457.066000", "181457.069000", "181457.072000", "181457.075000", "181457.078000", "181457.081000", "181457.084000", "181537.009000", "181537.012000", "181537.015000", "181537.018000", "181537.021000", "181537.029000", "181537.032000", "181537.035000", "181537.038000", "181537.040000", "181537.043000", "181537.046000", "181537.049000", "181537.052000", "181537.055000", "181537.058000", "181537.061000", "181537.064000", "181537.067000", "181537.069000", "181537.072000", "181537.075000", "181537.078000", "181537.081000", "181537.084000", "181537.087000", "181537.090000", "181617.009000", "181617.012000", "181617.015000", "181617.018000", "181617.021000", "181617.024000", "181617.026000", "181617.029000", "181617.032000", "181617.035000", "181617.038000", "181617.041000", "181617.044000", "181617.047000", "181617.049000", "181617.052000", "181617.055000", "181617.058000", "181617.061000", "181617.064000", "181617.067000", "181617.070000", "181617.096000", "181617.099000", "181617.102000", "181617.105000", "181617.108000", "181657.009000", "181657.012000", "181657.015000", "181657.018000", "181657.021000", "181657.024000", "181657.027000", "181657.030000", "181657.032000", "181657.035000", "181657.038000", "181657.041000", "181657.044000", "181657.047000", "181657.050000", "181657.053000", "181657.056000", "181657.058000", "181657.061000", "181657.064000", "181657.067000", "181657.070000", "181657.073000", "181657.076000", "181657.079000", "181657.082000", "181657.085000", "181737.009000", "181737.012000", "181737.015000", "181737.018000", "181737.021000", "181737.024000", "181737.026000", "181737.029000", "181737.032000", "181737.035000", "181737.038000", "181737.041000", "181737.044000", "181737.047000", "181737.050000", "181737.053000", "181737.055000", "181737.058000", "181737.061000", "181737.064000", "181737.067000", "181737.070000", "181737.073000", "181737.086000", "181737.089000", "181737.092000", "181737.094000", "181757.009000", "181757.012000", "181757.015000", "181757.018000", "181757.021000", "181757.024000", "181757.027000", "181757.029000", "181757.032000", "181757.035000", "181757.038000", "181757.041000", "181757.044000", "181837.009000", "181837.012000", "181837.015000", "181837.018000", "181837.021000", "181837.024000", "181837.027000", "181837.030000", "181837.033000", "181837.036000", "181837.038000", "181837.041000", "181837.044000", "181837.047000", "181837.050000", "181837.053000", "181837.056000", "181837.058000", "181837.061000", "181837.064000", "181837.067000", "181837.070000", "181837.073000", "181837.076000", "181837.079000", "181837.082000", "181837.084000", "181917.009000", "181917.012000", "181917.015000", "181917.018000", "181917.021000", "181917.024000", "181917.027000", "181917.030000", "181917.033000", "181917.036000", "181917.039000", "181917.042000", "181917.045000", "181917.048000", "181917.051000", "181917.054000", "181917.057000", "181917.060000", "181917.063000", "181917.066000", "181917.068000", "181917.071000", "181917.074000", "181917.077000", "181917.080000", "181917.083000", "181917.086000", "181957.009000", "181957.012000", "181957.015000", "181957.018000", "181957.021000", "181957.023000", "181957.026000", "181957.029000", "181957.032000", "181957.035000", "181957.038000", "181957.041000", "181957.044000", "181957.047000", "181957.049000", "181957.052000", "181957.055000", "181957.058000", "181957.061000", "181957.064000", "181957.067000", "181957.070000", "181957.073000", "181957.076000", "181957.078000", "181957.081000", "181957.084000", "182037.009000", "182037.012000", "182037.015000", "182037.018000", "182037.021000", "182037.024000", "182037.027000", "182037.030000", "182037.033000", "182037.037000", "182037.040000", "182037.043000", "182037.046000", "182037.049000", "182037.052000", "182037.054000", "182037.057000", "182037.060000", "182037.063000", "182037.066000", "182037.069000", "182037.072000", "182037.087000", "182037.091000", "182037.094000", "182037.097000", "182117.008000", "182117.011000", "182117.014000", "182117.017000", "182117.020000", "182117.023000", "182117.025000", "182117.028000", "182117.031000", "182117.034000", "182117.037000", "182117.040000", "182117.043000", "182117.046000", "182117.049000", "182117.051000", "182117.054000", "182117.066000", "182117.069000", "182117.071000", "182117.074000", "182117.077000", "182117.080000", "182117.083000", "182117.086000", "182117.089000", "182117.092000", "182157.009000", "182157.012000", "182157.015000", "182157.018000", "182157.021000", "182157.024000", "182157.026000", "182157.029000", "182157.032000", "182157.035000", "182157.038000", "182157.041000", "182157.044000", "182157.047000", "182157.050000", "182157.053000", "182157.055000", "182157.059000", "182157.062000", "182157.065000", "182157.068000", "182157.071000", "182157.073000", "182157.076000", "182157.079000", "182157.082000", "182157.085000", "182159.169000", "182159.172000"],
