{
  "AcquisitionMatrixPE": 104,
  "AcquisitionNumber": 1,
  "AcquisitionTime": "09:54:13.605000",
  "BandwidthPerPixelPhaseEncode": 17.17,
  "BaseResolution": 104,
  "BodyPartExamined": "BRAIN",
  "CoilString": "HC1-7;NC1_2",
  "ConsistencyInfo": "N4_VE11C_LATEST_20160120",
  "ConversionSoftware": "dcm2niix",
  "ConversionSoftwareVersion": "v1.0.20190902",
  "DerivedVendorReportedEchoSpacing": 0.000560011,
  "DeviceSerialNumber": "167006",
  "DwellTime": 2.1e-06,
  "EchoTime": 0.037,
  "EchoTrainLength": 104,
  "EffectiveEchoSpacing": 0.000560011,
  "FlipAngle": 52,
  "ImageComments": "Unaliased_MB4_PE3_LB",
  "ImageOrientationPatientDICOM": [0.998322, 0.0529923, 0.0233398, -0.046032, 0.970832, -0.2353],
  "ImageType": [
    "ORIGINAL",
    "PRIMARY",
    "M",
    "MB",
    "ND",
    "MOSAIC"
],
  "ImagingFrequency": 123.259,
  "InPlanePhaseEncodingDirectionDICOM": "COL",
  "InstitutionAddress": "Chemin_Queen-Mary_4565_Montreal_District_CA_H3W_1W5",
  "InstitutionName": "IUGM",
  "InstitutionalDepartmentName": "Department",
  "MRAcquisitionType": "2D",
  "MagneticFieldStrength": 3,
  "Manufacturer": "Siemens",
  "ManufacturersModelName": "Prisma_fit",
  "Modality": "MR",
  "MultibandAccelerationFactor": 4,
  "PartialFourier": 1,
  "PatientPosition": "HFS",
  "PercentPhaseFOV": 100,
  "PhaseEncodingDirection": "j",
  "PhaseEncodingSteps": 104,
  "PhaseResolution": 1,
  "PixelBandwidth": 2290,
  "ProcedureStepDescription": "video_friends",
  "ProtocolName": "func_task-friends-s03e05a",
  "PulseSequenceDetails": "%CustomerSeq%_cmrr_mbep2d_bold",
  "ReceiveCoilActiveElements": "HC1-7;NC1,2",
  "ReceiveCoilName": "HeadNeck_64",
  "ReconMatrixPE": 104,
  "RepetitionTime": 1.49,
  "SAR": 0.0386388,
  "ScanOptions": "FS",
  "ScanningSequence": "EP",
  "SequenceName": "epfid2d1_104",
  "SequenceVariant": "SK_SS",
  "SeriesDescription": "func_task-friends-s03e05a",
  "SeriesNumber": 13,
  "ShimSetting": [640, -7220, -8807, 672, 94, -82, 122, -10],
  "SliceThickness": 2,
  "SliceTiming": [0, 0.7825, 0.0975, 0.88, 0.195, 0.98, 0.2925, 1.0775, 0.39, 1.175, 0.49, 1.2725, 0.5875, 1.37, 0.685, 0, 0.7825, 0.0975, 0.88, 0.195, 0.98, 0.2925, 1.0775, 0.39, 1.175, 0.49, 1.2725, 0.5875, 1.37, 0.685, 0, 0.7825, 0.0975, 0.88, 0.195, 0.98, 0.2925, 1.0775, 0.39, 1.175, 0.49, 1.2725, 0.5875, 1.37, 0.685, 0, 0.7825, 0.0975, 0.88, 0.195, 0.98, 0.2925, 1.0775, 0.39, 1.175, 0.49, 1.2725, 0.5875, 1.37, 0.685],
  "SoftwareVersions": "syngo_MR_E11",
  "SpacingBetweenSlices": 2,
  "StationName": "MRC35049",
  "TaskName": "s03e05a",
  "TotalReadoutTime": 0.0576811,
  "TxRefAmp": 246.165,
  "WipMemBlock": "eacd3ca4-9523-4704-8db6-e2f4c311160d||Sequence: R016 ve11c/master r/e634e98; Dec 19 2017 11:00:25 by eja",
  "dcmmeta_affine": [
    [-1.9966442584991455, -0.09206394851207733, 0.07025627791881561, 105.73994445800781],
    [-0.10598453879356384, 1.941664218902588, -0.4676613211631775, -71.10829162597656],
    [0.04667968302965164, 0.4705997109413147, 1.9432851076126099, -45.960968017578125],
    [0.0, 0.0, 0.0, 1.0]
],
  "dcmmeta_reorient_transform": [
    [0.0, -1.0, 0.0, 103.0],
    [1.0, 0.0, 0.0, 0.0],
    [0.0, 0.0, 1.0, 0.0],
    [0.0, 0.0, 0.0, 1.0]
],
  "dcmmeta_shape": [104, 104, 60, 484],
  "dcmmeta_slice_dim": 2,
  "dcmmeta_version": 0.6,
  "global": {
    "const": {
      "AcquisitionMatrix": [104, 0, 0, 104],
      "AngioFlag": "N",
      "BitsAllocated": 16,
      "BitsStored": 16,
      "BodyPartExamined": "BRAIN",
      "Columns": 832,
      "EchoNumbers": 1,
      "EchoTime": 37.0,
      "EchoTrainLength": 104,
      "FlipAngle": 52.0,
      "HighBit": 15,
      "ImageOrientationPatient": [0.99832212795782, 0.05299226984334, 0.0233398407583, -0.0460319733607, 0.97083213728051, -0.235299848389],
      "ImagePositionPatient": [-789.52458897038, -874.22729460546, 156.81768725572],
      "ImageType": [
        "ORIGINAL",
        "PRIMARY",
        "M",
        "MB",
        "ND",
        "MOSAIC"
],
      "ImagedNucleus": "1H",
      "ImagingFrequency": 123.259336,
      "InPlanePhaseEncodingDirection": "COL",
      "MRAcquisitionType": "2D",
      "MagneticFieldStrength": 3.0,
      "Manufacturer": "SIEMENS",
      "ManufacturerModelName": "Prisma_fit",
      "Modality": "MR",
      "NumberOfAverages": 1.0,
      "NumberOfPhaseEncodingSteps": 104,
      "PercentPhaseFieldOfView": 100.0,
      "PercentSampling": 100.0,
      "PerformedProcedureStepStartTime": "085551.308000",
      "PhotometricInterpretation": "MONOCHROME2",
      "PixelBandwidth": 2290.0,
      "PixelRepresentation": 0,
      "PixelSpacing": [2.0, 2.0],
      "ProtocolName": "func_task-friends-s03e05a",
      "RepetitionTime": 1490.0,
      "Rows": 832,
      "SAR": 0.03863876056037,
      "SamplesPerPixel": 1,
      "ScanOptions": "FS",
      "ScanningSequence": "EP",
      "SequenceName": "epfid2d1_104",
      "SequenceVariant": [
        "SK",
        "SS"
],
      "SeriesDescription": "func_task-friends-s03e05a",
      "SeriesNumber": 13,
      "SeriesTime": "095537.855000",
      "SliceLocation": -24.315883597844,
      "SliceThickness": 2.0,
      "SmallestImagePixelValue": 0,
      "SoftwareVersions": "syngo MR E11",
      "SpacingBetweenSlices": 1.999999999936,
      "SpecificCharacterSet": "ISO_IR 100",
      "StudyID": "1",
      "StudyTime": "085551.105000",
      "TransmitCoilName": "Body",
      "VariableFlipAngleFlag": "N",
      "WindowCenterWidthExplanation": "Algo1",
      "dBdt": 0.0},
    "slices": {}
  },
  "time": {
    "samples": {
      "AcquisitionNumber": [1, 2, 3, 4, 5, 6, 7, 8, 9, 10, 11, 12, 13, 14, 15, 16, 17, 18, 19, 20, 21, 22, 23, 24, 25, 26, 27, 28, 29, 30, 31, 32, 33, 34, 35, 36, 37, 38, 39, 40, 41, 42, 43, 44, 45, 46, 47, 48, 49, 50, 51, 52, 53, 54, 55, 56, 57, 58, 59, 60, 61, 62, 63, 64, 65, 66, 67, 68, 69, 70, 71, 72, 73, 74, 75, 76, 77, 78, 79, 80, 81, 82, 83, 84, 85, 86, 87, 88, 89, 90, 91, 92, 93, 94, 95, 96, 97, 98, 99, 100, 101, 102, 103, 104, 105, 106, 107, 108, 109, 110, 111, 112, 113, 114, 115, 116, 117, 118, 119, 120, 121, 122, 123, 124, 125, 126, 127, 128, 129, 130, 131, 132, 133, 134, 135, 136, 137, 138, 139, 140, 141, 142, 143, 144, 145, 146, 147, 148, 149, 150, 151, 152, 153, 154, 155, 156, 157, 158, 159, 160, 161, 162, 163, 164, 165, 166, 167, 168, 169, 170, 171, 172, 173, 174, 175, 176, 177, 178, 179, 180, 181, 182, 183, 184, 185, 186, 187, 188, 189, 190, 191, 192, 193, 194, 195, 196, 197, 198, 199, 200, 201, 202, 203, 204, 205, 206, 207, 208, 209, 210, 211, 212, 213, 214, 215, 216, 217, 218, 219, 220, 221, 222, 223, 224, 225, 226, 227, 228, 229, 230, 231, 232, 233, 234, 235, 236, 237, 238, 239, 240, 241, 242, 243, 244, 245, 246, 247, 248, 249, 250, 251, 252, 253, 254, 255, 256, 257, 258, 259, 260, 261, 262, 263, 264, 265, 266, 267, 268, 269, 270, 271, 272, 273, 274, 275, 276, 277, 278, 279, 280, 281, 282, 283, 284, 285, 286, 287, 288, 289, 290, 291, 292, 293, 294, 295, 296, 297, 298, 299, 300, 301, 302, 303, 304, 305, 306, 307, 308, 309, 310, 311, 312, 313, 314, 315, 316, 317, 318, 319, 320, 321, 322, 323, 324, 325, 326, 327, 328, 329, 330, 331, 332, 333, 334, 335, 336, 337, 338, 339, 340, 341, 342, 343, 344, 345, 346, 347, 348, 349, 350, 351, 352, 353, 354, 355, 356, 357, 358, 359, 360, 361, 362, 363, 364, 365, 366, 367, 368, 369, 370, 371, 372, 373, 374, 375, 376, 377, 378, 379, 380, 381, 382, 383, 384, 385, 386, 387, 388, 389, 390, 391, 392, 393, 394, 395, 396, 397, 398, 399, 400, 401, 402, 403, 404, 405, 406, 407, 408, 409, 410, 411, 412, 413, 414, 415, 416, 417, 418, 419, 420, 421, 422, 423, 424, 425, 426, 427, 428, 429, 430, 431, 432, 433, 434, 435, 436, 437, 438, 439, 440, 441, 442, 443, 444, 445, 446, 447, 448, 449, 450, 451, 452, 453, 454, 455, 456, 457, 458, 459, 460, 461, 462, 463, 464, 465, 466, 467, 468, 469, 470, 471, 472, 473, 474, 475, 476, 477, 478, 479, 480, 481, 482, 483, 484],
      "AcquisitionTime": ["095413.605000", "095415.095000", "095416.585000", "095418.075000", "095419.565000", "095421.055000", "095422.545000", "095424.035000", "095425.525000", "095427.015000", "095428.505000", "095429.995000", "095431.485000", "095432.975000", "095434.465000", "095435.955000", "095437.445000", "095438.935000", "095440.425000", "095441.915000", "095443.405000", "095444.895000", "095446.385000", "095447.875000", "095449.365000", "095450.855000", "095452.345000", "095453.835000", "095455.325000", "095456.815000", "095458.305000", "095459.795000", "095501.285000", "095502.775000", "095504.265000", "095505.755000", "095507.245000", "095508.735000", "095510.225000", "095511.715000", "095513.205000", "095514.695000", "095516.185000", "095517.675000", "095519.165000", "095520.655000", "095522.145000", "095523.635000", "095525.125000", "095526.615000", "095528.105000", "095529.595000", "095531.085000", "095532.575000", "095534.065000", "095535.555000", "095537.045000", "095538.535000", "095540.025000", "095541.515000", "095543.005000", "095544.495000", "095545.985000", "095547.475000", "095548.965000", "095550.455000", "095551.945000", "095553.435000", "095554.925000", "095556.415000", "095557.905000", "095559.395000", "095600.885000", "095602.375000", "095603.865000", "095605.355000", "095606.845000", "095608.335000", "095609.825000", "095611.315000", "095612.805000", "095614.295000", "095615.785000", "095617.275000", "095618.765000", "095620.255000", "095621.745000", "095623.235000", "095624.725000", "095626.215000", "095627.705000", "095629.195000", "095630.685000", "095632.175000", "095633.665000", "095635.155000", "095636.645000", "095638.135000", "095639.625000", "095641.115000", "095642.605000", "095644.095000", "095645.585000", "095647.075000", "095648.565000", "095650.055000", "095651.545000", "095653.035000", "095654.525000", "095656.015000", "095657.505000", "095658.995000", "095700.485000", "095701.975000", "095703.465000", "095704.955000", "095706.445000", "095707.935000", "095709.425000", "095710.915000", "095712.405000", "095713.895000", "095715.385000", "095716.875000", "095718.365000", "095719.855000", "095721.345000", "095722.835000", "095724.325000", "095725.815000", "095727.305000", "095728.795000", "095730.285000", "095731.775000", "095733.265000", "095734.755000", "095736.245000", "095737.735000", "095739.225000", "095740.715000", "095742.205000", "095743.695000", "095745.185000", "095746.675000", "095748.165000", "095749.655000", "095751.145000", "095752.635000", "095754.125000", "095755.615000", "095757.105000", "095758.595000", "095800.085000", "095801.575000", "095803.065000", "095804.555000", "095806.045000", "095807.535000", "095809.025000", "095810.515000", "095812.005000", "095813.495000", "095814.985000", "095816.475000", "095817.965000", "095819.455000", "095820.945000", "095822.435000", "095823.925000", "095825.415000", "095826.905000", "095828.395000", "095829.885000", "095831.375000", "095832.865000", "095834.355000", "095835.845000", "095837.335000", "095838.825000", "095840.315000", "095841.805000", "095843.295000", "095844.785000", "095846.275000", "095847.765000", "095849.255000", "095850.745000", "095852.235000", "095853.725000", "095855.215000", "095856.705000", "095858.195000", "095859.685000", "095901.175000", "095902.665000", "095904.155000", "095905.645000", "095907.135000", "095908.625000", "095910.115000", "095911.605000", "095913.095000", "095914.585000", "095916.075000", "095917.565000", "095919.055000", "095920.545000", "095922.035000", "095923.525000", "095925.015000", "095926.505000", "095927.995000", "095929.485000", "095930.975000", "095932.465000", "095933.955000", "095935.445000", "095936.935000", "095938.425000", "095939.915000", "095941.405000", "095942.895000", "095944.385000", "095945.875000", "095947.365000", "095948.855000", "095950.345000", "095951.835000", "095953.325000", "095954.815000", "095956.305000", "095957.795000", "095959.285000", "100000.775000", "100002.265000", "100003.755000", "100005.245000", "100006.735000", "100008.225000", "100009.715000", "100011.205000", "100012.695000", "100014.185000", "100015.675000", "100017.165000", "100018.655000", "100020.145000", "100021.635000", "100023.125000", "100024.615000", "100026.105000", "100027.595000", "100029.085000", "100030.575000", "100032.065000", "100033.555000", "100035.045000", "100036.535000", "100038.025000", "100039.515000", "100041.005000", "100042.495000", "100043.985000", "100045.475000", "100046.965000", "100048.455000", "100049.945000", "100051.435000", "100052.925000", "100054.415000", "100055.905000", "100057.395000", "100058.885000", "100100.375000", "100101.865000", "100103.355000", "100104.845000", "100106.335000", "100107.825000", "100109.315000", "100110.805000", "100112.295000", "100113.785000", "100115.275000", "100116.765000", "100118.255000", "100119.745000", "100121.235000", "100122.725000", "100124.215000", "100125.705000", "100127.195000", "100128.685000", "100130.175000", "100131.665000", "100133.155000", "100134.645000", "100136.135000", "100137.625000", "100139.115000", "100140.605000", "100142.095000", "100143.585000", "100145.075000", "100146.565000", "100148.055000", "100149.545000", "100151.035000", "100152.525000", "100154.015000", "100155.505000", "100156.995000", "100158.485000", "100159.975000", "100201.465000", "100202.955000", "100204.445000", "100205.935000", "100207.425000", "100208.915000", "100210.405000", "100211.895000", "100213.385000", "100214.875000", "100216.365000", "100217.855000", "100219.345000", "100220.835000", "100222.325000", "100223.815000", "100225.305000", "100226.795000", "100228.285000", "100229.775000", "100231.265000", "100232.755000", "100234.245000", "100235.735000", "100237.225000", "100238.715000", "100240.205000", "100241.695000", "100243.185000", "100244.675000", "100246.165000", "100247.655000", "100249.145000", "100250.635000", "100252.125000", "100253.615000", "100255.105000", "100256.595000", "100258.085000", "100259.575000", "100301.065000", "100302.555000", "100304.045000", "100305.535000", "100307.025000", "100308.515000", "100310.005000", "100311.495000", "100312.985000", "100314.475000", "100315.965000", "100317.455000", "100318.945000", "100320.435000", "100321.925000", "100323.415000", "100324.905000", "100326.395000", "100327.885000", "100329.375000", "100330.865000", "100332.355000", "100333.845000", "100335.335000", "100336.825000", "100338.315000", "100339.805000", "100341.295000", "100342.785000", "100344.275000", "100345.765000", "100347.255000", "100348.745000", "100350.235000", "100351.725000", "100353.215000", "100354.705000", "100356.195000", "100357.685000", "100359.175000", "100400.665000", "100402.155000", "100403.645000", "100405.135000", "100406.625000", "100408.115000", "100409.605000", "100411.095000", "100412.585000", "100414.075000", "100415.565000", "100417.055000", "100418.545000", "100420.035000", "100421.525000", "100423.015000", "100424.505000", "100425.995000", "100427.485000", "100428.975000", "100430.465000", "100431.955000", "100433.445000", "100434.935000", "100436.425000", "100437.915000", "100439.405000", "100440.895000", "100442.385000", "100443.875000", "100445.365000", "100446.855000", "100448.345000", "100449.835000", "100451.325000", "100452.815000", "100454.305000", "100455.795000", "100457.285000", "100458.775000", "100500.265000", "100501.755000", "100503.245000", "100504.735000", "100506.225000", "100507.715000", "100509.205000", "100510.695000", "100512.185000", "100513.675000", "100515.165000", "100516.655000", "100518.145000", "100519.635000", "100521.125000", "100522.615000", "100524.105000", "100525.595000", "100527.085000", "100528.575000", "100530.065000", "100531.555000", "100533.045000", "100534.535000", "100536.025000", "100537.515000", "100539.005000", "100540.495000", "100541.985000", "100543.475000", "100544.965000", "100546.455000", "100547.945000", "100549.435000", "100550.925000", "100552.415000", "100553.905000", "100555.395000", "100556.885000", "100558.375000", "100559.865000", "100601.355000", "100602.845000", "100604.335000", "100605.825000", "100607.315000", "100608.805000", "100610.295000", "100611.785000", "100613.275000"],
      "ContentTime": ["095537.857000", "095537.861000", "095537.864000", "095537.868000", "095537.878000", "095537.881000", "095537.884000", "095537.887000", "095537.890000", "095537.893000", "095537.896000", "095537.899000", "095537.903000", "095537.906000", "095537.909000", "095537.912000", "095537.920000", "095537.923000", "095537.926000", "095537.929000", "095537.932000", "095537.936000", "095537.939000", "095537.942000", "095537.945000", "095537.948000", "095537.951000", "095537.954000", "095537.957000", "095537.960000", "095537.963000", "095557.826000", "095557.829000", "095557.832000", "095557.835000", "095557.838000", "095557.842000", "095557.845000", "095557.847000", "095557.851000", "095557.854000", "095557.857000", "095557.860000", "095557.862000", "095557.866000", "095557.869000", "095557.872000", "095557.875000", "095557.878000", "095557.881000", "095557.884000", "095557.887000", "095617.826000", "095617.829000", "095617.832000", "095617.835000", "095617.838000", "095617.841000", "095617.844000", "095617.847000", "095617.850000", "095617.853000", "095617.856000", "095617.859000", "095617.862000", "095617.865000", "095617.868000", "095617.871000", "095617.874000", "095617.881000", "095617.884000", "095617.887000", "095637.826000", "095637.829000", "095637.832000", "095637.835000", "095637.838000", "095637.841000", "095637.844000", "095637.847000", "095637.850000", "095637.853000", "095637.856000", "095637.859000", "095637.862000", "095637.865000", "095637.868000", "095637.871000", "095637.874000", "095637.877000", "095637.880000", "095637.883000", "095717.826000", "095717.829000", "095717.832000", "095717.835000", "095717.838000", "095717.841000", "095717.845000", "095717.848000", "095717.851000", "095717.854000", "095717.857000", "095717.860000", "095717.863000", "095717.866000", "095717.869000", "095717.872000", "095717.875000", "095717.878000", "095717.881000", "095717.884000", "095717.887000", "095717.890000", "095717.893000", "095717.896000", "095717.899000", "095717.902000", "095717.905000", "095717.908000", "095717.911000", "095717.914000", "095717.917000", "095757.826000", "095757.829000", "095757.832000", "095757.835000", "095757.838000", "095757.841000", "095757.844000", "095757.847000", "095757.850000", "095757.853000", "095757.857000", "095757.859000", "095757.862000", "095757.866000", "095757.869000", "095757.871000", "095757.874000", "095757.878000", "095757.881000", "095757.884000", "095757.886000", "095757.890000", "095757.893000", "095757.896000", "095757.899000", "095757.902000", "095757.905000", "095837.826000", "095837.829000", "095837.832000", "095837.835000", "095837.838000", "095837.841000", "095837.844000", "095837.847000", "095837.850000", "095837.854000", "095837.857000", "095837.860000", "095837.863000", "095837.866000", "095837.869000", "095837.872000", "095837.875000", "095837.878000", "095837.881000", "095837.884000", "095837.887000", "095837.890000", "095837.893000", "095837.896000", "095837.899000", "095837.902000", "095837.905000", "095917.826000", "095917.830000", "095917.833000", "095917.836000", "095917.839000", "095917.842000", "095917.845000", "095917.848000", "095917.851000", "095917.854000", "095917.872000", "095917.883000", "095917.886000", "095917.889000", "095917.892000", "095917.895000", "095917.898000", "095917.901000", "095917.904000", "095917.908000", "095917.910000", "095917.913000", "095917.916000", "095917.920000", "095917.923000", "095917.926000", "095917.929000", "095957.826000", "095957.829000", "095957.832000", "095957.835000", "095957.838000", "095957.842000", "095957.845000", "095957.848000", "095957.851000", "095957.854000", "095957.857000", "095957.860000", "095957.863000", "095957.866000", "095957.869000", "095957.872000", "095957.875000", "095957.878000", "095957.881000", "095957.884000", "095957.887000", "095957.890000", "095957.893000", "095957.896000", "095957.900000", "095957.903000", "100037.826000", "100037.829000", "100037.832000", "100037.835000", "100037.838000", "100037.841000", "100037.844000", "100037.847000", "100037.851000", "100037.854000", "100037.857000", "100037.860000", "100037.863000", "100037.866000", "100037.869000", "100037.872000", "100037.875000", "100037.878000", "100037.881000", "100037.884000", "100037.887000", "100037.890000", "100037.893000", "100037.896000", "100037.900000", "100037.903000", "100037.906000", "100117.826000", "100117.829000", "100117.832000", "100117.836000", "100117.839000", "100117.842000", "100117.845000", "100117.848000", "100117.851000", "100117.854000", "100117.857000", "100117.860000", "100117.863000", "100117.866000", "100117.869000", "100117.872000", "100117.875000", "100117.878000", "100117.881000", "100117.884000", "100117.887000", "100117.890000", "100117.893000", "100117.896000", "100117.899000", "100117.902000", "100117.905000", "100157.826000", "100157.829000", "100157.832000", "100157.835000", "100157.838000", "100157.841000", "100157.845000", "100157.848000", "100157.851000", "100157.853000", "100157.857000", "100157.860000", "100157.863000", "100157.866000", "100157.869000", "100157.872000", "100157.875000", "100157.878000", "100157.881000", "100157.884000", "100157.887000", "100157.890000", "100157.893000", "100157.896000", "100157.899000", "100157.902000", "100157.905000", "100237.826000", "100237.829000", "100237.832000", "100237.835000", "100237.838000", "100237.842000", "100237.845000", "100237.848000", "100237.851000", "100237.854000", "100237.857000", "100237.860000", "100237.863000", "100237.866000", "100237.869000", "100237.873000", "100237.876000", "100237.885000", "100237.888000", "100237.891000", "100237.894000", "100237.898000", "100237.900000", "100237.903000", "100237.907000", "100237.910000", "100237.913000", "100317.826000", "100317.829000", "100317.832000", "100317.835000", "100317.839000", "100317.842000", "100317.845000", "100317.848000", "100317.851000", "100317.854000", "100317.857000", "100317.860000", "100317.863000", "100317.866000", "100317.869000", "100317.872000", "100317.875000", "100317.878000", "100317.881000", "100317.884000", "100317.887000", "100317.890000", "100317.893000", "100317.896000", "100317.899000", "100317.902000", "100317.905000", "100357.826000", "100357.829000", "100357.832000", "100357.835000", "100357.838000", "100357.842000", "100357.845000", "100357.848000", "100357.851000", "100357.854000", "100357.865000", "100357.868000", "100357.871000", "100357.874000", "100357.877000", "100357.880000", "100357.883000", "100357.886000", "100357.889000", "100357.892000", "100357.895000", "100357.898000", "100357.901000", "100357.904000", "100357.907000", "100357.910000", "100437.826000", "100437.829000", "100437.832000", "100437.835000", "100437.838000", "100437.841000", "100437.845000", "100437.848000", "100437.851000", "100437.854000", "100437.857000", "100437.869000", "100437.872000", "100437.875000", "100437.878000", "100437.881000", "100437.884000", "100437.887000", "100437.890000", "100437.893000", "100437.896000", "100437.899000", "100437.902000", "100437.905000", "100437.908000", "100437.911000", "100437.914000", "100517.826000", "100517.829000", "100517.832000", "100517.835000", "100517.839000", "100517.842000", "100517.845000", "100517.848000", "100517.851000", "100517.854000", "100517.857000", "100517.860000", "100517.863000", "100517.866000", "100517.869000", "100517.872000", "100517.875000", "100517.878000", "100517.881000", "100517.884000", "100517.887000", "100517.890000", "100517.893000", "100517.896000", "100517.899000", "100517.902000", "100517.905000", "100557.826000", "100557.829000", "100557.832000", "100557.836000", "100557.839000", "100557.842000", "100557.845000", "100557.848000", "100557.851000", "100557.854000", "100557.857000", "100557.870000", "100557.873000", "100557.876000", "100557.879000", "100557.882000", "100557.885000", "100557.888000", "100557.891000", "100557.894000", "100557.897000", "100557.900000", "100557.903000", "100557.906000", "100557.909000", "100557.912000", "100557.915000", "100615.050000", "100615.053000", "100615.056000", "100615.059000", "100615.066000", "100615.069000", "100615.072000", "100615.075000", "100615.079000", "100615.082000", "100615.085000", "100615.088000"],
