{
  "AcquisitionMatrixPE": 104,
  "AcquisitionNumber": 1,
  "AcquisitionTime": "10:31:32.235000",
  "BandwidthPerPixelPhaseEncode": 17.17,
  "BaseResolution": 104,
  "BodyPartExamined": "BRAIN",
  "CoilString": "HC1-7;NC1_2",
  "ConsistencyInfo": "N4_VE11C_LATEST_20160120",
  "ConversionSoftware": "dcm2niix",
  "ConversionSoftwareVersion": "v1.0.20190902",
  "DerivedVendorReportedEchoSpacing": 0.000560011,
  "DeviceSerialNumber": "167006",
  "DwellTime": 2.1e-06,
  "EchoTime": 0.037,
  "EchoTrainLength": 104,
  "EffectiveEchoSpacing": 0.000560011,
  "FlipAngle": 52,
  "ImageComments": "Unaliased_MB4_PE3_LB",
  "ImageOrientationPatientDICOM": [0.998322, 0.0529923, 0.0233398, -0.046032, 0.970832, -0.2353],
  "ImageType": [
    "ORIGINAL",
    "PRIMARY",
    "M",
    "MB",
    "ND",
    "MOSAIC"
],
  "ImagingFrequency": 123.259,
  "InPlanePhaseEncodingDirectionDICOM": "COL",
  "InstitutionAddress": "Chemin_Queen-Mary_4565_Montreal_District_CA_H3W_1W5",
  "InstitutionName": "IUGM",
  "InstitutionalDepartmentName": "Department",
  "MRAcquisitionType": "2D",
  "MagneticFieldStrength": 3,
  "Manufacturer": "Siemens",
  "ManufacturersModelName": "Prisma_fit",
  "Modality": "MR",
  "MultibandAccelerationFactor": 4,
  "PartialFourier": 1,
  "PatientPosition": "HFS",
  "PercentPhaseFOV": 100,
  "PhaseEncodingDirection": "j",
  "PhaseEncodingSteps": 104,
  "PhaseResolution": 1,
  "PixelBandwidth": 2290,
  "ProcedureStepDescription": "video_friends",
  "ProtocolName": "func_task-friends-s03e06b",
  "PulseSequenceDetails": "%CustomerSeq%_cmrr_mbep2d_bold",
  "ReceiveCoilActiveElements": "HC1-7;NC1,2",
  "ReceiveCoilName": "HeadNeck_64",
  "ReconMatrixPE": 104,
  "RepetitionTime": 1.49,
  "SAR": 0.0386341,
  "ScanOptions": "FS",
  "ScanningSequence": "EP",
  "SequenceName": "epfid2d1_104",
  "SequenceVariant": "SK_SS",
  "SeriesDescription": "func_task-friends-s03e06b",
  "SeriesNumber": 19,
  "ShimSetting": [640, -7220, -8807, 672, 94, -82, 122, -10],
  "SliceThickness": 2,
  "SliceTiming": [0, 0.7825, 0.0975, 0.88, 0.195, 0.98, 0.2925, 1.0775, 0.39, 1.175, 0.49, 1.2725, 0.5875, 1.37, 0.685, 0, 0.7825, 0.0975, 0.88, 0.195, 0.98, 0.2925, 1.0775, 0.39, 1.175, 0.49, 1.2725, 0.5875, 1.37, 0.685, 0, 0.7825, 0.0975, 0.88, 0.195, 0.98, 0.2925, 1.0775, 0.39, 1.175, 0.49, 1.2725, 0.5875, 1.37, 0.685, 0, 0.7825, 0.0975, 0.88, 0.195, 0.98, 0.2925, 1.0775, 0.39, 1.175, 0.49, 1.2725, 0.5875, 1.37, 0.685],
  "SoftwareVersions": "syngo_MR_E11",
  "SpacingBetweenSlices": 2,
  "StationName": "MRC35049",
  "TaskName": "s03e06b",
  "TotalReadoutTime": 0.0576811,
  "TxRefAmp": 246.165,
  "WipMemBlock": "db736657-9c70-4a49-9c9c-b47a137baa83||Sequence: R016 ve11c/master r/e634e98; Dec 19 2017 11:00:25 by eja",
  "dcmmeta_affine": [
    [-1.9966442584991455, -0.09206394851207733, 0.07025627791881561, 105.73994445800781],
    [-0.10598453879356384, 1.941664218902588, -0.4676613211631775, -71.10829162597656],
    [0.04667968302965164, 0.4705997109413147, 1.9432851076126099, -45.960968017578125],
    [0.0, 0.0, 0.0, 1.0]
],
  "dcmmeta_reorient_transform": [
    [0.0, -1.0, 0.0, 103.0],
    [1.0, 0.0, 0.0, 0.0],
    [0.0, 0.0, 1.0, 0.0],
    [0.0, 0.0, 0.0, 1.0]
],
  "dcmmeta_shape": [104, 104, 60, 470],
  "dcmmeta_slice_dim": 2,
  "dcmmeta_version": 0.6,
  "global": {
    "const": {
      "AcquisitionMatrix": [104, 0, 0, 104],
      "AngioFlag": "N",
      "BitsAllocated": 16,
      "BitsStored": 16,
      "BodyPartExamined": "BRAIN",
      "Columns": 832,
      "EchoNumbers": 1,
      "EchoTime": 37.0,
      "EchoTrainLength": 104,
      "FlipAngle": 52.0,
      "HighBit": 15,
      "ImageOrientationPatient": [0.99832212795782, 0.05299226984334, 0.0233398407583, -0.0460319733607, 0.97083213728051, -0.235299848389],
      "ImagePositionPatient": [-789.52458897038, -874.22729460546, 156.81768725572],
      "ImageType": [
        "ORIGINAL",
        "PRIMARY",
        "M",
        "MB",
        "ND",
        "MOSAIC"
],
      "ImagedNucleus": "1H",
      "ImagingFrequency": 123.25935,
      "InPlanePhaseEncodingDirection": "COL",
      "MRAcquisitionType": "2D",
      "MagneticFieldStrength": 3.0,
      "Manufacturer": "SIEMENS",
      "ManufacturerModelName": "Prisma_fit",
      "Modality": "MR",
      "NumberOfAverages": 1.0,
      "NumberOfPhaseEncodingSteps": 104,
      "PercentPhaseFieldOfView": 100.0,
      "PercentSampling": 100.0,
      "PerformedProcedureStepStartTime": "085551.308000",
      "PhotometricInterpretation": "MONOCHROME2",
      "PixelBandwidth": 2290.0,
      "PixelRepresentation": 0,
      "PixelSpacing": [2.0, 2.0],
      "ProtocolName": "func_task-friends-s03e06b",
      "RepetitionTime": 1490.0,
      "Rows": 832,
      "SAR": 0.03863406078952,
      "SamplesPerPixel": 1,
      "ScanOptions": "FS",
      "ScanningSequence": "EP",
      "SequenceName": "epfid2d1_104",
      "SequenceVariant": [
        "SK",
        "SS"
],
      "SeriesDescription": "func_task-friends-s03e06b",
      "SeriesNumber": 19,
      "SeriesTime": "103257.856000",
      "SliceLocation": -24.315883597844,
      "SliceThickness": 2.0,
      "SmallestImagePixelValue": 0,
      "SoftwareVersions": "syngo MR E11",
      "SpacingBetweenSlices": 1.999999999936,
      "SpecificCharacterSet": "ISO_IR 100",
      "StudyID": "1",
      "StudyTime": "085551.105000",
      "TransmitCoilName": "Body",
      "VariableFlipAngleFlag": "N",
      "WindowCenterWidthExplanation": "Algo1",
      "dBdt": 0.0},
    "slices": {}
  },
  "time": {
    "samples": {
      "AcquisitionNumber": [1, 2, 3, 4, 5, 6, 7, 8, 9, 10, 11, 12, 13, 14, 15, 16, 17, 18, 19, 20, 21, 22, 23, 24, 25, 26, 27, 28, 29, 30, 31, 32, 33, 34, 35, 36, 37, 38, 39, 40, 41, 42, 43, 44, 45, 46, 47, 48, 49, 50, 51, 52, 53, 54, 55, 56, 57, 58, 59, 60, 61, 62, 63, 64, 65, 66, 67, 68, 69, 70, 71, 72, 73, 74, 75, 76, 77, 78, 79, 80, 81, 82, 83, 84, 85, 86, 87, 88, 89, 90, 91, 92, 93, 94, 95, 96, 97, 98, 99, 100, 101, 102, 103, 104, 105, 106, 107, 108, 109, 110, 111, 112, 113, 114, 115, 116, 117, 118, 119, 120, 121, 122, 123, 124, 125, 126, 127, 128, 129, 130, 131, 132, 133, 134, 135, 136, 137, 138, 139, 140, 141, 142, 143, 144, 145, 146, 147, 148, 149, 150, 151, 152, 153, 154, 155, 156, 157, 158, 159, 160, 161, 162, 163, 164, 165, 166, 167, 168, 169, 170, 171, 172, 173, 174, 175, 176, 177, 178, 179, 180, 181, 182, 183, 184, 185, 186, 187, 188, 189, 190, 191, 192, 193, 194, 195, 196, 197, 198, 199, 200, 201, 202, 203, 204, 205, 206, 207, 208, 209, 210, 211, 212, 213, 214, 215, 216, 217, 218, 219, 220, 221, 222, 223, 224, 225, 226, 227, 228, 229, 230, 231, 232, 233, 234, 235, 236, 237, 238, 239, 240, 241, 242, 243, 244, 245, 246, 247, 248, 249, 250, 251, 252, 253, 254, 255, 256, 257, 258, 259, 260, 261, 262, 263, 264, 265, 266, 267, 268, 269, 270, 271, 272, 273, 274, 275, 276, 277, 278, 279, 280, 281, 282, 283, 284, 285, 286, 287, 288, 289, 290, 291, 292, 293, 294, 295, 296, 297, 298, 299, 300, 301, 302, 303, 304, 305, 306, 307, 308, 309, 310, 311, 312, 313, 314, 315, 316, 317, 318, 319, 320, 321, 322, 323, 324, 325, 326, 327, 328, 329, 330, 331, 332, 333, 334, 335, 336, 337, 338, 339, 340, 341, 342, 343, 344, 345, 346, 347, 348, 349, 350, 351, 352, 353, 354, 355, 356, 357, 358, 359, 360, 361, 362, 363, 364, 365, 366, 367, 368, 369, 370, 371, 372, 373, 374, 375, 376, 377, 378, 379, 380, 381, 382, 383, 384, 385, 386, 387, 388, 389, 390, 391, 392, 393, 394, 395, 396, 397, 398, 399, 400, 401, 402, 403, 404, 405, 406, 407, 408, 409, 410, 411, 412, 413, 414, 415, 416, 417, 418, 419, 420, 421, 422, 423, 424, 425, 426, 427, 428, 429, 430, 431, 432, 433, 434, 435, 436, 437, 438, 439, 440, 441, 442, 443, 444, 445, 446, 447, 448, 449, 450, 451, 452, 453, 454, 455, 456, 457, 458, 459, 460, 461, 462, 463, 464, 465, 466, 467, 468, 469, 470],
      "AcquisitionTime": ["103132.235000", "103133.725000", "103135.215000", "103136.705000", "103138.195000", "103139.685000", "103141.175000", "103142.665000", "103144.155000", "103145.645000", "103147.135000", "103148.625000", "103150.115000", "103151.605000", "103153.095000", "103154.585000", "103156.075000", "103157.565000", "103159.055000", "103200.545000", "103202.035000", "103203.525000", "103205.015000", "103206.505000", "103207.995000", "103209.485000", "103210.975000", "103212.465000", "103213.955000", "103215.445000", "103216.935000", "103218.425000", "103219.915000", "103221.405000", "103222.895000", "103224.385000", "103225.875000", "103227.365000", "103228.855000", "103230.345000", "103231.835000", "103233.325000", "103234.815000", "103236.305000", "103237.795000", "103239.285000", "103240.775000", "103242.265000", "103243.755000", "103245.245000", "103246.735000", "103248.225000", "103249.715000", "103251.205000", "103252.695000", "103254.185000", "103255.675000", "103257.165000", "103258.655000", "103300.145000", "103301.635000", "103303.125000", "103304.615000", "103306.105000", "103307.595000", "103309.085000", "103310.575000", "103312.065000", "103313.555000", "103315.045000", "103316.535000", "103318.025000", "103319.515000", "103321.005000", "103322.495000", "103323.985000", "103325.475000", "103326.965000", "103328.455000", "103329.945000", "103331.435000", "103332.925000", "103334.415000", "103335.905000", "103337.395000", "103338.885000", "103340.375000", "103341.865000", "103343.355000", "103344.845000", "103346.335000", "103347.825000", "103349.315000", "103350.805000", "103352.295000", "103353.785000", "103355.275000", "103356.765000", "103358.255000", "103359.745000", "103401.235000", "103402.725000", "103404.215000", "103405.705000", "103407.195000", "103408.685000", "103410.175000", "103411.665000", "103413.155000", "103414.645000", "103416.135000", "103417.625000", "103419.115000", "103420.605000", "103422.095000", "103423.585000", "103425.075000", "103426.565000", "103428.055000", "103429.545000", "103431.035000", "103432.525000", "103434.015000", "103435.505000", "103436.995000", "103438.485000", "103439.975000", "103441.465000", "103442.955000", "103444.445000", "103445.935000", "103447.425000", "103448.915000", "103450.405000", "103451.895000", "103453.385000", "103454.875000", "103456.365000", "103457.855000", "103459.345000", "103500.835000", "103502.325000", "103503.815000", "103505.305000", "103506.795000", "103508.285000", "103509.775000", "103511.265000", "103512.755000", "103514.245000", "103515.735000", "103517.225000", "103518.715000", "103520.205000", "103521.695000", "103523.185000", "103524.675000", "103526.165000", "103527.655000", "103529.145000", "103530.635000", "103532.125000", "103533.615000", "103535.105000", "103536.595000", "103538.085000", "103539.575000", "103541.065000", "103542.555000", "103544.045000", "103545.535000", "103547.025000", "103548.515000", "103550.005000", "103551.495000", "103552.985000", "103554.475000", "103555.965000", "103557.455000", "103558.945000", "103600.435000", "103601.925000", "103603.415000", "103604.905000", "103606.395000", "103607.885000", "103609.375000", "103610.865000", "103612.355000", "103613.845000", "103615.335000", "103616.825000", "103618.315000", "103619.805000", "103621.295000", "103622.785000", "103624.275000", "103625.765000", "103627.255000", "103628.745000", "103630.235000", "103631.725000", "103633.215000", "103634.705000", "103636.195000", "103637.685000", "103639.175000", "103640.665000", "103642.155000", "103643.645000", "103645.135000", "103646.625000", "103648.115000", "103649.605000", "103651.095000", "103652.585000", "103654.075000", "103655.565000", "103657.055000", "103658.545000", "103700.035000", "103701.525000", "103703.015000", "103704.505000", "103705.995000", "103707.485000", "103708.975000", "103710.465000", "103711.955000", "103713.445000", "103714.935000", "103716.425000", "103717.915000", "103719.405000", "103720.895000", "103722.385000", "103723.875000", "103725.365000", "103726.855000", "103728.345000", "103729.835000", "103731.325000", "103732.815000", "103734.305000", "103735.795000", "103737.285000", "103738.775000", "103740.265000", "103741.755000", "103743.245000", "103744.735000", "103746.225000", "103747.715000", "103749.205000", "103750.695000", "103752.185000", "103753.675000", "103755.165000", "103756.655000", "103758.145000", "103759.635000", "103801.125000", "103802.615000", "103804.105000", "103805.595000", "103807.085000", "103808.575000", "103810.065000", "103811.555000", "103813.045000", "103814.535000", "103816.025000", "103817.515000", "103819.005000", "103820.495000", "103821.985000", "103823.475000", "103824.965000", "103826.455000", "103827.945000", "103829.435000", "103830.925000", "103832.415000", "103833.905000", "103835.395000", "103836.885000", "103838.375000", "103839.865000", "103841.355000", "103842.845000", "103844.335000", "103845.825000", "103847.315000", "103848.805000", "103850.295000", "103851.785000", "103853.275000", "103854.765000", "103856.255000", "103857.745000", "103859.235000", "103900.725000", "103902.215000", "103903.705000", "103905.195000", "103906.685000", "103908.175000", "103909.665000", "103911.155000", "103912.645000", "103914.135000", "103915.625000", "103917.115000", "103918.605000", "103920.095000", "103921.585000", "103923.075000", "103924.565000", "103926.055000", "103927.545000", "103929.035000", "103930.525000", "103932.015000", "103933.505000", "103934.995000", "103936.485000", "103937.975000", "103939.465000", "103940.955000", "103942.445000", "103943.935000", "103945.425000", "103946.915000", "103948.405000", "103949.895000", "103951.385000", "103952.875000", "103954.365000", "103955.855000", "103957.345000", "103958.835000", "104000.325000", "104001.815000", "104003.305000", "104004.795000", "104006.285000", "104007.775000", "104009.265000", "104010.755000", "104012.245000", "104013.735000", "104015.225000", "104016.715000", "104018.205000", "104019.695000", "104021.185000", "104022.675000", "104024.165000", "104025.655000", "104027.145000", "104028.635000", "104030.125000", "104031.615000", "104033.105000", "104034.595000", "104036.085000", "104037.575000", "104039.065000", "104040.555000", "104042.045000", "104043.535000", "104045.025000", "104046.515000", "104048.005000", "104049.495000", "104050.985000", "104052.475000", "104053.965000", "104055.455000", "104056.945000", "104058.435000", "104059.925000", "104101.415000", "104102.905000", "104104.395000", "104105.885000", "104107.375000", "104108.865000", "104110.355000", "104111.845000", "104113.335000", "104114.825000", "104116.315000", "104117.805000", "104119.295000", "104120.785000", "104122.275000", "104123.765000", "104125.255000", "104126.745000", "104128.235000", "104129.725000", "104131.215000", "104132.705000", "104134.195000", "104135.685000", "104137.175000", "104138.665000", "104140.155000", "104141.645000", "104143.135000", "104144.625000", "104146.115000", "104147.605000", "104149.095000", "104150.585000", "104152.075000", "104153.565000", "104155.055000", "104156.545000", "104158.035000", "104159.525000", "104201.015000", "104202.505000", "104203.995000", "104205.485000", "104206.975000", "104208.465000", "104209.955000", "104211.445000", "104212.935000", "104214.425000", "104215.915000", "104217.405000", "104218.895000", "104220.385000", "104221.875000", "104223.365000", "104224.855000", "104226.345000", "104227.835000", "104229.325000", "104230.815000", "104232.305000", "104233.795000", "104235.285000", "104236.775000", "104238.265000", "104239.755000", "104241.245000", "104242.735000", "104244.225000", "104245.715000", "104247.205000", "104248.695000", "104250.185000", "104251.675000", "104253.165000", "104254.655000", "104256.145000", "104257.635000", "104259.125000", "104300.615000", "104302.105000", "104303.595000", "104305.085000", "104306.575000", "104308.065000", "104309.555000", "104311.045000"],
      "ContentTime": ["103257.859000", "103257.863000", "103257.866000", "103257.869000", "103257.872000", "103257.875000", "103257.878000", "103257.881000", "103257.884000", "103257.887000", "103257.890000", "103257.893000", "103257.896000", "103257.900000", "103257.902000", "103257.905000", "103257.908000", "103257.912000", "103257.914000", "103257.917000", "103257.920000", "103257.923000", "103257.926000", "103257.929000", "103257.932000", "103257.956000", "103257.959000", "103257.962000", "103257.965000", "103257.968000", "103257.971000", "103257.974000", "103317.826000", "103317.829000", "103317.832000", "103317.835000", "103317.838000", "103317.841000", "103317.844000", "103317.847000", "103317.850000", "103317.853000", "103317.856000", "103317.859000", "103317.862000", "103317.865000", "103317.868000", "103317.871000", "103317.874000", "103317.877000", "103317.880000", "103317.883000", "103337.826000", "103337.829000", "103337.832000", "103337.835000", "103337.838000", "103337.841000", "103337.844000", "103337.847000", "103337.850000", "103337.853000", "103337.856000", "103337.859000", "103337.870000", "103337.873000", "103337.876000", "103337.879000", "103337.882000", "103337.885000", "103337.888000", "103337.891000", "103357.826000", "103357.829000", "103357.832000", "103357.835000", "103357.838000", "103357.841000", "103357.844000", "103357.847000", "103357.850000", "103357.853000", "103357.856000", "103357.859000", "103357.862000", "103357.865000", "103357.868000", "103357.871000", "103357.874000", "103357.877000", "103357.880000", "103357.883000", "103437.826000", "103437.829000", "103437.832000", "103437.835000", "103437.838000", "103437.841000", "103437.844000", "103437.847000", "103437.850000", "103437.853000", "103437.856000", "103437.859000", "103437.862000", "103437.865000", "103437.868000", "103437.871000", "103437.875000", "103437.878000", "103437.887000", "103437.890000", "103437.893000", "103437.896000", "103437.899000", "103437.902000", "103437.906000", "103437.908000", "103437.911000", "103437.914000", "103437.918000", "103437.921000", "103437.924000", "103437.926000", "103517.826000", "103517.829000", "103517.832000", "103517.835000", "103517.838000", "103517.841000", "103517.844000", "103517.847000", "103517.850000", "103517.853000", "103517.857000", "103517.860000", "103517.862000", "103517.865000", "103517.869000", "103517.872000", "103517.875000", "103517.877000", "103517.881000", "103517.883000", "103517.886000", "103517.889000", "103517.893000", "103517.896000", "103517.899000", "103517.902000", "103517.905000", "103557.826000", "103557.829000", "103557.832000", "103557.835000", "103557.838000", "103557.842000", "103557.844000", "103557.847000", "103557.850000", "103557.854000", "103557.857000", "103557.860000", "103557.863000", "103557.866000", "103557.869000", "103557.872000", "103557.875000", "103557.878000", "103557.881000", "103557.894000", "103557.897000", "103557.900000", "103557.903000", "103557.906000", "103557.909000", "103557.912000", "103557.915000", "103637.826000", "103637.829000", "103637.832000", "103637.835000", "103637.839000", "103637.842000", "103637.845000", "103637.848000", "103637.851000", "103637.854000", "103637.857000", "103637.860000", "103637.863000", "103637.866000", "103637.869000", "103637.872000", "103637.875000", "103637.878000", "103637.881000", "103637.884000", "103637.887000", "103637.890000", "103637.893000", "103637.896000", "103637.899000", "103637.902000", "103637.905000", "103717.826000", "103717.829000", "103717.832000", "103717.835000", "103717.838000", "103717.841000", "103717.844000", "103717.847000", "103717.861000", "103717.864000", "103717.867000", "103717.870000", "103717.873000", "103717.876000", "103717.879000", "103717.882000", "103717.885000", "103717.888000", "103717.891000", "103717.894000", "103717.897000", "103717.900000", "103717.903000", "103717.906000", "103717.909000", "103717.914000", "103757.826000", "103757.829000", "103757.832000", "103757.835000", "103757.838000", "103757.841000", "103757.844000", "103757.847000", "103757.850000", "103757.854000", "103757.857000", "103757.860000", "103757.863000", "103757.866000", "103757.869000", "103757.872000", "103757.875000", "103757.878000", "103757.881000", "103757.884000", "103757.887000", "103757.890000", "103757.893000", "103757.896000", "103757.899000", "103757.902000", "103757.905000", "103837.826000", "103837.829000", "103837.832000", "103837.835000", "103837.838000", "103837.841000", "103837.845000", "103837.848000", "103837.851000", "103837.854000", "103837.857000", "103837.860000", "103837.863000", "103837.866000", "103837.869000", "103837.872000", "103837.875000", "103837.878000", "103837.881000", "103837.884000", "103837.887000", "103837.890000", "103837.893000", "103837.896000", "103837.899000", "103837.902000", "103837.905000", "103917.826000", "103917.829000", "103917.832000", "103917.836000", "103917.839000", "103917.842000", "103917.845000", "103917.848000", "103917.851000", "103917.854000", "103917.857000", "103917.860000", "103917.863000", "103917.866000", "103917.869000", "103917.872000", "103917.875000", "103917.878000", "103917.881000", "103917.884000", "103917.887000", "103917.890000", "103917.893000", "103917.896000", "103917.899000", "103917.902000", "103917.905000", "103957.826000", "103957.829000", "103957.832000", "103957.835000", "103957.838000", "103957.841000", "103957.845000", "103957.848000", "103957.851000", "103957.854000", "103957.857000", "103957.860000", "103957.863000", "103957.866000", "103957.869000", "103957.872000", "103957.875000", "103957.878000", "103957.881000", "103957.884000", "103957.887000", "103957.890000", "103957.893000", "103957.896000", "103957.899000", "103957.902000", "103957.906000", "104037.826000", "104037.829000", "104037.832000", "104037.835000", "104037.838000", "104037.842000", "104037.845000", "104037.848000", "104037.851000", "104037.854000", "104037.857000", "104037.860000", "104037.863000", "104037.866000", "104037.869000", "104037.872000", "104037.875000", "104037.878000", "104037.881000", "104037.884000", "104037.887000", "104037.890000", "104037.893000", "104037.896000", "104037.899000", "104037.902000", "104037.905000", "104117.826000", "104117.829000", "104117.833000", "104117.836000", "104117.839000", "104117.841000", "104117.845000", "104117.848000", "104117.851000", "104117.854000", "104117.857000", "104117.860000", "104117.863000", "104117.866000", "104117.869000", "104117.872000", "104117.875000", "104117.878000", "104117.882000", "104117.885000", "104117.888000", "104117.891000", "104117.894000", "104117.897000", "104117.900000", "104117.903000", "104157.826000", "104157.829000", "104157.832000", "104157.836000", "104157.839000", "104157.842000", "104157.845000", "104157.848000", "104157.851000", "104157.854000", "104157.866000", "104157.869000", "104157.872000", "104157.875000", "104157.878000", "104157.881000", "104157.884000", "104157.887000", "104157.890000", "104157.893000", "104157.896000", "104157.899000", "104157.902000", "104157.905000", "104157.908000", "104157.911000", "104157.914000", "104237.826000", "104237.829000", "104237.832000", "104237.835000", "104237.838000", "104237.842000", "104237.845000", "104237.848000", "104237.851000", "104237.854000", "104237.857000", "104237.860000", "104237.863000", "104237.866000", "104237.869000", "104237.872000", "104237.875000", "104237.878000", "104237.881000", "104237.884000", "104237.887000", "104237.890000", "104237.893000", "104237.896000", "104237.899000", "104237.903000", "104237.906000", "104312.703000", "104312.706000", "104312.709000", "104312.712000", "104312.715000", "104312.718000", "104312.722000", "104312.725000", "104312.728000", "104312.730000", "104312.734000", "104312.737000", "104312.740000", "104312.743000", "104312.746000", "104312.749000", "104312.752000", "104312.755000", "104312.758000", "104312.761000", "104312.764000", "104312.767000", "104312.770000", "104312.773000"],
