{
  "AcquisitionMatrixPE": 104,
  "AcquisitionNumber": 1,
  "AcquisitionTime": "10:06:42.392500",
  "BandwidthPerPixelPhaseEncode": 17.17,
  "BaseResolution": 104,
  "BodyPartExamined": "BRAIN",
  "CoilString": "HC1-7;NC1_2",
  "ConsistencyInfo": "N4_VE11C_LATEST_20160120",
  "ConversionSoftware": "dcm2niix",
  "ConversionSoftwareVersion": "v1.0.20190902",
  "DerivedVendorReportedEchoSpacing": 0.000560011,
  "DeviceSerialNumber": "167006",
  "DwellTime": 2.1e-06,
  "EchoTime": 0.037,
  "EchoTrainLength": 104,
  "EffectiveEchoSpacing": 0.000560011,
  "FlipAngle": 52,
  "ImageComments": "Unaliased_MB4_PE3_LB",
  "ImageOrientationPatientDICOM": [0.998322, 0.0529923, 0.0233398, -0.046032, 0.970832, -0.2353],
  "ImageType": [
    "ORIGINAL",
    "PRIMARY",
    "M",
    "MB",
    "ND",
    "MOSAIC"
],
  "ImagingFrequency": 123.259,
  "InPlanePhaseEncodingDirectionDICOM": "COL",
  "InstitutionAddress": "Chemin_Queen-Mary_4565_Montreal_District_CA_H3W_1W5",
  "InstitutionName": "IUGM",
  "InstitutionalDepartmentName": "Department",
  "MRAcquisitionType": "2D",
  "MagneticFieldStrength": 3,
  "Manufacturer": "Siemens",
  "ManufacturersModelName": "Prisma_fit",
  "Modality": "MR",
  "MultibandAccelerationFactor": 4,
  "PartialFourier": 1,
  "PatientPosition": "HFS",
  "PercentPhaseFOV": 100,
  "PhaseEncodingDirection": "j",
  "PhaseEncodingSteps": 104,
  "PhaseResolution": 1,
  "PixelBandwidth": 2290,
  "ProcedureStepDescription": "video_friends",
  "ProtocolName": "func_task-friends-s03e05b",
  "PulseSequenceDetails": "%CustomerSeq%_cmrr_mbep2d_bold",
  "ReceiveCoilActiveElements": "HC1-7;NC1,2",
  "ReceiveCoilName": "HeadNeck_64",
  "ReconMatrixPE": 104,
  "RepetitionTime": 1.49,
  "SAR": 0.0386388,
  "ScanOptions": "FS",
  "ScanningSequence": "EP",
  "SequenceName": "epfid2d1_104",
  "SequenceVariant": "SK_SS",
  "SeriesDescription": "func_task-friends-s03e05b",
  "SeriesNumber": 15,
  "ShimSetting": [640, -7220, -8807, 672, 94, -82, 122, -10],
  "SliceThickness": 2,
  "SliceTiming": [0, 0.7825, 0.0975, 0.88, 0.195, 0.98, 0.2925, 1.0775, 0.39, 1.175, 0.49, 1.2725, 0.5875, 1.37, 0.685, 0, 0.7825, 0.0975, 0.88, 0.195, 0.98, 0.2925, 1.0775, 0.39, 1.175, 0.49, 1.2725, 0.5875, 1.37, 0.685, 0, 0.7825, 0.0975, 0.88, 0.195, 0.98, 0.2925, 1.0775, 0.39, 1.175, 0.49, 1.2725, 0.5875, 1.37, 0.685, 0, 0.7825, 0.0975, 0.88, 0.195, 0.98, 0.2925, 1.0775, 0.39, 1.175, 0.49, 1.2725, 0.5875, 1.37, 0.685],
  "SoftwareVersions": "syngo_MR_E11",
  "SpacingBetweenSlices": 2,
  "StationName": "MRC35049",
  "TaskName": "s03e05b",
  "TotalReadoutTime": 0.0576811,
  "TxRefAmp": 246.165,
  "WipMemBlock": "ab9e10be-202f-4066-8550-a0ff34abbb3d||Sequence: R016 ve11c/master r/e634e98; Dec 19 2017 11:00:25 by eja",
  "dcmmeta_affine": [
    [-1.9966442584991455, -0.09206394851207733, 0.07025627791881561, 105.73994445800781],
    [-0.10598453879356384, 1.941664218902588, -0.4676613211631775, -71.10829162597656],
    [0.04667968302965164, 0.4705997109413147, 1.9432851076126099, -45.960968017578125],
    [0.0, 0.0, 0.0, 1.0]
],
  "dcmmeta_reorient_transform": [
    [0.0, -1.0, 0.0, 103.0],
    [1.0, 0.0, 0.0, 0.0],
    [0.0, 0.0, 1.0, 0.0],
    [0.0, 0.0, 0.0, 1.0]
],
  "dcmmeta_shape": [104, 104, 60, 484],
  "dcmmeta_slice_dim": 2,
  "dcmmeta_version": 0.6,
  "global": {
    "const": {
      "AcquisitionMatrix": [104, 0, 0, 104],
      "AngioFlag": "N",
      "BitsAllocated": 16,
      "BitsStored": 16,
      "BodyPartExamined": "BRAIN",
      "Columns": 832,
      "EchoNumbers": 1,
      "EchoTime": 37.0,
      "EchoTrainLength": 104,
      "FlipAngle": 52.0,
      "HighBit": 15,
      "ImageOrientationPatient": [0.99832212795782, 0.05299226984334, 0.0233398407583, -0.0460319733607, 0.97083213728051, -0.235299848389],
      "ImagePositionPatient": [-789.52458897038, -874.22729460546, 156.81768725572],
      "ImageType": [
        "ORIGINAL",
        "PRIMARY",
        "M",
        "MB",
        "ND",
        "MOSAIC"
],
      "ImagedNucleus": "1H",
      "ImagingFrequency": 123.25934,
      "InPlanePhaseEncodingDirection": "COL",
      "MRAcquisitionType": "2D",
      "MagneticFieldStrength": 3.0,
      "Manufacturer": "SIEMENS",
      "ManufacturerModelName": "Prisma_fit",
      "Modality": "MR",
      "NumberOfAverages": 1.0,
      "NumberOfPhaseEncodingSteps": 104,
      "PercentPhaseFieldOfView": 100.0,
      "PercentSampling": 100.0,
      "PerformedProcedureStepStartTime": "085551.308000",
      "PhotometricInterpretation": "MONOCHROME2",
      "PixelBandwidth": 2290.0,
      "PixelRepresentation": 0,
      "PixelSpacing": [2.0, 2.0],
      "ProtocolName": "func_task-friends-s03e05b",
      "RepetitionTime": 1490.0,
      "Rows": 832,
      "SAR": 0.03863876056037,
      "SamplesPerPixel": 1,
      "ScanOptions": "FS",
      "ScanningSequence": "EP",
      "SequenceName": "epfid2d1_104",
      "SequenceVariant": [
        "SK",
        "SS"
],
      "SeriesDescription": "func_task-friends-s03e05b",
      "SeriesNumber": 15,
      "SeriesTime": "100803.809000",
      "SliceLocation": -24.315883597844,
      "SliceThickness": 2.0,
      "SmallestImagePixelValue": 0,
      "SoftwareVersions": "syngo MR E11",
      "SpacingBetweenSlices": 1.999999999936,
      "SpecificCharacterSet": "ISO_IR 100",
      "StudyID": "1",
      "StudyTime": "085551.105000",
      "TransmitCoilName": "Body",
      "VariableFlipAngleFlag": "N",
      "WindowCenterWidthExplanation": "Algo1",
      "dBdt": 0.0},
    "slices": {}
  },
  "time": {
    "samples": {
      "AcquisitionNumber": [1, 2, 3, 4, 5, 6, 7, 8, 9, 10, 11, 12, 13, 14, 15, 16, 17, 18, 19, 20, 21, 22, 23, 24, 25, 26, 27, 28, 29, 30, 31, 32, 33, 34, 35, 36, 37, 38, 39, 40, 41, 42, 43, 44, 45, 46, 47, 48, 49, 50, 51, 52, 53, 54, 55, 56, 57, 58, 59, 60, 61, 62, 63, 64, 65, 66, 67, 68, 69, 70, 71, 72, 73, 74, 75, 76, 77, 78, 79, 80, 81, 82, 83, 84, 85, 86, 87, 88, 89, 90, 91, 92, 93, 94, 95, 96, 97, 98, 99, 100, 101, 102, 103, 104, 105, 106, 107, 108, 109, 110, 111, 112, 113, 114, 115, 116, 117, 118, 119, 120, 121, 122, 123, 124, 125, 126, 127, 128, 129, 130, 131, 132, 133, 134, 135, 136, 137, 138, 139, 140, 141, 142, 143, 144, 145, 146, 147, 148, 149, 150, 151, 152, 153, 154, 155, 156, 157, 158, 159, 160, 161, 162, 163, 164, 165, 166, 167, 168, 169, 170, 171, 172, 173, 174, 175, 176, 177, 178, 179, 180, 181, 182, 183, 184, 185, 186, 187, 188, 189, 190, 191, 192, 193, 194, 195, 196, 197, 198, 199, 200, 201, 202, 203, 204, 205, 206, 207, 208, 209, 210, 211, 212, 213, 214, 215, 216, 217, 218, 219, 220, 221, 222, 223, 224, 225, 226, 227, 228, 229, 230, 231, 232, 233, 234, 235, 236, 237, 238, 239, 240, 241, 242, 243, 244, 245, 246, 247, 248, 249, 250, 251, 252, 253, 254, 255, 256, 257, 258, 259, 260, 261, 262, 263, 264, 265, 266, 267, 268, 269, 270, 271, 272, 273, 274, 275, 276, 277, 278, 279, 280, 281, 282, 283, 284, 285, 286, 287, 288, 289, 290, 291, 292, 293, 294, 295, 296, 297, 298, 299, 300, 301, 302, 303, 304, 305, 306, 307, 308, 309, 310, 311, 312, 313, 314, 315, 316, 317, 318, 319, 320, 321, 322, 323, 324, 325, 326, 327, 328, 329, 330, 331, 332, 333, 334, 335, 336, 337, 338, 339, 340, 341, 342, 343, 344, 345, 346, 347, 348, 349, 350, 351, 352, 353, 354, 355, 356, 357, 358, 359, 360, 361, 362, 363, 364, 365, 366, 367, 368, 369, 370, 371, 372, 373, 374, 375, 376, 377, 378, 379, 380, 381, 382, 383, 384, 385, 386, 387, 388, 389, 390, 391, 392, 393, 394, 395, 396, 397, 398, 399, 400, 401, 402, 403, 404, 405, 406, 407, 408, 409, 410, 411, 412, 413, 414, 415, 416, 417, 418, 419, 420, 421, 422, 423, 424, 425, 426, 427, 428, 429, 430, 431, 432, 433, 434, 435, 436, 437, 438, 439, 440, 441, 442, 443, 444, 445, 446, 447, 448, 449, 450, 451, 452, 453, 454, 455, 456, 457, 458, 459, 460, 461, 462, 463, 464, 465, 466, 467, 468, 469, 470, 471, 472, 473, 474, 475, 476, 477, 478, 479, 480, 481, 482, 483, 484],
      "AcquisitionTime": ["100642.392500", "100643.882500", "100645.372500", "100646.862500", "100648.352500", "100649.842500", "100651.332500", "100652.822500", "100654.312500", "100655.802500", "100657.292500", "100658.782500", "100700.272500", "100701.762500", "100703.252500", "100704.742500", "100706.232500", "100707.722500", "100709.212500", "100710.702500", "100712.192500", "100713.682500", "100715.172500", "100716.662500", "100718.152500", "100719.642500", "100721.132500", "100722.622500", "100724.112500", "100725.602500", "100727.092500", "100728.582500", "100730.072500", "100731.562500", "100733.052500", "100734.542500", "100736.032500", "100737.522500", "100739.012500", "100740.502500", "100741.992500", "100743.482500", "100744.972500", "100746.462500", "100747.952500", "100749.442500", "100750.932500", "100752.422500", "100753.912500", "100755.402500", "100756.892500", "100758.382500", "100759.872500", "100801.362500", "100802.852500", "100804.342500", "100805.832500", "100807.322500", "100808.812500", "100810.302500", "100811.792500", "100813.282500", "100814.772500", "100816.262500", "100817.752500", "100819.242500", "100820.732500", "100822.222500", "100823.712500", "100825.202500", "100826.692500", "100828.182500", "100829.672500", "100831.162500", "100832.652500", "100834.142500", "100835.632500", "100837.122500", "100838.612500", "100840.102500", "100841.592500", "100843.082500", "100844.572500", "100846.062500", "100847.552500", "100849.042500", "100850.532500", "100852.022500", "100853.512500", "100855.002500", "100856.492500", "100857.982500", "100859.472500", "100900.962500", "100902.452500", "100903.942500", "100905.432500", "100906.922500", "100908.412500", "100909.902500", "100911.392500", "100912.882500", "100914.372500", "100915.862500", "100917.352500", "100918.842500", "100920.332500", "100921.822500", "100923.312500", "100924.802500", "100926.292500", "100927.782500", "100929.272500", "100930.762500", "100932.252500", "100933.742500", "100935.232500", "100936.722500", "100938.212500", "100939.702500", "100941.192500", "100942.682500", "100944.172500", "100945.662500", "100947.152500", "100948.642500", "100950.132500", "100951.622500", "100953.112500", "100954.602500", "100956.092500", "100957.582500", "100959.072500", "101000.562500", "101002.052500", "101003.542500", "101005.032500", "101006.522500", "101008.012500", "101009.502500", "101010.992500", "101012.482500", "101013.972500", "101015.462500", "101016.952500", "101018.442500", "101019.932500", "101021.422500", "101022.912500", "101024.402500", "101025.892500", "101027.382500", "101028.872500", "101030.362500", "101031.852500", "101033.342500", "101034.832500", "101036.322500", "101037.812500", "101039.302500", "101040.792500", "101042.282500", "101043.772500", "101045.262500", "101046.752500", "101048.242500", "101049.732500", "101051.222500", "101052.712500", "101054.202500", "101055.692500", "101057.182500", "101058.672500", "101100.162500", "101101.652500", "101103.142500", "101104.632500", "101106.122500", "101107.612500", "101109.102500", "101110.592500", "101112.082500", "101113.572500", "101115.062500", "101116.552500", "101118.042500", "101119.532500", "101121.022500", "101122.512500", "101124.002500", "101125.492500", "101126.982500", "101128.472500", "101129.962500", "101131.452500", "101132.942500", "101134.432500", "101135.922500", "101137.412500", "101138.902500", "101140.392500", "101141.882500", "101143.372500", "101144.862500", "101146.352500", "101147.842500", "101149.332500", "101150.822500", "101152.312500", "101153.802500", "101155.292500", "101156.782500", "101158.272500", "101159.762500", "101201.252500", "101202.742500", "101204.232500", "101205.722500", "101207.212500", "101208.702500", "101210.192500", "101211.682500", "101213.172500", "101214.662500", "101216.152500", "101217.642500", "101219.132500", "101220.622500", "101222.112500", "101223.602500", "101225.092500", "101226.582500", "101228.072500", "101229.562500", "101231.052500", "101232.542500", "101234.032500", "101235.522500", "101237.012500", "101238.502500", "101239.992500", "101241.482500", "101242.972500", "101244.462500", "101245.952500", "101247.442500", "101248.932500", "101250.422500", "101251.912500", "101253.402500", "101254.892500", "101256.382500", "101257.872500", "101259.362500", "101300.852500", "101302.342500", "101303.832500", "101305.322500", "101306.812500", "101308.302500", "101309.792500", "101311.282500", "101312.772500", "101314.262500", "101315.752500", "101317.242500", "101318.732500", "101320.222500", "101321.712500", "101323.202500", "101324.692500", "101326.182500", "101327.672500", "101329.162500", "101330.652500", "101332.142500", "101333.632500", "101335.122500", "101336.612500", "101338.102500", "101339.592500", "101341.082500", "101342.572500", "101344.062500", "101345.552500", "101347.042500", "101348.532500", "101350.022500", "101351.512500", "101353.002500", "101354.492500", "101355.982500", "101357.472500", "101358.962500", "101400.452500", "101401.942500", "101403.432500", "101404.922500", "101406.412500", "101407.902500", "101409.392500", "101410.882500", "101412.372500", "101413.862500", "101415.352500", "101416.842500", "101418.332500", "101419.822500", "101421.312500", "101422.802500", "101424.292500", "101425.782500", "101427.272500", "101428.762500", "101430.252500", "101431.742500", "101433.232500", "101434.722500", "101436.212500", "101437.702500", "101439.192500", "101440.682500", "101442.172500", "101443.662500", "101445.152500", "101446.642500", "101448.132500", "101449.622500", "101451.112500", "101452.602500", "101454.092500", "101455.582500", "101457.072500", "101458.562500", "101500.052500", "101501.542500", "101503.032500", "101504.522500", "101506.012500", "101507.502500", "101508.992500", "101510.482500", "101511.972500", "101513.462500", "101514.952500", "101516.442500", "101517.932500", "101519.422500", "101520.912500", "101522.402500", "101523.892500", "101525.382500", "101526.872500", "101528.362500", "101529.852500", "101531.342500", "101532.832500", "101534.322500", "101535.812500", "101537.302500", "101538.792500", "101540.282500", "101541.772500", "101543.262500", "101544.752500", "101546.242500", "101547.732500", "101549.222500", "101550.712500", "101552.202500", "101553.692500", "101555.182500", "101556.672500", "101558.162500", "101559.652500", "101601.142500", "101602.632500", "101604.122500", "101605.612500", "101607.102500", "101608.592500", "101610.082500", "101611.572500", "101613.062500", "101614.552500", "101616.042500", "101617.532500", "101619.022500", "101620.512500", "101622.002500", "101623.492500", "101624.982500", "101626.472500", "101627.962500", "101629.452500", "101630.942500", "101632.432500", "101633.922500", "101635.412500", "101636.902500", "101638.392500", "101639.882500", "101641.372500", "101642.862500", "101644.352500", "101645.842500", "101647.332500", "101648.822500", "101650.312500", "101651.802500", "101653.292500", "101654.782500", "101656.272500", "101657.762500", "101659.252500", "101700.742500", "101702.232500", "101703.722500", "101705.212500", "101706.702500", "101708.192500", "101709.682500", "101711.172500", "101712.662500", "101714.152500", "101715.642500", "101717.132500", "101718.622500", "101720.112500", "101721.602500", "101723.092500", "101724.582500", "101726.072500", "101727.562500", "101729.052500", "101730.542500", "101732.032500", "101733.522500", "101735.012500", "101736.502500", "101737.992500", "101739.482500", "101740.972500", "101742.462500", "101743.952500", "101745.442500", "101746.932500", "101748.422500", "101749.912500", "101751.402500", "101752.892500", "101754.382500", "101755.872500", "101757.362500", "101758.852500", "101800.342500", "101801.832500", "101803.322500", "101804.812500", "101806.302500", "101807.792500", "101809.282500", "101810.772500", "101812.262500", "101813.752500", "101815.242500", "101816.732500", "101818.222500", "101819.712500", "101821.202500", "101822.692500", "101824.182500", "101825.672500", "101827.162500", "101828.652500", "101830.142500", "101831.632500", "101833.122500", "101834.612500", "101836.102500", "101837.592500", "101839.082500", "101840.572500", "101842.062500"],
      "ContentTime": ["100803.812000", "100803.815000", "100803.819000", "100803.822000", "100803.825000", "100803.828000", "100803.831000", "100803.834000", "100803.837000", "100803.840000", "100803.843000", "100803.846000", "100803.854000", "100803.857000", "100803.860000", "100803.863000", "100803.866000", "100803.869000", "100803.872000", "100803.875000", "100803.878000", "100803.881000", "100803.884000", "100803.887000", "100803.890000", "100803.893000", "100803.901000", "100803.904000", "100823.781000", "100823.784000", "100823.787000", "100823.790000", "100823.793000", "100823.796000", "100823.799000", "100823.802000", "100823.805000", "100823.808000", "100823.811000", "100823.814000", "100823.817000", "100823.820000", "100823.823000", "100823.826000", "100823.829000", "100823.832000", "100823.835000", "100823.838000", "100843.781000", "100843.784000", "100843.787000", "100843.790000", "100843.806000", "100843.809000", "100843.822000", "100843.825000", "100843.828000", "100843.831000", "100843.834000", "100843.837000", "100843.840000", "100843.843000", "100843.846000", "100843.849000", "100843.852000", "100843.855000", "100843.858000", "100843.861000", "100903.781000", "100903.784000", "100903.787000", "100903.790000", "100903.793000", "100903.796000", "100903.799000", "100903.802000", "100903.805000", "100903.808000", "100903.811000", "100903.814000", "100903.817000", "100903.820000", "100903.824000", "100903.826000", "100903.829000", "100903.832000", "100903.836000", "100903.839000", "100923.781000", "100923.784000", "100923.787000", "100923.790000", "100923.793000", "100923.796000", "100923.800000", "100923.802000", "100923.805000", "100923.808000", "100923.812000", "100923.815000", "100923.817000", "100923.820000", "100923.823000", "100923.826000", "100923.829000", "100923.832000", "100923.836000", "100923.838000", "101003.781000", "101003.784000", "101003.788000", "101003.791000", "101003.794000", "101003.797000", "101003.800000", "101003.803000", "101003.806000", "101003.809000", "101003.812000", "101003.815000", "101003.818000", "101003.821000", "101003.824000", "101003.827000", "101003.830000", "101003.833000", "101003.836000", "101003.839000", "101003.842000", "101003.845000", "101003.848000", "101003.851000", "101003.854000", "101003.857000", "101043.781000", "101043.784000", "101043.787000", "101043.790000", "101043.793000", "101043.796000", "101043.799000", "101043.802000", "101043.805000", "101043.808000", "101043.811000", "101043.814000", "101043.817000", "101043.820000", "101043.823000", "101043.826000", "101043.829000", "101043.832000", "101043.835000", "101043.838000", "101043.841000", "101043.844000", "101043.847000", "101043.850000", "101043.853000", "101043.856000", "101043.859000", "101123.781000", "101123.785000", "101123.788000", "101123.791000", "101123.794000", "101123.797000", "101123.800000", "101123.803000", "101123.806000", "101123.809000", "101123.812000", "101123.815000", "101123.818000", "101123.821000", "101123.824000", "101123.827000", "101123.830000", "101123.833000", "101123.836000", "101123.839000", "101123.842000", "101123.845000", "101123.848000", "101123.851000", "101123.854000", "101123.857000", "101123.860000", "101203.781000", "101203.784000", "101203.787000", "101203.790000", "101203.803000", "101203.806000", "101203.809000", "101203.812000", "101203.815000", "101203.818000", "101203.821000", "101203.824000", "101203.827000", "101203.830000", "101203.833000", "101203.836000", "101203.839000", "101203.842000", "101203.845000", "101203.848000", "101203.851000", "101203.854000", "101203.857000", "101203.860000", "101203.863000", "101203.867000", "101203.870000", "101243.781000", "101243.784000", "101243.787000", "101243.790000", "101243.793000", "101243.796000", "101243.799000", "101243.803000", "101243.805000", "101243.808000", "101243.811000", "101243.815000", "101243.818000", "101243.821000", "101243.824000", "101243.827000", "101243.830000", "101243.833000", "101243.836000", "101243.839000", "101243.842000", "101243.845000", "101243.848000", "101243.851000", "101243.854000", "101243.857000", "101243.860000", "101323.780000", "101323.783000", "101323.786000", "101323.789000", "101323.792000", "101323.795000", "101323.799000", "101323.802000", "101323.805000", "101323.814000", "101323.817000", "101323.820000", "101323.840000", "101323.843000", "101323.846000", "101323.849000", "101323.852000", "101323.855000", "101323.858000", "101323.861000", "101323.864000", "101323.867000", "101323.870000", "101323.873000", "101323.876000", "101323.879000", "101323.882000", "101403.781000", "101403.785000", "101403.788000", "101403.791000", "101403.794000", "101403.797000", "101403.800000", "101403.803000", "101403.806000", "101403.809000", "101403.812000", "101403.815000", "101403.818000", "101403.821000", "101403.824000", "101403.827000", "101403.830000", "101403.833000", "101403.836000", "101403.839000", "101403.842000", "101403.845000", "101403.848000", "101403.851000", "101403.854000", "101403.858000", "101403.860000", "101443.781000", "101443.784000", "101443.787000", "101443.790000", "101443.793000", "101443.797000", "101443.800000", "101443.803000", "101443.806000", "101443.809000", "101443.813000", "101443.816000", "101443.819000", "101443.822000", "101443.825000", "101443.828000", "101443.831000", "101443.834000", "101443.837000", "101443.840000", "101443.843000", "101443.847000", "101443.850000", "101443.853000", "101443.856000", "101443.859000", "101523.781000", "101523.784000", "101523.787000", "101523.790000", "101523.793000", "101523.796000", "101523.800000", "101523.803000", "101523.806000", "101523.809000", "101523.812000", "101523.815000", "101523.818000", "101523.821000", "101523.824000", "101523.827000", "101523.830000", "101523.833000", "101523.836000", "101523.839000", "101523.842000", "101523.845000", "101523.848000", "101523.851000", "101523.854000", "101523.857000", "101523.860000", "101603.781000", "101603.785000", "101603.788000", "101603.791000", "101603.794000", "101603.797000", "101603.800000", "101603.803000", "101603.806000", "101603.809000", "101603.812000", "101603.815000", "101603.818000", "101603.821000", "101603.824000", "101603.827000", "101603.830000", "101603.833000", "101603.836000", "101603.839000", "101603.842000", "101603.845000", "101603.848000", "101603.851000", "101603.854000", "101603.858000", "101603.861000", "101643.781000", "101643.784000", "101643.787000", "101643.790000", "101643.793000", "101643.796000", "101643.799000", "101643.802000", "101643.806000", "101643.809000", "101643.812000", "101643.815000", "101643.818000", "101643.821000", "101643.824000", "101643.827000", "101643.830000", "101643.833000", "101643.836000", "101643.839000", "101643.843000", "101643.846000", "101643.848000", "101643.851000", "101643.855000", "101643.858000", "101643.861000", "101723.781000", "101723.784000", "101723.787000", "101723.791000", "101723.794000", "101723.797000", "101723.799000", "101723.803000", "101723.806000", "101723.809000", "101723.812000", "101723.815000", "101723.818000", "101723.821000", "101723.824000", "101723.827000", "101723.830000", "101723.833000", "101723.836000", "101723.839000", "101723.842000", "101723.845000", "101723.848000", "101723.851000", "101723.854000", "101723.857000", "101723.860000", "101803.780000", "101803.783000", "101803.787000", "101803.790000", "101803.793000", "101803.796000", "101803.799000", "101803.802000", "101803.805000", "101803.808000", "101803.811000", "101803.814000", "101803.834000", "101803.837000", "101803.841000", "101803.844000", "101803.847000", "101803.850000", "101803.853000", "101803.856000", "101803.859000", "101803.862000", "101803.865000", "101803.868000", "101803.871000", "101803.874000", "101803.877000", "101843.781000", "101843.784000", "101843.787000", "101843.791000", "101843.794000", "101843.797000", "101843.800000", "101843.803000", "101843.806000", "101843.812000", "101843.817000", "101843.820000", "101843.824000", "101843.829000", "101843.833000", "101843.837000", "101843.841000", "101843.845000", "101843.848000", "101843.851000", "101843.855000", "101843.859000", "101843.863000", "101843.867000", "101843.872000", "101843.875000", "101843.948000"],
