{
  "AcquisitionMatrixPE": 104,
  "AcquisitionNumber": 1,
  "AcquisitionTime": "09:41:45.055000",
  "BandwidthPerPixelPhaseEncode": 17.17,
  "BaseResolution": 104,
  "BodyPartExamined": "BRAIN",
  "CoilString": "HC1-7;NC1_2",
  "ConsistencyInfo": "N4_VE11C_LATEST_20160120",
  "ConversionSoftware": "dcm2niix",
  "ConversionSoftwareVersion": "v1.0.20190902",
  "DerivedVendorReportedEchoSpacing": 0.000560011,
  "DeviceSerialNumber": "167006",
  "DwellTime": 2.1e-06,
  "EchoTime": 0.037,
  "EchoTrainLength": 104,
  "EffectiveEchoSpacing": 0.000560011,
  "FlipAngle": 52,
  "ImageComments": "Unaliased_MB4_PE3_LB",
  "ImageOrientationPatientDICOM": [0.998322, 0.0529923, 0.0233398, -0.046032, 0.970832, -0.2353],
  "ImageType": [
    "ORIGINAL",
    "PRIMARY",
    "M",
    "MB",
    "ND",
    "MOSAIC"
],
  "ImagingFrequency": 123.259,
  "InPlanePhaseEncodingDirectionDICOM": "COL",
  "InstitutionAddress": "Chemin_Queen-Mary_4565_Montreal_District_CA_H3W_1W5",
  "InstitutionName": "IUGM",
  "InstitutionalDepartmentName": "Department",
  "MRAcquisitionType": "2D",
  "MagneticFieldStrength": 3,
  "Manufacturer": "Siemens",
  "ManufacturersModelName": "Prisma_fit",
  "Modality": "MR",
  "MultibandAccelerationFactor": 4,
  "PartialFourier": 1,
  "PatientPosition": "HFS",
  "PercentPhaseFOV": 100,
  "PhaseEncodingDirection": "j",
  "PhaseEncodingSteps": 104,
  "PhaseResolution": 1,
  "PixelBandwidth": 2290,
  "ProcedureStepDescription": "video_friends",
  "ProtocolName": "func_task-friends-s03e04b",
  "PulseSequenceDetails": "%CustomerSeq%_cmrr_mbep2d_bold",
  "ReceiveCoilActiveElements": "HC1-7;NC1,2",
  "ReceiveCoilName": "HeadNeck_64",
  "ReconMatrixPE": 104,
  "RepetitionTime": 1.49,
  "SAR": 0.0386351,
  "ScanOptions": "FS",
  "ScanningSequence": "EP",
  "SequenceName": "epfid2d1_104",
  "SequenceVariant": "SK_SS",
  "SeriesDescription": "func_task-friends-s03e04b",
  "SeriesNumber": 11,
  "ShimSetting": [640, -7220, -8807, 672, 94, -82, 122, -10],
  "SliceThickness": 2,
  "SliceTiming": [0, 0.785, 0.1, 0.8825, 0.1975, 0.98, 0.295, 1.08, 0.3925, 1.1775, 0.49, 1.275, 0.59, 1.3725, 0.6875, 0, 0.785, 0.1, 0.8825, 0.1975, 0.98, 0.295, 1.08, 0.3925, 1.1775, 0.49, 1.275, 0.59, 1.3725, 0.6875, 0, 0.785, 0.1, 0.8825, 0.1975, 0.98, 0.295, 1.08, 0.3925, 1.1775, 0.49, 1.275, 0.59, 1.3725, 0.6875, 0, 0.785, 0.1, 0.8825, 0.1975, 0.98, 0.295, 1.08, 0.3925, 1.1775, 0.49, 1.275, 0.59, 1.3725, 0.6875],
  "SoftwareVersions": "syngo_MR_E11",
  "SpacingBetweenSlices": 2,
  "StationName": "MRC35049",
  "TaskName": "s03e04b",
  "TotalReadoutTime": 0.0576811,
  "TxRefAmp": 246.165,
  "WipMemBlock": "92e3fac1-c095-4a1b-9358-a4c3ed3f650f||Sequence: R016 ve11c/master r/e634e98; Dec 19 2017 11:00:25 by eja",
  "dcmmeta_affine": [
    [-1.9966442584991455, -0.09206394851207733, 0.07025627791881561, 105.73994445800781],
    [-0.10598453879356384, 1.941664218902588, -0.4676613211631775, -71.10829162597656],
    [0.04667968302965164, 0.4705997109413147, 1.9432851076126099, -45.960968017578125],
    [0.0, 0.0, 0.0, 1.0]
],
  "dcmmeta_reorient_transform": [
    [0.0, -1.0, 0.0, 103.0],
    [1.0, 0.0, 0.0, 0.0],
    [0.0, 0.0, 1.0, 0.0],
    [0.0, 0.0, 0.0, 1.0]
],
  "dcmmeta_shape": [104, 104, 60, 473],
  "dcmmeta_slice_dim": 2,
  "dcmmeta_version": 0.6,
  "global": {
    "const": {
      "AcquisitionMatrix": [104, 0, 0, 104],
      "AngioFlag": "N",
      "BitsAllocated": 16,
      "BitsStored": 16,
      "BodyPartExamined": "BRAIN",
      "Columns": 832,
      "EchoNumbers": 1,
      "EchoTime": 37.0,
      "EchoTrainLength": 104,
      "FlipAngle": 52.0,
      "HighBit": 15,
      "ImageOrientationPatient": [0.99832212795782, 0.05299226984334, 0.0233398407583, -0.0460319733607, 0.97083213728051, -0.235299848389],
      "ImagePositionPatient": [-789.52458897038, -874.22729460546, 156.81768725572],
      "ImageType": [
        "ORIGINAL",
        "PRIMARY",
        "M",
        "MB",
        "ND",
        "MOSAIC"
],
      "ImagedNucleus": "1H",
      "ImagingFrequency": 123.259327,
      "InPlanePhaseEncodingDirection": "COL",
      "MRAcquisitionType": "2D",
      "MagneticFieldStrength": 3.0,
      "Manufacturer": "SIEMENS",
      "ManufacturerModelName": "Prisma_fit",
      "Modality": "MR",
      "NumberOfAverages": 1.0,
      "NumberOfPhaseEncodingSteps": 104,
      "PercentPhaseFieldOfView": 100.0,
      "PercentSampling": 100.0,
      "PerformedProcedureStepStartTime": "085551.308000",
      "PhotometricInterpretation": "MONOCHROME2",
      "PixelBandwidth": 2290.0,
      "PixelRepresentation": 0,
      "PixelSpacing": [2.0, 2.0],
      "ProtocolName": "func_task-friends-s03e04b",
      "RepetitionTime": 1490.0,
      "Rows": 832,
      "SAR": 0.03863509179082,
      "SamplesPerPixel": 1,
      "ScanOptions": "FS",
      "ScanningSequence": "EP",
      "SequenceName": "epfid2d1_104",
      "SequenceVariant": [
        "SK",
        "SS"
],
      "SeriesDescription": "func_task-friends-s03e04b",
      "SeriesNumber": 11,
      "SeriesTime": "094301.109000",
      "SliceLocation": -24.315883597844,
      "SliceThickness": 2.0,
      "SmallestImagePixelValue": 0,
      "SoftwareVersions": "syngo MR E11",
      "SpacingBetweenSlices": 1.999999999936,
      "SpecificCharacterSet": "ISO_IR 100",
      "StudyID": "1",
      "StudyTime": "085551.105000",
      "TransmitCoilName": "Body",
      "VariableFlipAngleFlag": "N",
      "WindowCenterWidthExplanation": "Algo1",
      "dBdt": 0.0},
    "slices": {}
  },
  "time": {
    "samples": {
      "AcquisitionNumber": [1, 2, 3, 4, 5, 6, 7, 8, 9, 10, 11, 12, 13, 14, 15, 16, 17, 18, 19, 20, 21, 22, 23, 24, 25, 26, 27, 28, 29, 30, 31, 32, 33, 34, 35, 36, 37, 38, 39, 40, 41, 42, 43, 44, 45, 46, 47, 48, 49, 50, 51, 52, 53, 54, 55, 56, 57, 58, 59, 60, 61, 62, 63, 64, 65, 66, 67, 68, 69, 70, 71, 72, 73, 74, 75, 76, 77, 78, 79, 80, 81, 82, 83, 84, 85, 86, 87, 88, 89, 90, 91, 92, 93, 94, 95, 96, 97, 98, 99, 100, 101, 102, 103, 104, 105, 106, 107, 108, 109, 110, 111, 112, 113, 114, 115, 116, 117, 118, 119, 120, 121, 122, 123, 124, 125, 126, 127, 128, 129, 130, 131, 132, 133, 134, 135, 136, 137, 138, 139, 140, 141, 142, 143, 144, 145, 146, 147, 148, 149, 150, 151, 152, 153, 154, 155, 156, 157, 158, 159, 160, 161, 162, 163, 164, 165, 166, 167, 168, 169, 170, 171, 172, 173, 174, 175, 176, 177, 178, 179, 180, 181, 182, 183, 184, 185, 186, 187, 188, 189, 190, 191, 192, 193, 194, 195, 196, 197, 198, 199, 200, 201, 202, 203, 204, 205, 206, 207, 208, 209, 210, 211, 212, 213, 214, 215, 216, 217, 218, 219, 220, 221, 222, 223, 224, 225, 226, 227, 228, 229, 230, 231, 232, 233, 234, 235, 236, 237, 238, 239, 240, 241, 242, 243, 244, 245, 246, 247, 248, 249, 250, 251, 252, 253, 254, 255, 256, 257, 258, 259, 260, 261, 262, 263, 264, 265, 266, 267, 268, 269, 270, 271, 272, 273, 274, 275, 276, 277, 278, 279, 280, 281, 282, 283, 284, 285, 286, 287, 288, 289, 290, 291, 292, 293, 294, 295, 296, 297, 298, 299, 300, 301, 302, 303, 304, 305, 306, 307, 308, 309, 310, 311, 312, 313, 314, 315, 316, 317, 318, 319, 320, 321, 322, 323, 324, 325, 326, 327, 328, 329, 330, 331, 332, 333, 334, 335, 336, 337, 338, 339, 340, 341, 342, 343, 344, 345, 346, 347, 348, 349, 350, 351, 352, 353, 354, 355, 356, 357, 358, 359, 360, 361, 362, 363, 364, 365, 366, 367, 368, 369, 370, 371, 372, 373, 374, 375, 376, 377, 378, 379, 380, 381, 382, 383, 384, 385, 386, 387, 388, 389, 390, 391, 392, 393, 394, 395, 396, 397, 398, 399, 400, 401, 402, 403, 404, 405, 406, 407, 408, 409, 410, 411, 412, 413, 414, 415, 416, 417, 418, 419, 420, 421, 422, 423, 424, 425, 426, 427, 428, 429, 430, 431, 432, 433, 434, 435, 436, 437, 438, 439, 440, 441, 442, 443, 444, 445, 446, 447, 448, 449, 450, 451, 452, 453, 454, 455, 456, 457, 458, 459, 460, 461, 462, 463, 464, 465, 466, 467, 468, 469, 470, 471, 472, 473],
      "AcquisitionTime": ["094145.055000", "094146.545000", "094148.035000", "094149.525000", "094151.015000", "094152.505000", "094153.995000", "094155.485000", "094156.975000", "094158.465000", "094159.955000", "094201.445000", "094202.935000", "094204.425000", "094205.915000", "094207.405000", "094208.895000", "094210.385000", "094211.875000", "094213.365000", "094214.855000", "094216.345000", "094217.835000", "094219.325000", "094220.815000", "094222.305000", "094223.795000", "094225.285000", "094226.775000", "094228.265000", "094229.755000", "094231.245000", "094232.735000", "094234.225000", "094235.715000", "094237.205000", "094238.695000", "094240.185000", "094241.675000", "094243.165000", "094244.655000", "094246.145000", "094247.635000", "094249.125000", "094250.615000", "094252.105000", "094253.595000", "094255.085000", "094256.575000", "094258.065000", "094259.555000", "094301.045000", "094302.535000", "094304.025000", "094305.515000", "094307.005000", "094308.495000", "094309.985000", "094311.475000", "094312.965000", "094314.455000", "094315.945000", "094317.435000", "094318.925000", "094320.415000", "094321.905000", "094323.395000", "094324.885000", "094326.375000", "094327.865000", "094329.355000", "094330.845000", "094332.335000", "094333.825000", "094335.315000", "094336.805000", "094338.295000", "094339.785000", "094341.275000", "094342.765000", "094344.255000", "094345.745000", "094347.235000", "094348.725000", "094350.215000", "094351.705000", "094353.195000", "094354.685000", "094356.175000", "094357.665000", "094359.155000", "094400.645000", "094402.135000", "094403.625000", "094405.115000", "094406.605000", "094408.095000", "094409.585000", "094411.075000", "094412.565000", "094414.055000", "094415.545000", "094417.035000", "094418.525000", "094420.015000", "094421.505000", "094422.995000", "094424.485000", "094425.975000", "094427.465000", "094428.955000", "094430.445000", "094431.935000", "094433.425000", "094434.915000", "094436.405000", "094437.895000", "094439.385000", "094440.875000", "094442.365000", "094443.855000", "094445.345000", "094446.835000", "094448.325000", "094449.815000", "094451.305000", "094452.795000", "094454.285000", "094455.775000", "094457.265000", "094458.755000", "094500.245000", "094501.735000", "094503.225000", "094504.715000", "094506.205000", "094507.695000", "094509.185000", "094510.675000", "094512.165000", "094513.655000", "094515.145000", "094516.635000", "094518.125000", "094519.615000", "094521.105000", "094522.595000", "094524.085000", "094525.575000", "094527.065000", "094528.555000", "094530.045000", "094531.535000", "094533.025000", "094534.515000", "094536.005000", "094537.495000", "094538.985000", "094540.475000", "094541.965000", "094543.455000", "094544.945000", "094546.435000", "094547.925000", "094549.415000", "094550.905000", "094552.395000", "094553.885000", "094555.375000", "094556.865000", "094558.355000", "094559.845000", "094601.335000", "094602.825000", "094604.315000", "094605.805000", "094607.295000", "094608.785000", "094610.275000", "094611.765000", "094613.255000", "094614.745000", "094616.235000", "094617.725000", "094619.215000", "094620.705000", "094622.195000", "094623.685000", "094625.175000", "094626.665000", "094628.155000", "094629.645000", "094631.135000", "094632.625000", "094634.115000", "094635.605000", "094637.095000", "094638.585000", "094640.075000", "094641.565000", "094643.055000", "094644.545000", "094646.035000", "094647.525000", "094649.015000", "094650.505000", "094651.995000", "094653.485000", "094654.975000", "094656.465000", "094657.955000", "094659.445000", "094700.935000", "094702.425000", "094703.915000", "094705.405000", "094706.895000", "094708.385000", "094709.875000", "094711.365000", "094712.855000", "094714.345000", "094715.835000", "094717.325000", "094718.815000", "094720.305000", "094721.795000", "094723.285000", "094724.775000", "094726.265000", "094727.755000", "094729.245000", "094730.735000", "094732.225000", "094733.715000", "094735.205000", "094736.695000", "094738.185000", "094739.675000", "094741.165000", "094742.655000", "094744.145000", "094745.635000", "094747.125000", "094748.615000", "094750.105000", "094751.595000", "094753.085000", "094754.575000", "094756.065000", "094757.555000", "094759.045000", "094800.535000", "094802.025000", "094803.515000", "094805.005000", "094806.495000", "094807.985000", "094809.475000", "094810.965000", "094812.455000", "094813.945000", "094815.435000", "094816.925000", "094818.415000", "094819.905000", "094821.395000", "094822.885000", "094824.375000", "094825.865000", "094827.355000", "094828.845000", "094830.335000", "094831.825000", "094833.315000", "094834.805000", "094836.295000", "094837.785000", "094839.275000", "094840.765000", "094842.255000", "094843.745000", "094845.235000", "094846.725000", "094848.215000", "094849.705000", "094851.195000", "094852.685000", "094854.175000", "094855.665000", "094857.155000", "094858.645000", "094900.135000", "094901.625000", "094903.115000", "094904.605000", "094906.095000", "094907.585000", "094909.075000", "094910.565000", "094912.055000", "094913.545000", "094915.035000", "094916.525000", "094918.015000", "094919.505000", "094920.995000", "094922.485000", "094923.975000", "094925.465000", "094926.955000", "094928.445000", "094929.935000", "094931.425000", "094932.915000", "094934.405000", "094935.895000", "094937.385000", "094938.875000", "094940.365000", "094941.855000", "094943.345000", "094944.835000", "094946.325000", "094947.815000", "094949.305000", "094950.795000", "094952.285000", "094953.775000", "094955.265000", "094956.755000", "094958.245000", "094959.735000", "095001.225000", "095002.715000", "095004.205000", "095005.695000", "095007.185000", "095008.675000", "095010.165000", "095011.655000", "095013.145000", "095014.635000", "095016.125000", "095017.615000", "095019.105000", "095020.595000", "095022.085000", "095023.575000", "095025.065000", "095026.555000", "095028.045000", "095029.535000", "095031.025000", "095032.515000", "095034.005000", "095035.495000", "095036.985000", "095038.475000", "095039.965000", "095041.455000", "095042.945000", "095044.435000", "095045.925000", "095047.415000", "095048.905000", "095050.395000", "095051.885000", "095053.375000", "095054.865000", "095056.355000", "095057.845000", "095059.335000", "095100.825000", "095102.315000", "095103.805000", "095105.295000", "095106.785000", "095108.275000", "095109.765000", "095111.255000", "095112.745000", "095114.235000", "095115.725000", "095117.215000", "095118.705000", "095120.195000", "095121.685000", "095123.175000", "095124.665000", "095126.155000", "095127.645000", "095129.135000", "095130.625000", "095132.115000", "095133.605000", "095135.095000", "095136.585000", "095138.075000", "095139.565000", "095141.055000", "095142.545000", "095144.035000", "095145.525000", "095147.015000", "095148.505000", "095149.995000", "095151.485000", "095152.975000", "095154.465000", "095155.955000", "095157.445000", "095158.935000", "095200.425000", "095201.915000", "095203.405000", "095204.895000", "095206.385000", "095207.875000", "095209.365000", "095210.855000", "095212.345000", "095213.835000", "095215.325000", "095216.815000", "095218.305000", "095219.795000", "095221.285000", "095222.775000", "095224.265000", "095225.755000", "095227.245000", "095228.735000", "095230.225000", "095231.715000", "095233.205000", "095234.695000", "095236.185000", "095237.675000", "095239.165000", "095240.655000", "095242.145000", "095243.635000", "095245.125000", "095246.615000", "095248.105000", "095249.595000", "095251.085000", "095252.575000", "095254.065000", "095255.555000", "095257.045000", "095258.535000", "095300.025000", "095301.515000", "095303.005000", "095304.495000", "095305.985000", "095307.475000", "095308.965000", "095310.455000", "095311.945000", "095313.435000", "095314.925000", "095316.415000", "095317.905000", "095319.395000", "095320.885000", "095322.375000", "095323.865000", "095325.355000", "095326.845000", "095328.335000"],
      "ContentTime": ["094301.112000", "094301.116000", "094301.119000", "094301.126000", "094301.129000", "094301.132000", "094301.136000", "094301.138000", "094301.141000", "094301.144000", "094301.148000", "094301.156000", "094301.159000", "094301.162000", "094301.165000", "094301.184000", "094301.187000", "094301.190000", "094301.194000", "094301.197000", "094301.200000", "094301.203000", "094321.083000", "094321.086000", "094321.089000", "094321.092000", "094321.095000", "094321.098000", "094321.101000", "094321.104000", "094321.107000", "094321.110000", "094321.113000", "094321.116000", "094321.119000", "094321.122000", "094321.125000", "094321.128000", "094321.131000", "094321.134000", "094321.142000", "094321.145000", "094341.083000", "094341.086000", "094341.089000", "094341.092000", "094341.095000", "094341.098000", "094341.101000", "094341.104000", "094341.107000", "094341.110000", "094341.113000", "094341.116000", "094341.119000", "094341.130000", "094341.133000", "094341.136000", "094341.139000", "094341.142000", "094341.145000", "094341.148000", "094401.084000", "094401.087000", "094401.090000", "094401.093000", "094401.096000", "094401.099000", "094401.102000", "094401.105000", "094401.108000", "094401.111000", "094401.114000", "094401.117000", "094401.120000", "094401.123000", "094401.126000", "094401.129000", "094401.132000", "094401.135000", "094401.138000", "094401.141000", "094421.084000", "094421.087000", "094421.090000", "094421.093000", "094421.096000", "094421.100000", "094421.103000", "094421.106000", "094421.108000", "094421.112000", "094421.115000", "094421.118000", "094421.120000", "094421.124000", "094421.127000", "094421.129000", "094421.132000", "094421.136000", "094421.139000", "094421.142000", "094421.145000", "094501.084000", "094501.087000", "094501.090000", "094501.101000", "094501.104000", "094501.107000", "094501.110000", "094501.113000", "094501.116000", "094501.119000", "094501.122000", "094501.125000", "094501.128000", "094501.131000", "094501.134000", "094501.137000", "094501.140000", "094501.143000", "094501.147000", "094501.149000", "094501.152000", "094501.155000", "094501.159000", "094501.162000", "094501.165000", "094501.168000", "094501.171000", "094541.083000", "094541.086000", "094541.089000", "094541.092000", "094541.095000", "094541.098000", "094541.101000", "094541.104000", "094541.107000", "094541.111000", "094541.114000", "094541.116000", "094541.119000", "094541.123000", "094541.126000", "094541.129000", "094541.132000", "094541.135000", "094541.138000", "094541.141000", "094541.144000", "094541.147000", "094541.150000", "094541.153000", "094541.156000", "094541.159000", "094541.162000", "094601.083000", "094601.086000", "094601.089000", "094601.093000", "094601.095000", "094601.098000", "094601.102000", "094601.105000", "094601.108000", "094601.111000", "094601.114000", "094601.117000", "094601.120000", "094601.123000", "094641.084000", "094641.087000", "094641.090000", "094641.093000", "094641.097000", "094641.100000", "094641.103000", "094641.106000", "094641.111000", "094641.114000", "094641.117000", "094641.120000", "094641.123000", "094641.126000", "094641.129000", "094641.132000", "094641.136000", "094641.139000", "094641.142000", "094641.145000", "094641.149000", "094641.153000", "094641.156000", "094641.160000", "094641.163000", "094641.166000", "094721.084000", "094721.087000", "094721.090000", "094721.093000", "094721.096000", "094721.099000", "094721.102000", "094721.105000", "094721.109000", "094721.112000", "094721.115000", "094721.118000", "094721.121000", "094721.124000", "094721.127000", "094721.130000", "094721.133000", "094721.136000", "094721.139000", "094721.142000", "094721.145000", "094721.148000", "094721.151000", "094721.154000", "094721.157000", "094721.160000", "094721.182000", "094801.083000", "094801.086000", "094801.089000", "094801.092000", "094801.095000", "094801.098000", "094801.101000", "094801.105000", "094801.108000", "094801.111000", "094801.114000", "094801.117000", "094801.120000", "094801.123000", "094801.126000", "094801.129000", "094801.132000", "094801.135000", "094801.138000", "094801.141000", "094801.144000", "094801.147000", "094801.150000", "094801.153000", "094801.156000", "094801.160000", "094801.163000", "094841.084000", "094841.087000", "094841.090000", "094841.093000", "094841.096000", "094841.100000", "094841.103000", "094841.106000", "094841.109000", "094841.112000", "094841.115000", "094841.118000", "094841.121000", "094841.124000", "094841.127000", "094841.130000", "094841.133000", "094841.136000", "094841.139000", "094841.142000", "094841.145000", "094841.148000", "094841.151000", "094841.154000", "094841.157000", "094841.160000", "094841.163000", "094921.084000", "094921.087000", "094921.090000", "094921.093000", "094921.097000", "094921.100000", "094921.103000", "094921.106000", "094921.109000", "094921.112000", "094921.115000", "094921.118000", "094921.121000", "094921.124000", "094921.127000", "094921.130000", "094921.143000", "094921.147000", "094921.150000", "094921.153000", "094921.156000", "094921.159000", "094921.162000", "094921.165000", "094921.168000", "094921.171000", "094921.174000", "095001.083000", "095001.086000", "095001.089000", "095001.092000", "095001.095000", "095001.098000", "095001.101000", "095001.104000", "095001.108000", "095001.111000", "095001.113000", "095001.117000", "095001.120000", "095001.123000", "095001.126000", "095001.129000", "095001.132000", "095001.135000", "095001.138000", "095001.141000", "095001.144000", "095001.147000", "095001.150000", "095001.153000", "095001.156000", "095001.159000", "095001.169000", "095041.084000", "095041.087000", "095041.090000", "095041.094000", "095041.097000", "095041.100000", "095041.103000", "095041.106000", "095041.109000", "095041.112000", "095041.115000", "095041.118000", "095041.121000", "095041.124000", "095041.127000", "095041.130000", "095041.133000", "095041.136000", "095041.139000", "095041.143000", "095041.146000", "095041.149000", "095041.151000", "095041.155000", "095041.158000", "095041.161000", "095041.164000", "095121.084000", "095121.087000", "095121.090000", "095121.093000", "095121.096000", "095121.099000", "095121.102000", "095121.105000", "095121.109000", "095121.112000", "095121.115000", "095121.117000", "095121.121000", "095121.124000", "095121.127000", "095121.130000", "095121.133000", "095121.137000", "095121.140000", "095121.143000", "095121.146000", "095121.149000", "095121.152000", "095121.155000", "095121.158000", "095121.161000", "095201.084000", "095201.087000", "095201.090000", "095201.093000", "095201.097000", "095201.099000", "095201.102000", "095201.105000", "095201.109000", "095201.112000", "095201.115000", "095201.118000", "095201.121000", "095201.130000", "095201.133000", "095201.136000", "095201.139000", "095201.142000", "095201.145000", "095201.148000", "095201.151000", "095201.154000", "095201.157000", "095201.160000", "095201.163000", "095201.166000", "095201.169000", "095241.083000", "095241.086000", "095241.089000", "095241.092000", "095241.095000", "095241.099000", "095241.102000", "095241.105000", "095241.108000", "095241.111000", "095241.114000", "095241.117000", "095241.120000", "095241.123000", "095241.126000", "095241.129000", "095241.132000", "095241.135000", "095241.138000", "095241.141000", "095241.144000", "095241.147000", "095241.150000", "095241.153000", "095241.156000", "095241.159000", "095241.163000", "095321.084000", "095321.087000", "095321.091000", "095321.094000", "095321.097000", "095321.100000", "095321.103000", "095321.106000", "095321.109000", "095321.112000", "095321.115000", "095321.118000", "095321.121000", "095321.124000", "095321.127000", "095321.130000", "095321.133000", "095321.136000", "095321.139000", "095321.142000", "095321.145000", "095321.148000", "095321.152000", "095321.154000", "095321.157000", "095321.160000", "095321.164000", "095330.953000", "095330.956000", "095330.959000", "095330.962000", "095330.965000", "095330.969000", "095330.972000"],
