{
  "AcquisitionMatrixPE": 104,
  "AcquisitionNumber": 1,
  "AcquisitionTime": "14:11:24.600000",
  "BandwidthPerPixelPhaseEncode": 17.17,
  "BaseResolution": 104,
  "BodyPartExamined": "BRAIN",
  "CoilString": "HC1-7;NC1_2",
  "ConsistencyInfo": "N4_VE11C_LATEST_20160120",
  "ConversionSoftware": "dcm2niix",
  "ConversionSoftwareVersion": "v1.0.20190720  (JP2:OpenJPEG) GCC7.3.0",
  "DerivedVendorReportedEchoSpacing": 0.000560011,
  "DeviceSerialNumber": "167006",
  "DwellTime": 2.1e-06,
  "EchoTime": 0.037,
  "EchoTrainLength": 104,
  "EffectiveEchoSpacing": 0.000560011,
  "FlipAngle": 52,
  "ImageComments": "Unaliased_MB4_PE3_LB",
  "ImageOrientationPatientDICOM": [0.9998, -0.00128968, 0.0199564, 0.0115174, 0.852933, -0.521893],
  "ImageType": [
    "ORIGINAL",
    "PRIMARY",
    "M",
    "MB",
    "ND",
    "MOSAIC"
],
  "ImagingFrequency": 123.259,
  "InPlanePhaseEncodingDirectionDICOM": "COL",
  "InstitutionAddress": "Chemin_Queen-Mary_4565_Montreal_District_CA_H3W_1W5",
  "InstitutionName": "IUGM",
  "InstitutionalDepartmentName": "Department",
  "MRAcquisitionType": "2D",
  "MagneticFieldStrength": 3,
  "Manufacturer": "Siemens",
  "ManufacturersModelName": "Prisma_fit",
  "Modality": "MR",
  "MultibandAccelerationFactor": 4,
  "PartialFourier": 1,
  "PatientPosition": "HFS",
  "PercentPhaseFOV": 100,
  "PhaseEncodingDirection": "j",
  "PhaseEncodingSteps": 104,
  "PhaseResolution": 1,
  "PixelBandwidth": 2290,
  "ProcedureStepDescription": "video_friends",
  "ProtocolName": "func_task-friends-s01e21a",
  "PulseSequenceDetails": "%CustomerSeq%_cmrr_mbep2d_bold",
  "ReceiveCoilActiveElements": "HC1-7;NC1,2",
  "ReceiveCoilName": "HeadNeck_64",
  "ReconMatrixPE": 104,
  "RepetitionTime": 1.49,
  "SAR": 0.0371848,
  "ScanOptions": "FS",
  "ScanningSequence": "EP",
  "SequenceName": "epfid2d1_104",
  "SequenceVariant": "SK_SS",
  "SeriesDescription": "func_task-friends-s01e21a",
  "SeriesNumber": 17,
  "ShimSetting": [630, -7196, -8888, 398, -31, -245, 42, -22],
  "SliceThickness": 2,
  "SliceTiming": [0, 0.785, 0.0975, 0.8825, 0.195, 0.98, 0.295, 1.0775, 0.3925, 1.175, 0.49, 1.2725, 0.5875, 1.3725, 0.685, 0, 0.785, 0.0975, 0.8825, 0.195, 0.98, 0.295, 1.0775, 0.3925, 1.175, 0.49, 1.2725, 0.5875, 1.3725, 0.685, 0, 0.785, 0.0975, 0.8825, 0.195, 0.98, 0.295, 1.0775, 0.3925, 1.175, 0.49, 1.2725, 0.5875, 1.3725, 0.685, 0, 0.785, 0.0975, 0.8825, 0.195, 0.98, 0.295, 1.0775, 0.3925, 1.175, 0.49, 1.2725, 0.5875, 1.3725, 0.685],
  "SoftwareVersions": "syngo_MR_E11",
  "SpacingBetweenSlices": 2,
  "StationName": "MRC35049",
  "TaskName": "friends",
  "TotalReadoutTime": 0.0576811,
  "TxRefAmp": 250.713,
  "WipMemBlock": "b8fba11f-643b-4f8f-8712-4f0ef0c6cc1a||Sequence: R016 ve11c/master r/e634e98; Dec 19 2017 11:00:25 by eja",
  "dcmmeta_affine": [
    [-1.9996000528335571, 0.023034803569316864, 0.032696738839149475, 101.20956420898438],
    [0.0025793639943003654, 1.7058664560317993, -1.044036865234375, -58.4562873840332],
    [0.03991272673010826, 1.0437859296798706, 1.7055549621582031, -109.41149139404297],
    [0.0, 0.0, 0.0, 1.0]
],
  "dcmmeta_reorient_transform": [
    [0.0, -1.0, 0.0, 103.0],
    [1.0, 0.0, 0.0, 0.0],
    [0.0, 0.0, 1.0, 0.0],
    [0.0, 0.0, 0.0, 1.0]
],
  "dcmmeta_shape": [104, 104, 60, 477],
  "dcmmeta_slice_dim": 2,
  "dcmmeta_version": 0.6,
  "global": {
    "const": {
      "AcquisitionMatrix": [104, 0, 0, 104],
      "AngioFlag": "N",
      "BitsAllocated": 16,
      "BitsStored": 16,
      "BodyPartExamined": "BRAIN",
      "Columns": 832,
      "EchoNumbers": 1,
      "EchoTime": 37.0,
      "EchoTrainLength": 104,
      "FlipAngle": 52.0,
      "HighBit": 15,
      "ImageOrientationPatient": [0.99980002012916, -0.0012896819415, 0.01995636415317, 0.01151740161537, 0.85293323129658, -0.521892951102],
      "ImagePositionPatient": [-839.8212329072, -737.24446362677, 363.50828929166],
      "ImageType": [
        "ORIGINAL",
        "PRIMARY",
        "M",
        "MB",
        "ND",
        "MOSAIC"
],
      "ImagedNucleus": "1H",
      "ImagingFrequency": 123.25949,
      "InPlanePhaseEncodingDirection": "COL",
      "MRAcquisitionType": "2D",
      "MagneticFieldStrength": 3.0,
      "Manufacturer": "SIEMENS",
      "ManufacturerModelName": "Prisma_fit",
      "Modality": "MR",
      "NumberOfAverages": 1.0,
      "NumberOfPhaseEncodingSteps": 104,
      "PercentPhaseFieldOfView": 100.0,
      "PercentSampling": 100.0,
      "PerformedProcedureStepStartTime": "125351.192000",
      "PhotometricInterpretation": "MONOCHROME2",
      "PixelBandwidth": 2290.0,
      "PixelRepresentation": 0,
      "PixelSpacing": [2.0, 2.0],
      "ProtocolName": "func_task-friends-s01e21a",
      "RepetitionTime": 1490.0,
      "Rows": 832,
      "SAR": 0.03718478057459,
      "SamplesPerPixel": 1,
      "ScanOptions": "FS",
      "ScanningSequence": "EP",
      "SequenceName": "epfid2d1_104",
      "SequenceVariant": [
        "SK",
        "SS"
],
      "SeriesDescription": "func_task-friends-s01e21a",
      "SeriesNumber": 17,
      "SeriesTime": "141252.330000",
      "SliceLocation": -61.133792005404,
      "SliceThickness": 2.0,
      "SmallestImagePixelValue": 0,
      "SoftwareVersions": "syngo MR E11",
      "SpacingBetweenSlices": 1.9999999837419,
      "SpecificCharacterSet": "ISO_IR 100",
      "StudyID": "1",
      "StudyTime": "125351.107000",
      "TransmitCoilName": "Body",
      "VariableFlipAngleFlag": "N",
      "WindowCenterWidthExplanation": "Algo1",
      "dBdt": 0.0},
    "slices": {}
  },
  "time": {
    "samples": {
      "AcquisitionNumber": [1, 2, 3, 4, 5, 6, 7, 8, 9, 10, 11, 12, 13, 14, 15, 16, 17, 18, 19, 20, 21, 22, 23, 24, 25, 26, 27, 28, 29, 30, 31, 32, 33, 34, 35, 36, 37, 38, 39, 40, 41, 42, 43, 44, 45, 46, 47, 48, 49, 50, 51, 52, 53, 54, 55, 56, 57, 58, 59, 60, 61, 62, 63, 64, 65, 66, 67, 68, 69, 70, 71, 72, 73, 74, 75, 76, 77, 78, 79, 80, 81, 82, 83, 84, 85, 86, 87, 88, 89, 90, 91, 92, 93, 94, 95, 96, 97, 98, 99, 100, 101, 102, 103, 104, 105, 106, 107, 108, 109, 110, 111, 112, 113, 114, 115, 116, 117, 118, 119, 120, 121, 122, 123, 124, 125, 126, 127, 128, 129, 130, 131, 132, 133, 134, 135, 136, 137, 138, 139, 140, 141, 142, 143, 144, 145, 146, 147, 148, 149, 150, 151, 152, 153, 154, 155, 156, 157, 158, 159, 160, 161, 162, 163, 164, 165, 166, 167, 168, 169, 170, 171, 172, 173, 174, 175, 176, 177, 178, 179, 180, 181, 182, 183, 184, 185, 186, 187, 188, 189, 190, 191, 192, 193, 194, 195, 196, 197, 198, 199, 200, 201, 202, 203, 204, 205, 206, 207, 208, 209, 210, 211, 212, 213, 214, 215, 216, 217, 218, 219, 220, 221, 222, 223, 224, 225, 226, 227, 228, 229, 230, 231, 232, 233, 234, 235, 236, 237, 238, 239, 240, 241, 242, 243, 244, 245, 246, 247, 248, 249, 250, 251, 252, 253, 254, 255, 256, 257, 258, 259, 260, 261, 262, 263, 264, 265, 266, 267, 268, 269, 270, 271, 272, 273, 274, 275, 276, 277, 278, 279, 280, 281, 282, 283, 284, 285, 286, 287, 288, 289, 290, 291, 292, 293, 294, 295, 296, 297, 298, 299, 300, 301, 302, 303, 304, 305, 306, 307, 308, 309, 310, 311, 312, 313, 314, 315, 316, 317, 318, 319, 320, 321, 322, 323, 324, 325, 326, 327, 328, 329, 330, 331, 332, 333, 334, 335, 336, 337, 338, 339, 340, 341, 342, 343, 344, 345, 346, 347, 348, 349, 350, 351, 352, 353, 354, 355, 356, 357, 358, 359, 360, 361, 362, 363, 364, 365, 366, 367, 368, 369, 370, 371, 372, 373, 374, 375, 376, 377, 378, 379, 380, 381, 382, 383, 384, 385, 386, 387, 388, 389, 390, 391, 392, 393, 394, 395, 396, 397, 398, 399, 400, 401, 402, 403, 404, 405, 406, 407, 408, 409, 410, 411, 412, 413, 414, 415, 416, 417, 418, 419, 420, 421, 422, 423, 424, 425, 426, 427, 428, 429, 430, 431, 432, 433, 434, 435, 436, 437, 438, 439, 440, 441, 442, 443, 444, 445, 446, 447, 448, 449, 450, 451, 452, 453, 454, 455, 456, 457, 458, 459, 460, 461, 462, 463, 464, 465, 466, 467, 468, 469, 470, 471, 472, 473, 474, 475, 476, 477],
      "AcquisitionTime": ["141124.600000", "141126.090000", "141127.580000", "141129.070000", "141130.560000", "141132.050000", "141133.540000", "141135.030000", "141136.520000", "141138.010000", "141139.500000", "141140.990000", "141142.480000", "141143.970000", "141145.460000", "141146.950000", "141148.440000", "141149.930000", "141151.420000", "141152.910000", "141154.400000", "141155.890000", "141157.380000", "141158.870000", "141200.360000", "141201.850000", "141203.340000", "141204.830000", "141206.320000", "141207.810000", "141209.300000", "141210.790000", "141212.280000", "141213.770000", "141215.260000", "141216.750000", "141218.240000", "141219.730000", "141221.220000", "141222.710000", "141224.200000", "141225.690000", "141227.180000", "141228.670000", "141230.160000", "141231.650000", "141233.140000", "141234.630000", "141236.120000", "141237.610000", "141239.100000", "141240.590000", "141242.080000", "141243.570000", "141245.060000", "141246.550000", "141248.040000", "141249.530000", "141251.020000", "141252.510000", "141254.000000", "141255.490000", "141256.980000", "141258.470000", "141259.960000", "141301.450000", "141302.940000", "141304.430000", "141305.920000", "141307.410000", "141308.900000", "141310.390000", "141311.880000", "141313.370000", "141314.860000", "141316.350000", "141317.840000", "141319.330000", "141320.820000", "141322.310000", "141323.800000", "141325.290000", "141326.780000", "141328.270000", "141329.760000", "141331.250000", "141332.740000", "141334.230000", "141335.720000", "141337.210000", "141338.700000", "141340.190000", "141341.680000", "141343.170000", "141344.660000", "141346.150000", "141347.640000", "141349.130000", "141350.620000", "141352.110000", "141353.600000", "141355.090000", "141356.580000", "141358.070000", "141359.560000", "141401.050000", "141402.540000", "141404.030000", "141405.520000", "141407.010000", "141408.500000", "141409.990000", "141411.480000", "141412.970000", "141414.460000", "141415.950000", "141417.440000", "141418.930000", "141420.420000", "141421.910000", "141423.400000", "141424.890000", "141426.380000", "141427.870000", "141429.360000", "141430.850000", "141432.340000", "141433.830000", "141435.320000", "141436.810000", "141438.300000", "141439.790000", "141441.280000", "141442.770000", "141444.260000", "141445.750000", "141447.240000", "141448.730000", "141450.220000", "141451.710000", "141453.200000", "141454.690000", "141456.180000", "141457.670000", "141459.160000", "141500.650000", "141502.140000", "141503.630000", "141505.120000", "141506.610000", "141508.100000", "141509.590000", "141511.080000", "141512.570000", "141514.060000", "141515.550000", "141517.040000", "141518.530000", "141520.020000", "141521.510000", "141523.000000", "141524.490000", "141525.980000", "141527.470000", "141528.960000", "141530.450000", "141531.940000", "141533.430000", "141534.920000", "141536.410000", "141537.900000", "141539.390000", "141540.880000", "141542.370000", "141543.860000", "141545.350000", "141546.840000", "141548.330000", "141549.820000", "141551.310000", "141552.800000", "141554.290000", "141555.780000", "141557.270000", "141558.760000", "141600.250000", "141601.740000", "141603.230000", "141604.720000", "141606.210000", "141607.700000", "141609.190000", "141610.680000", "141612.170000", "141613.660000", "141615.150000", "141616.640000", "141618.130000", "141619.620000", "141621.110000", "141622.600000", "141624.090000", "141625.580000", "141627.070000", "141628.560000", "141630.050000", "141631.540000", "141633.030000", "141634.520000", "141636.010000", "141637.500000", "141638.990000", "141640.480000", "141641.970000", "141643.460000", "141644.950000", "141646.440000", "141647.930000", "141649.420000", "141650.910000", "141652.400000", "141653.890000", "141655.380000", "141656.870000", "141658.360000", "141659.850000", "141701.340000", "141702.830000", "141704.320000", "141705.810000", "141707.300000", "141708.790000", "141710.280000", "141711.770000", "141713.260000", "141714.750000", "141716.240000", "141717.730000", "141719.220000", "141720.710000", "141722.200000", "141723.690000", "141725.180000", "141726.670000", "141728.160000", "141729.650000", "141731.140000", "141732.630000", "141734.120000", "141735.610000", "141737.100000", "141738.590000", "141740.080000", "141741.570000", "141743.060000", "141744.550000", "141746.040000", "141747.530000", "141749.020000", "141750.510000", "141752.000000", "141753.490000", "141754.980000", "141756.470000", "141757.960000", "141759.450000", "141800.940000", "141802.430000", "141803.920000", "141805.410000", "141806.900000", "141808.390000", "141809.880000", "141811.370000", "141812.860000", "141814.350000", "141815.840000", "141817.330000", "141818.820000", "141820.310000", "141821.800000", "141823.290000", "141824.780000", "141826.270000", "141827.760000", "141829.250000", "141830.740000", "141832.230000", "141833.720000", "141835.210000", "141836.700000", "141838.190000", "141839.680000", "141841.170000", "141842.660000", "141844.150000", "141845.640000", "141847.130000", "141848.620000", "141850.110000", "141851.600000", "141853.090000", "141854.580000", "141856.070000", "141857.560000", "141859.050000", "141900.540000", "141902.030000", "141903.520000", "141905.010000", "141906.500000", "141907.990000", "141909.480000", "141910.970000", "141912.460000", "141913.950000", "141915.440000", "141916.930000", "141918.420000", "141919.910000", "141921.400000", "141922.890000", "141924.380000", "141925.870000", "141927.360000", "141928.850000", "141930.340000", "141931.830000", "141933.320000", "141934.810000", "141936.300000", "141937.790000", "141939.280000", "141940.770000", "141942.260000", "141943.750000", "141945.240000", "141946.730000", "141948.220000", "141949.710000", "141951.200000", "141952.690000", "141954.180000", "141955.670000", "141957.160000", "141958.650000", "142000.140000", "142001.630000", "142003.120000", "142004.610000", "142006.100000", "142007.590000", "142009.080000", "142010.570000", "142012.060000", "142013.550000", "142015.040000", "142016.530000", "142018.020000", "142019.510000", "142021.000000", "142022.490000", "142023.980000", "142025.470000", "142026.960000", "142028.450000", "142029.940000", "142031.430000", "142032.920000", "142034.410000", "142035.900000", "142037.390000", "142038.880000", "142040.370000", "142041.860000", "142043.350000", "142044.840000", "142046.330000", "142047.820000", "142049.310000", "142050.800000", "142052.290000", "142053.780000", "142055.270000", "142056.760000", "142058.250000", "142059.740000", "142101.230000", "142102.720000", "142104.210000", "142105.700000", "142107.190000", "142108.680000", "142110.170000", "142111.660000", "142113.150000", "142114.640000", "142116.130000", "142117.620000", "142119.110000", "142120.600000", "142122.090000", "142123.580000", "142125.070000", "142126.560000", "142128.050000", "142129.540000", "142131.030000", "142132.520000", "142134.010000", "142135.500000", "142136.990000", "142138.480000", "142139.970000", "142141.460000", "142142.950000", "142144.440000", "142145.930000", "142147.420000", "142148.910000", "142150.400000", "142151.890000", "142153.380000", "142154.870000", "142156.360000", "142157.850000", "142159.340000", "142200.830000", "142202.320000", "142203.810000", "142205.300000", "142206.790000", "142208.280000", "142209.770000", "142211.260000", "142212.750000", "142214.240000", "142215.730000", "142217.220000", "142218.710000", "142220.200000", "142221.690000", "142223.180000", "142224.670000", "142226.160000", "142227.650000", "142229.140000", "142230.630000", "142232.120000", "142233.610000", "142235.100000", "142236.590000", "142238.080000", "142239.570000", "142241.060000", "142242.550000", "142244.040000", "142245.530000", "142247.020000", "142248.510000", "142250.000000", "142251.490000", "142252.980000", "142254.470000", "142255.960000", "142257.450000", "142258.940000", "142300.430000", "142301.920000", "142303.410000", "142304.900000", "142306.390000", "142307.880000", "142309.370000", "142310.860000", "142312.350000", "142313.840000"],
      "ContentTime": ["141252.333000", "141252.336000", "141252.339000", "141252.343000", "141252.345000", "141252.348000", "141252.356000", "141252.359000", "141252.362000", "141252.365000", "141252.368000", "141252.371000", "141252.374000", "141252.377000", "141252.380000", "141252.383000", "141252.386000", "141252.388000", "141252.391000", "141252.394000", "141252.397000", "141252.400000", "141252.403000", "141252.406000", "141252.409000", "141252.412000", "141252.415000", "141252.418000", "141252.421000", "141252.429000", "141252.432000", "141252.435000", "141252.438000", "141252.441000", "141312.292000", "141312.295000", "141312.298000", "141312.301000", "141312.304000", "141312.307000", "141312.309000", "141312.312000", "141312.315000", "141312.318000", "141312.321000", "141312.324000", "141312.327000", "141312.330000", "141312.333000", "141312.339000", "141312.342000", "141312.345000", "141312.348000", "141312.351000", "141332.292000", "141332.295000", "141332.298000", "141332.300000", "141332.303000", "141332.306000", "141332.309000", "141332.312000", "141332.315000", "141332.318000", "141332.321000", "141332.324000", "141332.343000", "141332.346000", "141332.349000", "141332.351000", "141332.355000", "141332.358000", "141332.362000", "141332.365000", "141352.292000", "141352.295000", "141352.298000", "141352.301000", "141352.304000", "141352.307000", "141352.310000", "141352.313000", "141352.316000", "141352.318000", "141352.321000", "141352.324000", "141352.327000", "141352.330000", "141352.333000", "141352.336000", "141352.339000", "141352.342000", "141352.345000", "141352.348000", "141352.350000", "141432.292000", "141432.295000", "141432.298000", "141432.301000", "141432.304000", "141432.307000", "141432.310000", "141432.312000", "141432.315000", "141432.318000", "141432.321000", "141432.324000", "141432.327000", "141432.330000", "141432.333000", "141432.336000", "141432.339000", "141432.342000", "141432.345000", "141432.347000", "141432.350000", "141432.353000", "141432.356000", "141432.359000", "141432.362000", "141432.365000", "141432.368000", "141432.371000", "141432.374000", "141432.377000", "141452.293000", "141452.296000", "141452.299000", "141452.302000", "141452.305000", "141452.308000", "141452.318000", "141452.321000", "141452.323000", "141452.326000", "141452.329000", "141452.332000", "141452.335000", "141532.292000", "141532.295000", "141532.298000", "141532.301000", "141532.304000", "141532.307000", "141532.310000", "141532.313000", "141532.315000", "141532.318000", "141532.321000", "141532.324000", "141532.327000", "141532.330000", "141532.333000", "141532.336000", "141532.339000", "141532.341000", "141532.344000", "141532.347000", "141532.350000", "141532.353000", "141532.356000", "141532.359000", "141532.362000", "141532.365000", "141532.368000", "141612.292000", "141612.295000", "141612.298000", "141612.301000", "141612.304000", "141612.307000", "141612.310000", "141612.313000", "141612.316000", "141612.319000", "141612.322000", "141612.325000", "141612.328000", "141612.331000", "141612.334000", "141612.336000", "141612.339000", "141612.342000", "141612.345000", "141612.348000", "141612.351000", "141612.354000", "141612.357000", "141612.360000", "141612.362000", "141612.365000", "141612.368000", "141652.292000", "141652.295000", "141652.298000", "141652.301000", "141652.304000", "141652.307000", "141652.309000", "141652.312000", "141652.315000", "141652.318000", "141652.321000", "141652.324000", "141652.327000", "141652.330000", "141652.332000", "141652.335000", "141652.338000", "141652.341000", "141652.344000", "141652.347000", "141652.350000", "141652.353000", "141652.356000", "141652.359000", "141652.362000", "141652.365000", "141652.367000", "141732.292000", "141732.295000", "141732.298000", "141732.301000", "141732.304000", "141732.307000", "141732.310000", "141732.313000", "141732.315000", "141732.318000", "141732.321000", "141732.324000", "141732.327000", "141732.330000", "141732.333000", "141732.335000", "141732.338000", "141732.341000", "141732.344000", "141732.347000", "141732.350000", "141732.353000", "141732.356000", "141732.359000", "141732.362000", "141732.364000", "141732.367000", "141812.292000", "141812.295000", "141812.298000", "141812.301000", "141812.304000", "141812.307000", "141812.310000", "141812.313000", "141812.316000", "141812.319000", "141812.322000", "141812.324000", "141812.328000", "141812.330000", "141812.333000", "141812.336000", "141812.339000", "141812.342000", "141812.345000", "141812.348000", "141812.351000", "141812.368000", "141812.371000", "141812.373000", "141812.382000", "141812.385000", "141812.388000", "141852.292000", "141852.296000", "141852.300000", "141852.303000", "141852.305000", "141852.309000", "141852.312000", "141852.316000", "141852.319000", "141852.321000", "141852.324000", "141852.327000", "141852.330000", "141852.333000", "141852.336000", "141852.339000", "141852.342000", "141852.345000", "141852.348000", "141852.351000", "141852.354000", "141852.357000", "141852.360000", "141852.363000", "141852.365000", "141852.368000", "141932.293000", "141932.296000", "141932.299000", "141932.302000", "141932.305000", "141932.308000", "141932.311000", "141932.314000", "141932.317000", "141932.319000", "141932.322000", "141932.325000", "141932.328000", "141932.331000", "141932.334000", "141932.337000", "141932.340000", "141932.343000", "141932.346000", "141932.348000", "141932.352000", "141932.354000", "141932.357000", "141932.360000", "141932.363000", "141932.366000", "141932.369000", "142012.292000", "142012.295000", "142012.298000", "142012.301000", "142012.304000", "142012.307000", "142012.310000", "142012.313000", "142012.316000", "142012.319000", "142012.322000", "142012.325000", "142012.327000", "142012.330000", "142012.333000", "142012.336000", "142012.339000", "142012.342000", "142012.345000", "142012.348000", "142012.351000", "142012.354000", "142012.357000", "142012.360000", "142012.362000", "142012.366000", "142012.368000", "142052.292000", "142052.295000", "142052.298000", "142052.301000", "142052.304000", "142052.307000", "142052.310000", "142052.313000", "142052.316000", "142052.319000", "142052.321000", "142052.324000", "142052.327000", "142052.330000", "142052.333000", "142052.336000", "142052.339000", "142052.342000", "142052.345000", "142052.348000", "142052.351000", "142052.354000", "142052.357000", "142052.359000", "142052.362000", "142052.365000", "142052.368000", "142132.292000", "142132.295000", "142132.298000", "142132.301000", "142132.304000", "142132.307000", "142132.310000", "142132.313000", "142132.316000", "142132.319000", "142132.322000", "142132.325000", "142132.328000", "142132.330000", "142132.333000", "142132.336000", "142132.339000", "142132.342000", "142132.345000", "142132.348000", "142132.351000", "142132.354000", "142132.356000", "142132.359000", "142132.362000", "142132.365000", "142132.368000", "142212.292000", "142212.295000", "142212.298000", "142212.301000", "142212.304000", "142212.307000", "142212.310000", "142212.313000", "142212.316000", "142212.318000", "142212.321000", "142212.324000", "142212.327000", "142212.330000", "142212.333000", "142212.336000", "142212.339000", "142212.342000", "142212.345000", "142212.347000", "142212.350000", "142212.353000", "142212.356000", "142212.359000", "142212.362000", "142212.365000", "142212.367000", "142252.292000", "142252.295000", "142252.298000", "142252.301000", "142252.304000", "142252.307000", "142252.310000", "142252.313000", "142252.316000", "142252.319000", "142252.322000", "142252.325000", "142252.328000", "142252.330000", "142252.333000", "142252.336000", "142252.339000", "142252.342000", "142252.345000", "142252.348000", "142252.351000", "142252.354000", "142252.368000", "142252.371000", "142252.374000", "142252.377000", "142252.380000", "142316.075000", "142316.079000", "142316.081000", "142316.084000", "142316.087000", "142316.090000", "142316.093000", "142316.096000", "142316.099000", "142316.102000", "142316.105000", "142316.108000", "142316.111000", "142316.114000", "142316.116000", "142316.119000"],
