{
  "AcquisitionMatrixPE": 104,
  "AcquisitionNumber": 1,
  "AcquisitionTime": "14:23:44.472500",
  "BandwidthPerPixelPhaseEncode": 17.17,
  "BaseResolution": 104,
  "BodyPartExamined": "BRAIN",
  "CoilString": "HC1-7;NC1_2",
  "ConsistencyInfo": "N4_VE11C_LATEST_20160120",
  "ConversionSoftware": "dcm2niix",
  "ConversionSoftwareVersion": "v1.0.20190720  (JP2:OpenJPEG) GCC7.3.0",
  "DerivedVendorReportedEchoSpacing": 0.000560011,
  "DeviceSerialNumber": "167006",
  "DwellTime": 2.1e-06,
  "EchoTime": 0.037,
  "EchoTrainLength": 104,
  "EffectiveEchoSpacing": 0.000560011,
  "FlipAngle": 52,
  "ImageComments": "Unaliased_MB4_PE3_LB",
  "ImageOrientationPatientDICOM": [0.9998, -0.00128968, 0.0199564, 0.0115174, 0.852933, -0.521893],
  "ImageType": [
    "ORIGINAL",
    "PRIMARY",
    "M",
    "MB",
    "ND",
    "MOSAIC"
],
  "ImagingFrequency": 123.259,
  "InPlanePhaseEncodingDirectionDICOM": "COL",
  "InstitutionAddress": "Chemin_Queen-Mary_4565_Montreal_District_CA_H3W_1W5",
  "InstitutionName": "IUGM",
  "InstitutionalDepartmentName": "Department",
  "MRAcquisitionType": "2D",
  "MagneticFieldStrength": 3,
  "Manufacturer": "Siemens",
  "ManufacturersModelName": "Prisma_fit",
  "Modality": "MR",
  "MultibandAccelerationFactor": 4,
  "PartialFourier": 1,
  "PatientPosition": "HFS",
  "PercentPhaseFOV": 100,
  "PhaseEncodingDirection": "j",
  "PhaseEncodingSteps": 104,
  "PhaseResolution": 1,
  "PixelBandwidth": 2290,
  "ProcedureStepDescription": "video_friends",
  "ProtocolName": "func_task-friends-s01e21b",
  "PulseSequenceDetails": "%CustomerSeq%_cmrr_mbep2d_bold",
  "ReceiveCoilActiveElements": "HC1-7;NC1,2",
  "ReceiveCoilName": "HeadNeck_64",
  "ReconMatrixPE": 104,
  "RepetitionTime": 1.49,
  "SAR": 0.0371848,
  "ScanOptions": "FS",
  "ScanningSequence": "EP",
  "SequenceName": "epfid2d1_104",
  "SequenceVariant": "SK_SS",
  "SeriesDescription": "func_task-friends-s01e21b",
  "SeriesNumber": 19,
  "ShimSetting": [630, -7196, -8888, 398, -31, -245, 42, -22],
  "SliceThickness": 2,
  "SliceTiming": [0, 0.785, 0.1, 0.8825, 0.1975, 0.98, 0.295, 1.08, 0.3925, 1.1775, 0.49, 1.275, 0.59, 1.3725, 0.6875, 0, 0.785, 0.1, 0.8825, 0.1975, 0.98, 0.295, 1.08, 0.3925, 1.1775, 0.49, 1.275, 0.59, 1.3725, 0.6875, 0, 0.785, 0.1, 0.8825, 0.1975, 0.98, 0.295, 1.08, 0.3925, 1.1775, 0.49, 1.275, 0.59, 1.3725, 0.6875, 0, 0.785, 0.1, 0.8825, 0.1975, 0.98, 0.295, 1.08, 0.3925, 1.1775, 0.49, 1.275, 0.59, 1.3725, 0.6875],
  "SoftwareVersions": "syngo_MR_E11",
  "SpacingBetweenSlices": 2,
  "StationName": "MRC35049",
  "TaskName": "friends",
  "TotalReadoutTime": 0.0576811,
  "TxRefAmp": 250.713,
  "WipMemBlock": "caf76a42-6a64-4e7e-9d1f-7e1a5d48ca04||Sequence: R016 ve11c/master r/e634e98; Dec 19 2017 11:00:25 by eja",
  "dcmmeta_affine": [
    [-1.9996000528335571, 0.023034803569316864, 0.032696738839149475, 101.20956420898438],
    [0.0025793639943003654, 1.7058664560317993, -1.044036865234375, -58.4562873840332],
    [0.03991272673010826, 1.0437859296798706, 1.7055549621582031, -109.41149139404297],
    [0.0, 0.0, 0.0, 1.0]
],
  "dcmmeta_reorient_transform": [
    [0.0, -1.0, 0.0, 103.0],
    [1.0, 0.0, 0.0, 0.0],
    [0.0, 0.0, 1.0, 0.0],
    [0.0, 0.0, 0.0, 1.0]
],
  "dcmmeta_shape": [104, 104, 60, 477],
  "dcmmeta_slice_dim": 2,
  "dcmmeta_version": 0.6,
  "global": {
    "const": {
      "AcquisitionMatrix": [104, 0, 0, 104],
      "AngioFlag": "N",
      "BitsAllocated": 16,
      "BitsStored": 16,
      "BodyPartExamined": "BRAIN",
      "Columns": 832,
      "EchoNumbers": 1,
      "EchoTime": 37.0,
      "EchoTrainLength": 104,
      "FlipAngle": 52.0,
      "HighBit": 15,
      "ImageOrientationPatient": [0.99980002012916, -0.0012896819415, 0.01995636415317, 0.01151740161537, 0.85293323129658, -0.521892951102],
      "ImagePositionPatient": [-839.8212329072, -737.24446362677, 363.50828929166],
      "ImageType": [
        "ORIGINAL",
        "PRIMARY",
        "M",
        "MB",
        "ND",
        "MOSAIC"
],
      "ImagedNucleus": "1H",
      "ImagingFrequency": 123.259492,
      "InPlanePhaseEncodingDirection": "COL",
      "MRAcquisitionType": "2D",
      "MagneticFieldStrength": 3.0,
      "Manufacturer": "SIEMENS",
      "ManufacturerModelName": "Prisma_fit",
      "Modality": "MR",
      "NumberOfAverages": 1.0,
      "NumberOfPhaseEncodingSteps": 104,
      "PercentPhaseFieldOfView": 100.0,
      "PercentSampling": 100.0,
      "PerformedProcedureStepStartTime": "125351.192000",
      "PhotometricInterpretation": "MONOCHROME2",
      "PixelBandwidth": 2290.0,
      "PixelRepresentation": 0,
      "PixelSpacing": [2.0, 2.0],
      "ProtocolName": "func_task-friends-s01e21b",
      "RepetitionTime": 1490.0,
      "Rows": 832,
      "SAR": 0.03718478057459,
      "SamplesPerPixel": 1,
      "ScanOptions": "FS",
      "ScanningSequence": "EP",
      "SequenceName": "epfid2d1_104",
      "SequenceVariant": [
        "SK",
        "SS"
],
      "SeriesDescription": "func_task-friends-s01e21b",
      "SeriesNumber": 19,
      "SeriesTime": "142516.475000",
      "SliceLocation": -61.133792005404,
      "SliceThickness": 2.0,
      "SmallestImagePixelValue": 0,
      "SoftwareVersions": "syngo MR E11",
      "SpacingBetweenSlices": 1.9999999837419,
      "SpecificCharacterSet": "ISO_IR 100",
      "StudyID": "1",
      "StudyTime": "125351.107000",
      "TransmitCoilName": "Body",
      "VariableFlipAngleFlag": "N",
      "WindowCenterWidthExplanation": "Algo1",
      "dBdt": 0.0},
    "slices": {}
  },
  "time": {
    "samples": {
      "AcquisitionNumber": [1, 2, 3, 4, 5, 6, 7, 8, 9, 10, 11, 12, 13, 14, 15, 16, 17, 18, 19, 20, 21, 22, 23, 24, 25, 26, 27, 28, 29, 30, 31, 32, 33, 34, 35, 36, 37, 38, 39, 40, 41, 42, 43, 44, 45, 46, 47, 48, 49, 50, 51, 52, 53, 54, 55, 56, 57, 58, 59, 60, 61, 62, 63, 64, 65, 66, 67, 68, 69, 70, 71, 72, 73, 74, 75, 76, 77, 78, 79, 80, 81, 82, 83, 84, 85, 86, 87, 88, 89, 90, 91, 92, 93, 94, 95, 96, 97, 98, 99, 100, 101, 102, 103, 104, 105, 106, 107, 108, 109, 110, 111, 112, 113, 114, 115, 116, 117, 118, 119, 120, 121, 122, 123, 124, 125, 126, 127, 128, 129, 130, 131, 132, 133, 134, 135, 136, 137, 138, 139, 140, 141, 142, 143, 144, 145, 146, 147, 148, 149, 150, 151, 152, 153, 154, 155, 156, 157, 158, 159, 160, 161, 162, 163, 164, 165, 166, 167, 168, 169, 170, 171, 172, 173, 174, 175, 176, 177, 178, 179, 180, 181, 182, 183, 184, 185, 186, 187, 188, 189, 190, 191, 192, 193, 194, 195, 196, 197, 198, 199, 200, 201, 202, 203, 204, 205, 206, 207, 208, 209, 210, 211, 212, 213, 214, 215, 216, 217, 218, 219, 220, 221, 222, 223, 224, 225, 226, 227, 228, 229, 230, 231, 232, 233, 234, 235, 236, 237, 238, 239, 240, 241, 242, 243, 244, 245, 246, 247, 248, 249, 250, 251, 252, 253, 254, 255, 256, 257, 258, 259, 260, 261, 262, 263, 264, 265, 266, 267, 268, 269, 270, 271, 272, 273, 274, 275, 276, 277, 278, 279, 280, 281, 282, 283, 284, 285, 286, 287, 288, 289, 290, 291, 292, 293, 294, 295, 296, 297, 298, 299, 300, 301, 302, 303, 304, 305, 306, 307, 308, 309, 310, 311, 312, 313, 314, 315, 316, 317, 318, 319, 320, 321, 322, 323, 324, 325, 326, 327, 328, 329, 330, 331, 332, 333, 334, 335, 336, 337, 338, 339, 340, 341, 342, 343, 344, 345, 346, 347, 348, 349, 350, 351, 352, 353, 354, 355, 356, 357, 358, 359, 360, 361, 362, 363, 364, 365, 366, 367, 368, 369, 370, 371, 372, 373, 374, 375, 376, 377, 378, 379, 380, 381, 382, 383, 384, 385, 386, 387, 388, 389, 390, 391, 392, 393, 394, 395, 396, 397, 398, 399, 400, 401, 402, 403, 404, 405, 406, 407, 408, 409, 410, 411, 412, 413, 414, 415, 416, 417, 418, 419, 420, 421, 422, 423, 424, 425, 426, 427, 428, 429, 430, 431, 432, 433, 434, 435, 436, 437, 438, 439, 440, 441, 442, 443, 444, 445, 446, 447, 448, 449, 450, 451, 452, 453, 454, 455, 456, 457, 458, 459, 460, 461, 462, 463, 464, 465, 466, 467, 468, 469, 470, 471, 472, 473, 474, 475, 476, 477],
      "AcquisitionTime": ["142344.472500", "142345.962500", "142347.452500", "142348.942500", "142350.432500", "142351.922500", "142353.412500", "142354.902500", "142356.392500", "142357.882500", "142359.372500", "142400.862500", "142402.352500", "142403.842500", "142405.332500", "142406.822500", "142408.312500", "142409.802500", "142411.292500", "142412.782500", "142414.272500", "142415.762500", "142417.252500", "142418.742500", "142420.232500", "142421.722500", "142423.212500", "142424.702500", "142426.192500", "142427.682500", "142429.172500", "142430.662500", "142432.152500", "142433.642500", "142435.132500", "142436.622500", "142438.112500", "142439.602500", "142441.092500", "142442.582500", "142444.072500", "142445.562500", "142447.052500", "142448.542500", "142450.032500", "142451.522500", "142453.012500", "142454.502500", "142455.992500", "142457.482500", "142458.972500", "142500.462500", "142501.952500", "142503.442500", "142504.932500", "142506.422500", "142507.912500", "142509.402500", "142510.892500", "142512.382500", "142513.872500", "142515.362500", "142516.852500", "142518.342500", "142519.832500", "142521.322500", "142522.812500", "142524.302500", "142525.792500", "142527.282500", "142528.772500", "142530.262500", "142531.752500", "142533.242500", "142534.732500", "142536.222500", "142537.712500", "142539.202500", "142540.692500", "142542.182500", "142543.672500", "142545.162500", "142546.652500", "142548.142500", "142549.632500", "142551.122500", "142552.612500", "142554.102500", "142555.592500", "142557.082500", "142558.572500", "142600.062500", "142601.552500", "142603.042500", "142604.532500", "142606.022500", "142607.512500", "142609.002500", "142610.492500", "142611.982500", "142613.472500", "142614.962500", "142616.452500", "142617.942500", "142619.432500", "142620.922500", "142622.412500", "142623.902500", "142625.392500", "142626.882500", "142628.372500", "142629.862500", "142631.352500", "142632.842500", "142634.332500", "142635.822500", "142637.312500", "142638.802500", "142640.292500", "142641.782500", "142643.272500", "142644.762500", "142646.252500", "142647.742500", "142649.232500", "142650.722500", "142652.212500", "142653.702500", "142655.192500", "142656.682500", "142658.172500", "142659.662500", "142701.152500", "142702.642500", "142704.132500", "142705.622500", "142707.112500", "142708.602500", "142710.092500", "142711.582500", "142713.072500", "142714.562500", "142716.052500", "142717.542500", "142719.032500", "142720.522500", "142722.012500", "142723.502500", "142724.992500", "142726.482500", "142727.972500", "142729.462500", "142730.952500", "142732.442500", "142733.932500", "142735.422500", "142736.912500", "142738.402500", "142739.892500", "142741.382500", "142742.872500", "142744.362500", "142745.852500", "142747.342500", "142748.832500", "142750.322500", "142751.812500", "142753.302500", "142754.792500", "142756.282500", "142757.772500", "142759.262500", "142800.752500", "142802.242500", "142803.732500", "142805.222500", "142806.712500", "142808.202500", "142809.692500", "142811.182500", "142812.672500", "142814.162500", "142815.652500", "142817.142500", "142818.632500", "142820.122500", "142821.612500", "142823.102500", "142824.592500", "142826.082500", "142827.572500", "142829.062500", "142830.552500", "142832.042500", "142833.532500", "142835.022500", "142836.512500", "142838.002500", "142839.492500", "142840.982500", "142842.472500", "142843.962500", "142845.452500", "142846.942500", "142848.432500", "142849.922500", "142851.412500", "142852.902500", "142854.392500", "142855.882500", "142857.372500", "142858.862500", "142900.352500", "142901.842500", "142903.332500", "142904.822500", "142906.312500", "142907.802500", "142909.292500", "142910.782500", "142912.272500", "142913.762500", "142915.252500", "142916.742500", "142918.232500", "142919.722500", "142921.212500", "142922.702500", "142924.192500", "142925.682500", "142927.172500", "142928.662500", "142930.152500", "142931.642500", "142933.132500", "142934.622500", "142936.112500", "142937.602500", "142939.092500", "142940.582500", "142942.072500", "142943.562500", "142945.052500", "142946.542500", "142948.032500", "142949.522500", "142951.012500", "142952.502500", "142953.992500", "142955.482500", "142956.972500", "142958.462500", "142959.952500", "143001.442500", "143002.932500", "143004.422500", "143005.912500", "143007.402500", "143008.892500", "143010.382500", "143011.872500", "143013.362500", "143014.852500", "143016.342500", "143017.832500", "143019.322500", "143020.812500", "143022.302500", "143023.792500", "143025.282500", "143026.772500", "143028.262500", "143029.752500", "143031.242500", "143032.732500", "143034.222500", "143035.712500", "143037.202500", "143038.692500", "143040.182500", "143041.672500", "143043.162500", "143044.652500", "143046.142500", "143047.632500", "143049.122500", "143050.612500", "143052.102500", "143053.592500", "143055.082500", "143056.572500", "143058.062500", "143059.552500", "143101.042500", "143102.532500", "143104.022500", "143105.512500", "143107.002500", "143108.492500", "143109.982500", "143111.472500", "143112.962500", "143114.452500", "143115.942500", "143117.432500", "143118.922500", "143120.412500", "143121.902500", "143123.392500", "143124.882500", "143126.372500", "143127.862500", "143129.352500", "143130.842500", "143132.332500", "143133.822500", "143135.312500", "143136.802500", "143138.292500", "143139.782500", "143141.272500", "143142.762500", "143144.252500", "143145.742500", "143147.232500", "143148.722500", "143150.212500", "143151.702500", "143153.192500", "143154.682500", "143156.172500", "143157.662500", "143159.152500", "143200.642500", "143202.132500", "143203.622500", "143205.112500", "143206.602500", "143208.092500", "143209.582500", "143211.072500", "143212.562500", "143214.052500", "143215.542500", "143217.032500", "143218.522500", "143220.012500", "143221.502500", "143222.992500", "143224.482500", "143225.972500", "143227.462500", "143228.952500", "143230.442500", "143231.932500", "143233.422500", "143234.912500", "143236.402500", "143237.892500", "143239.382500", "143240.872500", "143242.362500", "143243.852500", "143245.342500", "143246.832500", "143248.322500", "143249.812500", "143251.302500", "143252.792500", "143254.282500", "143255.772500", "143257.262500", "143258.752500", "143300.242500", "143301.732500", "143303.222500", "143304.712500", "143306.202500", "143307.692500", "143309.182500", "143310.672500", "143312.162500", "143313.652500", "143315.142500", "143316.632500", "143318.122500", "143319.612500", "143321.102500", "143322.592500", "143324.082500", "143325.572500", "143327.062500", "143328.552500", "143330.042500", "143331.532500", "143333.022500", "143334.512500", "143336.002500", "143337.492500", "143338.982500", "143340.472500", "143341.962500", "143343.452500", "143344.942500", "143346.432500", "143347.922500", "143349.412500", "143350.902500", "143352.392500", "143353.882500", "143355.372500", "143356.862500", "143358.352500", "143359.842500", "143401.332500", "143402.822500", "143404.312500", "143405.802500", "143407.292500", "143408.782500", "143410.272500", "143411.762500", "143413.252500", "143414.742500", "143416.232500", "143417.722500", "143419.212500", "143420.702500", "143422.192500", "143423.682500", "143425.172500", "143426.662500", "143428.152500", "143429.642500", "143431.132500", "143432.622500", "143434.112500", "143435.602500", "143437.092500", "143438.582500", "143440.072500", "143441.562500", "143443.052500", "143444.542500", "143446.032500", "143447.522500", "143449.012500", "143450.502500", "143451.992500", "143453.482500", "143454.972500", "143456.462500", "143457.952500", "143459.442500", "143500.932500", "143502.422500", "143503.912500", "143505.402500", "143506.892500", "143508.382500", "143509.872500", "143511.362500", "143512.852500", "143514.342500", "143515.832500", "143517.322500", "143518.812500", "143520.302500", "143521.792500", "143523.282500", "143524.772500", "143526.262500", "143527.752500", "143529.242500", "143530.732500", "143532.222500", "143533.712500"],
      "ContentTime": ["142516.478000", "142516.482000", "142516.485000", "142516.488000", "142516.491000", "142516.494000", "142516.506000", "142516.508000", "142516.512000", "142516.514000", "142516.517000", "142516.520000", "142516.523000", "142516.526000", "142516.529000", "142516.532000", "142516.535000", "142516.543000", "142516.545000", "142516.548000", "142516.551000", "142516.554000", "142516.557000", "142516.560000", "142516.563000", "142516.566000", "142516.569000", "142516.572000", "142516.575000", "142516.578000", "142516.581000", "142516.583000", "142516.586000", "142516.589000", "142516.592000", "142516.595000", "142516.598000", "142516.601000", "142536.433000", "142536.436000", "142536.439000", "142536.442000", "142536.445000", "142536.448000", "142536.451000", "142536.453000", "142536.456000", "142536.459000", "142536.462000", "142536.465000", "142536.468000", "142536.478000", "142536.480000", "142536.483000", "142536.486000", "142536.489000", "142536.492000", "142536.501000", "142556.434000", "142556.437000", "142556.440000", "142556.443000", "142556.445000", "142556.449000", "142556.451000", "142556.454000", "142556.457000", "142556.460000", "142556.463000", "142556.466000", "142556.469000", "142556.472000", "142556.475000", "142556.478000", "142556.480000", "142556.483000", "142556.486000", "142556.489000", "142616.434000", "142616.437000", "142616.440000", "142616.443000", "142616.446000", "142616.449000", "142616.451000", "142616.454000", "142616.457000", "142616.460000", "142616.463000", "142616.466000", "142616.469000", "142616.472000", "142616.475000", "142616.478000", "142616.480000", "142616.483000", "142616.486000", "142616.489000", "142656.434000", "142656.437000", "142656.440000", "142656.443000", "142656.446000", "142656.449000", "142656.452000", "142656.455000", "142656.458000", "142656.461000", "142656.464000", "142656.466000", "142656.469000", "142656.472000", "142656.475000", "142656.478000", "142656.481000", "142656.489000", "142656.491000", "142656.494000", "142656.497000", "142656.500000", "142656.503000", "142656.506000", "142656.509000", "142656.512000", "142656.515000", "142656.518000", "142656.520000", "142656.524000", "142736.434000", "142736.437000", "142736.440000", "142736.443000", "142736.446000", "142736.449000", "142736.452000", "142736.455000", "142736.457000", "142736.460000", "142736.463000", "142736.466000", "142736.469000", "142736.472000", "142736.475000", "142736.478000", "142736.480000", "142736.484000", "142736.499000", "142736.502000", "142736.505000", "142736.508000", "142736.511000", "142736.514000", "142736.517000", "142736.520000", "142736.523000", "142816.434000", "142816.437000", "142816.440000", "142816.443000", "142816.446000", "142816.449000", "142816.452000", "142816.454000", "142816.457000", "142816.460000", "142816.463000", "142816.466000", "142816.469000", "142816.472000", "142816.475000", "142816.478000", "142816.481000", "142816.483000", "142816.486000", "142816.489000", "142816.492000", "142816.495000", "142816.498000", "142816.501000", "142816.504000", "142816.508000", "142856.434000", "142856.437000", "142856.440000", "142856.443000", "142856.446000", "142856.449000", "142856.452000", "142856.455000", "142856.458000", "142856.460000", "142856.464000", "142856.466000", "142856.469000", "142856.472000", "142856.475000", "142856.478000", "142856.481000", "142856.484000", "142856.487000", "142856.490000", "142856.493000", "142856.496000", "142856.498000", "142856.501000", "142856.504000", "142856.507000", "142856.510000", "142936.434000", "142936.437000", "142936.440000", "142936.443000", "142936.446000", "142936.449000", "142936.452000", "142936.455000", "142936.457000", "142936.460000", "142936.463000", "142936.466000", "142936.469000", "142936.472000", "142936.475000", "142936.478000", "142936.481000", "142936.484000", "142936.487000", "142936.490000", "142936.492000", "142936.495000", "142936.498000", "142936.501000", "142936.504000", "142936.507000", "142936.510000", "143016.433000", "143016.436000", "143016.439000", "143016.442000", "143016.445000", "143016.448000", "143016.451000", "143016.454000", "143016.457000", "143016.460000", "143016.462000", "143016.465000", "143016.468000", "143016.471000", "143016.474000", "143016.477000", "143016.480000", "143016.483000", "143016.486000", "143016.489000", "143016.491000", "143016.495000", "143016.497000", "143016.500000", "143016.503000", "143016.506000", "143016.509000", "143056.434000", "143056.437000", "143056.440000", "143056.443000", "143056.446000", "143056.449000", "143056.452000", "143056.454000", "143056.458000", "143056.460000", "143056.463000", "143056.466000", "143056.469000", "143056.472000", "143056.475000", "143056.478000", "143056.481000", "143056.484000", "143056.487000", "143056.490000", "143056.493000", "143056.496000", "143056.499000", "143056.501000", "143056.504000", "143056.507000", "143056.510000", "143136.434000", "143136.437000", "143136.440000", "143136.443000", "143136.446000", "143136.449000", "143136.452000", "143136.455000", "143136.458000", "143136.461000", "143136.463000", "143136.466000", "143136.469000", "143136.472000", "143136.475000", "143136.478000", "143136.481000", "143136.484000", "143136.487000", "143136.490000", "143136.493000", "143136.496000", "143136.499000", "143136.502000", "143136.504000", "143136.507000", "143136.510000", "143216.434000", "143216.437000", "143216.440000", "143216.443000", "143216.445000", "143216.449000", "143216.452000", "143216.455000", "143216.458000", "143216.461000", "143216.463000", "143216.466000", "143216.469000", "143216.472000", "143216.475000", "143216.478000", "143216.481000", "143216.484000", "143216.487000", "143216.490000", "143216.493000", "143216.496000", "143216.499000", "143216.502000", "143216.504000", "143216.507000", "143216.510000", "143256.434000", "143256.437000", "143256.440000", "143256.443000", "143256.446000", "143256.465000", "143256.468000", "143256.471000", "143256.474000", "143256.477000", "143256.480000", "143256.483000", "143256.486000", "143256.489000", "143256.491000", "143256.494000", "143256.497000", "143256.501000", "143256.504000", "143256.507000", "143256.510000", "143256.513000", "143256.516000", "143256.519000", "143256.522000", "143256.525000", "143336.434000", "143336.437000", "143336.440000", "143336.443000", "143336.445000", "143336.448000", "143336.451000", "143336.454000", "143336.466000", "143336.469000", "143336.472000", "143336.475000", "143336.478000", "143336.481000", "143336.484000", "143336.487000", "143336.489000", "143336.492000", "143336.495000", "143336.498000", "143336.501000", "143336.504000", "143336.507000", "143336.510000", "143336.513000", "143336.516000", "143336.519000", "143416.434000", "143416.437000", "143416.440000", "143416.443000", "143416.446000", "143416.448000", "143416.451000", "143416.454000", "143416.457000", "143416.460000", "143416.463000", "143416.466000", "143416.469000", "143416.471000", "143416.474000", "143416.477000", "143416.480000", "143416.483000", "143416.486000", "143416.489000", "143416.492000", "143416.495000", "143416.498000", "143416.501000", "143416.504000", "143416.507000", "143416.509000", "143456.433000", "143456.436000", "143456.439000", "143456.442000", "143456.445000", "143456.448000", "143456.451000", "143456.454000", "143456.456000", "143456.459000", "143456.462000", "143456.465000", "143456.468000", "143456.471000", "143456.474000", "143456.477000", "143456.480000", "143456.482000", "143456.485000", "143456.488000", "143456.491000", "143456.494000", "143456.497000", "143456.500000", "143456.503000", "143456.506000", "143456.509000", "143516.434000", "143516.437000", "143516.440000", "143516.443000", "143516.446000", "143516.449000", "143516.452000", "143516.455000", "143516.458000", "143516.460000", "143516.463000", "143516.466000", "143516.469000", "143536.111000", "143536.114000", "143536.117000", "143536.120000", "143536.123000", "143536.126000", "143536.129000", "143536.132000", "143536.135000", "143536.138000", "143536.141000", "143536.144000", "143536.147000", "143536.150000"],
