{
  "AcquisitionMatrixPE": 104,
  "AcquisitionNumber": 1,
  "AcquisitionTime": "13:48:34.362500",
  "BandwidthPerPixelPhaseEncode": 17.17,
  "BaseResolution": 104,
  "BodyPartExamined": "BRAIN",
  "CoilString": "HC1-7;NC1_2",
  "ConsistencyInfo": "N4_VE11C_LATEST_20160120",
  "ConversionSoftware": "dcm2niix",
  "ConversionSoftwareVersion": "v1.0.20190902",
  "DerivedVendorReportedEchoSpacing": 0.000560011,
  "DeviceSerialNumber": "167006",
  "DwellTime": 2.1e-06,
  "EchoTime": 0.037,
  "EchoTrainLength": 104,
  "EffectiveEchoSpacing": 0.000560011,
  "FlipAngle": 52,
  "ImageComments": "Unaliased_MB4_PE3_LB",
  "ImageOrientationPatientDICOM": [0.999274, -0.0361956, -0.0118594, 0.028785, 0.92155, -0.387192],
  "ImageType": [
    "ORIGINAL",
    "PRIMARY",
    "M",
    "MB",
    "ND",
    "MOSAIC"
],
  "ImagingFrequency": 123.259,
  "InPlanePhaseEncodingDirectionDICOM": "COL",
  "InstitutionAddress": "Chemin_Queen-Mary_4565_Montreal_District_CA_H3W_1W5",
  "InstitutionName": "IUGM",
  "InstitutionalDepartmentName": "Department",
  "MRAcquisitionType": "2D",
  "MagneticFieldStrength": 3,
  "Manufacturer": "Siemens",
  "ManufacturersModelName": "Prisma_fit",
  "Modality": "MR",
  "MultibandAccelerationFactor": 4,
  "PartialFourier": 1,
  "PatientPosition": "HFS",
  "PercentPhaseFOV": 100,
  "PhaseEncodingDirection": "j",
  "PhaseEncodingSteps": 104,
  "PhaseResolution": 1,
  "PixelBandwidth": 2290,
  "ProcedureStepDescription": "video_friends",
  "ProtocolName": "func_task-friends-s02e19b",
  "PulseSequenceDetails": "%CustomerSeq%_cmrr_mbep2d_bold",
  "ReceiveCoilActiveElements": "HC1-7;NC1,2",
  "ReceiveCoilName": "HeadNeck_64",
  "ReconMatrixPE": 104,
  "RepetitionTime": 1.49,
  "SAR": 0.0336811,
  "ScanOptions": "FS",
  "ScanningSequence": "EP",
  "SequenceName": "epfid2d1_104",
  "SequenceVariant": "SK_SS",
  "SeriesDescription": "func_task-friends-s02e19b",
  "SeriesNumber": 11,
  "ShimSetting": [606, -7279, -8829, 419, -14, -447, 38, 12],
  "SliceThickness": 2,
  "SliceTiming": [0, 0.785, 0.0975, 0.8825, 0.195, 0.98, 0.295, 1.0775, 0.3925, 1.175, 0.49, 1.275, 0.5875, 1.3725, 0.685, 0, 0.785, 0.0975, 0.8825, 0.195, 0.98, 0.295, 1.0775, 0.3925, 1.175, 0.49, 1.275, 0.5875, 1.3725, 0.685, 0, 0.785, 0.0975, 0.8825, 0.195, 0.98, 0.295, 1.0775, 0.3925, 1.175, 0.49, 1.275, 0.5875, 1.3725, 0.685, 0, 0.785, 0.0975, 0.8825, 0.195, 0.98, 0.295, 1.0775, 0.3925, 1.175, 0.49, 1.275, 0.5875, 1.3725, 0.685],
  "SoftwareVersions": "syngo_MR_E11",
  "SpacingBetweenSlices": 2,
  "StationName": "MRC35049",
  "TaskName": "s02e19b",
  "TotalReadoutTime": 0.0576811,
  "TxRefAmp": 231.256,
  "WipMemBlock": "d8139369-69a5-4d0a-89b9-34413a5b06fb||Sequence: R016 ve11c/master r/e634e98; Dec 19 2017 11:00:25 by eja",
  "dcmmeta_affine": [
    [-1.9985487461090088, 0.05757006257772446, -0.04988724738359451, 97.81591033935547],
    [0.07239110767841339, 1.8430991172790527, -0.7731398940086365, -72.33477020263672],
    [-0.023718714714050293, 0.7743845582008362, 1.8438454866409302, -66.25714111328125],
    [0.0, 0.0, 0.0, 1.0]
],
  "dcmmeta_reorient_transform": [
    [0.0, -1.0, 0.0, 103.0],
    [1.0, 0.0, 0.0, 0.0],
    [0.0, 0.0, 1.0, 0.0],
    [0.0, 0.0, 0.0, 1.0]
],
  "dcmmeta_shape": [104, 104, 60, 478],
  "dcmmeta_slice_dim": 2,
  "dcmmeta_version": 0.6,
  "global": {
    "const": {
      "AcquisitionMatrix": [104, 0, 0, 104],
      "AngioFlag": "N",
      "BitsAllocated": 16,
      "BitsStored": 16,
      "BodyPartExamined": "BRAIN",
      "Columns": 832,
      "EchoNumbers": 1,
      "EchoTime": 37.0,
      "EchoTrainLength": 104,
      "FlipAngle": 52.0,
      "HighBit": 15,
      "ImageOrientationPatient": [0.9992743555538, -0.0361955520187, -0.0118593569221, 0.02878503046175, 0.92154953975114, -0.3871922878955],
      "ImagePositionPatient": [-852.17285800985, -762.04213582009, 304.01406602246],
      "ImageType": [
        "ORIGINAL",
        "PRIMARY",
        "M",
        "MB",
        "ND",
        "MOSAIC"
],
      "ImagedNucleus": "1H",
      "ImagingFrequency": 123.258811,
      "InPlanePhaseEncodingDirection": "COL",
      "MRAcquisitionType": "2D",
      "MagneticFieldStrength": 3.0,
      "Manufacturer": "SIEMENS",
      "ManufacturerModelName": "Prisma_fit",
      "Modality": "MR",
      "NumberOfAverages": 1.0,
      "NumberOfPhaseEncodingSteps": 104,
      "PercentPhaseFieldOfView": 100.0,
      "PercentSampling": 100.0,
      "PerformedProcedureStepStartTime": "131747.223000",
      "PhotometricInterpretation": "MONOCHROME2",
      "PixelBandwidth": 2290.0,
      "PixelRepresentation": 0,
      "PixelSpacing": [2.0, 2.0],
      "ProtocolName": "func_task-friends-s02e19b",
      "RepetitionTime": 1490.0,
      "Rows": 832,
      "SAR": 0.0336811319966,
      "SamplesPerPixel": 1,
      "ScanOptions": "FS",
      "ScanningSequence": "EP",
      "SequenceName": "epfid2d1_104",
      "SequenceVariant": [
        "SK",
        "SS"
],
      "SeriesDescription": "func_task-friends-s02e19b",
      "SeriesNumber": 11,
      "SeriesTime": "135000.623000",
      "SliceLocation": -35.561398422046,
      "SliceThickness": 2.0,
      "SmallestImagePixelValue": 0,
      "SoftwareVersions": "syngo MR E11",
      "SpacingBetweenSlices": 2.0000000121238,
      "SpecificCharacterSet": "ISO_IR 100",
      "StudyID": "1",
      "StudyTime": "131747.095000",
      "TransmitCoilName": "Body",
      "VariableFlipAngleFlag": "N",
      "WindowCenterWidthExplanation": "Algo1",
      "dBdt": 0.0},
    "slices": {}
  },
  "time": {
    "samples": {
      "AcquisitionNumber": [1, 2, 3, 4, 5, 6, 7, 8, 9, 10, 11, 12, 13, 14, 15, 16, 17, 18, 19, 20, 21, 22, 23, 24, 25, 26, 27, 28, 29, 30, 31, 32, 33, 34, 35, 36, 37, 38, 39, 40, 41, 42, 43, 44, 45, 46, 47, 48, 49, 50, 51, 52, 53, 54, 55, 56, 57, 58, 59, 60, 61, 62, 63, 64, 65, 66, 67, 68, 69, 70, 71, 72, 73, 74, 75, 76, 77, 78, 79, 80, 81, 82, 83, 84, 85, 86, 87, 88, 89, 90, 91, 92, 93, 94, 95, 96, 97, 98, 99, 100, 101, 102, 103, 104, 105, 106, 107, 108, 109, 110, 111, 112, 113, 114, 115, 116, 117, 118, 119, 120, 121, 122, 123, 124, 125, 126, 127, 128, 129, 130, 131, 132, 133, 134, 135, 136, 137, 138, 139, 140, 141, 142, 143, 144, 145, 146, 147, 148, 149, 150, 151, 152, 153, 154, 155, 156, 157, 158, 159, 160, 161, 162, 163, 164, 165, 166, 167, 168, 169, 170, 171, 172, 173, 174, 175, 176, 177, 178, 179, 180, 181, 182, 183, 184, 185, 186, 187, 188, 189, 190, 191, 192, 193, 194, 195, 196, 197, 198, 199, 200, 201, 202, 203, 204, 205, 206, 207, 208, 209, 210, 211, 212, 213, 214, 215, 216, 217, 218, 219, 220, 221, 222, 223, 224, 225, 226, 227, 228, 229, 230, 231, 232, 233, 234, 235, 236, 237, 238, 239, 240, 241, 242, 243, 244, 245, 246, 247, 248, 249, 250, 251, 252, 253, 254, 255, 256, 257, 258, 259, 260, 261, 262, 263, 264, 265, 266, 267, 268, 269, 270, 271, 272, 273, 274, 275, 276, 277, 278, 279, 280, 281, 282, 283, 284, 285, 286, 287, 288, 289, 290, 291, 292, 293, 294, 295, 296, 297, 298, 299, 300, 301, 302, 303, 304, 305, 306, 307, 308, 309, 310, 311, 312, 313, 314, 315, 316, 317, 318, 319, 320, 321, 322, 323, 324, 325, 326, 327, 328, 329, 330, 331, 332, 333, 334, 335, 336, 337, 338, 339, 340, 341, 342, 343, 344, 345, 346, 347, 348, 349, 350, 351, 352, 353, 354, 355, 356, 357, 358, 359, 360, 361, 362, 363, 364, 365, 366, 367, 368, 369, 370, 371, 372, 373, 374, 375, 376, 377, 378, 379, 380, 381, 382, 383, 384, 385, 386, 387, 388, 389, 390, 391, 392, 393, 394, 395, 396, 397, 398, 399, 400, 401, 402, 403, 404, 405, 406, 407, 408, 409, 410, 411, 412, 413, 414, 415, 416, 417, 418, 419, 420, 421, 422, 423, 424, 425, 426, 427, 428, 429, 430, 431, 432, 433, 434, 435, 436, 437, 438, 439, 440, 441, 442, 443, 444, 445, 446, 447, 448, 449, 450, 451, 452, 453, 454, 455, 456, 457, 458, 459, 460, 461, 462, 463, 464, 465, 466, 467, 468, 469, 470, 471, 472, 473, 474, 475, 476, 477, 478],
      "AcquisitionTime": ["134834.362500", "134835.852500", "134837.342500", "134838.832500", "134840.322500", "134841.812500", "134843.302500", "134844.792500", "134846.282500", "134847.772500", "134849.262500", "134850.752500", "134852.242500", "134853.732500", "134855.222500", "134856.712500", "134858.202500", "134859.692500", "134901.182500", "134902.672500", "134904.162500", "134905.652500", "134907.142500", "134908.632500", "134910.122500", "134911.612500", "134913.102500", "134914.592500", "134916.082500", "134917.572500", "134919.062500", "134920.552500", "134922.042500", "134923.532500", "134925.022500", "134926.512500", "134928.002500", "134929.492500", "134930.982500", "134932.472500", "134933.962500", "134935.452500", "134936.942500", "134938.432500", "134939.922500", "134941.412500", "134942.902500", "134944.392500", "134945.882500", "134947.372500", "134948.862500", "134950.352500", "134951.842500", "134953.332500", "134954.822500", "134956.312500", "134957.802500", "134959.292500", "135000.782500", "135002.272500", "135003.762500", "135005.252500", "135006.742500", "135008.232500", "135009.722500", "135011.212500", "135012.702500", "135014.192500", "135015.682500", "135017.172500", "135018.662500", "135020.152500", "135021.642500", "135023.132500", "135024.622500", "135026.112500", "135027.602500", "135029.092500", "135030.582500", "135032.072500", "135033.562500", "135035.052500", "135036.542500", "135038.032500", "135039.522500", "135041.012500", "135042.502500", "135043.992500", "135045.482500", "135046.972500", "135048.462500", "135049.952500", "135051.442500", "135052.932500", "135054.422500", "135055.912500", "135057.402500", "135058.892500", "135100.382500", "135101.872500", "135103.362500", "135104.852500", "135106.342500", "135107.832500", "135109.322500", "135110.812500", "135112.302500", "135113.792500", "135115.282500", "135116.772500", "135118.262500", "135119.752500", "135121.242500", "135122.732500", "135124.222500", "135125.712500", "135127.202500", "135128.692500", "135130.182500", "135131.672500", "135133.162500", "135134.652500", "135136.142500", "135137.632500", "135139.122500", "135140.612500", "135142.102500", "135143.592500", "135145.082500", "135146.572500", "135148.062500", "135149.552500", "135151.042500", "135152.532500", "135154.022500", "135155.512500", "135157.002500", "135158.492500", "135159.982500", "135201.472500", "135202.962500", "135204.452500", "135205.942500", "135207.432500", "135208.922500", "135210.412500", "135211.902500", "135213.392500", "135214.882500", "135216.372500", "135217.862500", "135219.352500", "135220.842500", "135222.332500", "135223.822500", "135225.312500", "135226.802500", "135228.292500", "135229.782500", "135231.272500", "135232.762500", "135234.252500", "135235.742500", "135237.232500", "135238.722500", "135240.212500", "135241.702500", "135243.192500", "135244.682500", "135246.172500", "135247.662500", "135249.152500", "135250.642500", "135252.132500", "135253.622500", "135255.112500", "135256.602500", "135258.092500", "135259.582500", "135301.072500", "135302.562500", "135304.052500", "135305.542500", "135307.032500", "135308.522500", "135310.012500", "135311.502500", "135312.992500", "135314.482500", "135315.972500", "135317.462500", "135318.952500", "135320.442500", "135321.932500", "135323.422500", "135324.912500", "135326.402500", "135327.892500", "135329.382500", "135330.872500", "135332.362500", "135333.852500", "135335.342500", "135336.832500", "135338.322500", "135339.812500", "135341.302500", "135342.792500", "135344.282500", "135345.772500", "135347.262500", "135348.752500", "135350.242500", "135351.732500", "135353.222500", "135354.712500", "135356.202500", "135357.692500", "135359.182500", "135400.672500", "135402.162500", "135403.652500", "135405.142500", "135406.632500", "135408.122500", "135409.612500", "135411.102500", "135412.592500", "135414.082500", "135415.572500", "135417.062500", "135418.552500", "135420.042500", "135421.532500", "135423.022500", "135424.512500", "135426.002500", "135427.492500", "135428.982500", "135430.472500", "135431.962500", "135433.452500", "135434.942500", "135436.432500", "135437.922500", "135439.412500", "135440.902500", "135442.392500", "135443.882500", "135445.372500", "135446.862500", "135448.352500", "135449.842500", "135451.332500", "135452.822500", "135454.312500", "135455.802500", "135457.292500", "135458.782500", "135500.272500", "135501.762500", "135503.252500", "135504.742500", "135506.232500", "135507.722500", "135509.212500", "135510.702500", "135512.192500", "135513.682500", "135515.172500", "135516.662500", "135518.152500", "135519.642500", "135521.132500", "135522.622500", "135524.112500", "135525.602500", "135527.092500", "135528.582500", "135530.072500", "135531.562500", "135533.052500", "135534.542500", "135536.032500", "135537.522500", "135539.012500", "135540.502500", "135541.992500", "135543.482500", "135544.972500", "135546.462500", "135547.952500", "135549.442500", "135550.932500", "135552.422500", "135553.912500", "135555.402500", "135556.892500", "135558.382500", "135559.872500", "135601.362500", "135602.852500", "135604.342500", "135605.832500", "135607.322500", "135608.812500", "135610.302500", "135611.792500", "135613.282500", "135614.772500", "135616.262500", "135617.752500", "135619.242500", "135620.732500", "135622.222500", "135623.712500", "135625.202500", "135626.692500", "135628.182500", "135629.672500", "135631.162500", "135632.652500", "135634.142500", "135635.632500", "135637.122500", "135638.612500", "135640.102500", "135641.592500", "135643.082500", "135644.572500", "135646.062500", "135647.552500", "135649.042500", "135650.532500", "135652.022500", "135653.512500", "135655.002500", "135656.492500", "135657.982500", "135659.472500", "135700.962500", "135702.452500", "135703.942500", "135705.432500", "135706.922500", "135708.412500", "135709.902500", "135711.392500", "135712.882500", "135714.372500", "135715.862500", "135717.352500", "135718.842500", "135720.332500", "135721.822500", "135723.312500", "135724.802500", "135726.292500", "135727.782500", "135729.272500", "135730.762500", "135732.252500", "135733.742500", "135735.232500", "135736.722500", "135738.212500", "135739.702500", "135741.192500", "135742.682500", "135744.172500", "135745.662500", "135747.152500", "135748.642500", "135750.132500", "135751.622500", "135753.112500", "135754.602500", "135756.092500", "135757.582500", "135759.072500", "135800.562500", "135802.052500", "135803.542500", "135805.032500", "135806.522500", "135808.012500", "135809.502500", "135810.992500", "135812.482500", "135813.972500", "135815.462500", "135816.952500", "135818.442500", "135819.932500", "135821.422500", "135822.912500", "135824.402500", "135825.892500", "135827.382500", "135828.872500", "135830.362500", "135831.852500", "135833.342500", "135834.832500", "135836.322500", "135837.812500", "135839.302500", "135840.792500", "135842.282500", "135843.772500", "135845.262500", "135846.752500", "135848.242500", "135849.732500", "135851.222500", "135852.712500", "135854.202500", "135855.692500", "135857.182500", "135858.672500", "135900.162500", "135901.652500", "135903.142500", "135904.632500", "135906.122500", "135907.612500", "135909.102500", "135910.592500", "135912.082500", "135913.572500", "135915.062500", "135916.552500", "135918.042500", "135919.532500", "135921.022500", "135922.512500", "135924.002500", "135925.492500", "135926.982500", "135928.472500", "135929.962500", "135931.452500", "135932.942500", "135934.432500", "135935.922500", "135937.412500", "135938.902500", "135940.392500", "135941.882500", "135943.372500", "135944.862500", "135946.352500", "135947.842500", "135949.332500", "135950.822500", "135952.312500", "135953.802500", "135955.292500", "135956.782500", "135958.272500", "135959.762500", "140001.252500", "140002.742500", "140004.232500", "140005.722500", "140007.212500", "140008.702500", "140010.192500", "140011.682500", "140013.172500", "140014.662500", "140016.152500", "140017.642500", "140019.132500", "140020.622500", "140022.112500", "140023.602500", "140025.092500"],
      "ContentTime": ["135000.626000", "135000.629000", "135000.632000", "135000.635000", "135000.638000", "135000.641000", "135000.646000", "135000.649000", "135000.652000", "135000.655000", "135000.658000", "135000.661000", "135000.664000", "135000.667000", "135000.670000", "135000.673000", "135000.676000", "135000.679000", "135000.682000", "135000.685000", "135000.688000", "135000.691000", "135000.694000", "135000.697000", "135000.700000", "135000.703000", "135000.706000", "135000.709000", "135000.713000", "135000.715000", "135000.719000", "135000.722000", "135000.725000", "135020.589000", "135020.592000", "135020.595000", "135020.598000", "135020.601000", "135020.604000", "135020.607000", "135020.610000", "135020.613000", "135020.616000", "135020.619000", "135020.622000", "135020.625000", "135020.628000", "135020.632000", "135020.635000", "135020.638000", "135020.641000", "135020.644000", "135020.647000", "135040.590000", "135040.593000", "135040.596000", "135040.599000", "135040.602000", "135040.605000", "135040.609000", "135040.612000", "135040.615000", "135040.618000", "135040.622000", "135040.625000", "135040.628000", "135040.631000", "135040.634000", "135040.638000", "135040.641000", "135040.644000", "135040.647000", "135040.650000", "135100.590000", "135100.593000", "135100.596000", "135100.599000", "135100.602000", "135100.605000", "135100.608000", "135100.611000", "135100.614000", "135100.617000", "135100.620000", "135100.623000", "135100.627000", "135100.630000", "135100.633000", "135100.636000", "135100.639000", "135100.642000", "135100.645000", "135100.648000", "135100.651000", "135140.590000", "135140.593000", "135140.596000", "135140.599000", "135140.602000", "135140.605000", "135140.608000", "135140.619000", "135140.623000", "135140.626000", "135140.629000", "135140.632000", "135140.635000", "135140.638000", "135140.641000", "135140.644000", "135140.647000", "135140.650000", "135140.653000", "135140.656000", "135140.659000", "135140.662000", "135140.665000", "135140.668000", "135140.671000", "135140.674000", "135140.677000", "135140.680000", "135140.683000", "135140.686000", "135220.590000", "135220.593000", "135220.596000", "135220.607000", "135220.610000", "135220.613000", "135220.616000", "135220.619000", "135220.622000", "135220.645000", "135220.648000", "135220.651000", "135220.654000", "135220.657000", "135220.660000", "135220.664000", "135220.667000", "135220.669000", "135220.672000", "135220.676000", "135220.679000", "135220.682000", "135220.685000", "135220.688000", "135220.691000", "135220.694000", "135220.697000", "135300.590000", "135300.593000", "135300.596000", "135300.599000", "135300.602000", "135300.605000", "135300.608000", "135300.611000", "135300.614000", "135300.617000", "135300.621000", "135300.624000", "135300.627000", "135300.630000", "135300.633000", "135300.636000", "135300.639000", "135300.642000", "135300.645000", "135300.648000", "135300.651000", "135300.654000", "135300.657000", "135300.660000", "135300.663000", "135300.666000", "135300.669000", "135340.590000", "135340.593000", "135340.596000", "135340.599000", "135340.602000", "135340.606000", "135340.609000", "135340.612000", "135340.615000", "135340.618000", "135340.621000", "135340.624000", "135340.627000", "135340.630000", "135340.633000", "135340.637000", "135340.640000", "135340.643000", "135340.646000", "135340.649000", "135340.652000", "135340.655000", "135340.658000", "135340.661000", "135340.664000", "135340.667000", "135340.670000", "135420.590000", "135420.593000", "135420.596000", "135420.599000", "135420.602000", "135420.605000", "135420.609000", "135420.612000", "135420.615000", "135420.618000", "135420.621000", "135420.624000", "135420.628000", "135420.631000", "135420.634000", "135420.637000", "135420.640000", "135420.643000", "135420.646000", "135420.649000", "135420.652000", "135420.655000", "135420.658000", "135420.661000", "135420.664000", "135420.667000", "135420.670000", "135500.589000", "135500.592000", "135500.595000", "135500.598000", "135500.601000", "135500.604000", "135500.607000", "135500.610000", "135500.613000", "135500.617000", "135500.620000", "135500.623000", "135500.626000", "135500.629000", "135500.632000", "135500.635000", "135500.638000", "135500.641000", "135500.644000", "135500.647000", "135500.651000", "135500.655000", "135500.658000", "135500.661000", "135500.664000", "135500.668000", "135540.590000", "135540.593000", "135540.596000", "135540.599000", "135540.602000", "135540.605000", "135540.608000", "135540.611000", "135540.615000", "135540.618000", "135540.621000", "135540.624000", "135540.627000", "135540.630000", "135540.633000", "135540.636000", "135540.639000", "135540.642000", "135540.645000", "135540.648000", "135540.651000", "135540.655000", "135540.658000", "135540.661000", "135540.664000", "135540.667000", "135540.670000", "135600.590000", "135600.593000", "135600.597000", "135600.600000", "135600.603000", "135600.606000", "135600.609000", "135600.612000", "135600.615000", "135600.618000", "135600.621000", "135600.624000", "135600.628000", "135600.631000", "135640.590000", "135640.593000", "135640.596000", "135640.599000", "135640.603000", "135640.606000", "135640.609000", "135640.612000", "135640.615000", "135640.619000", "135640.622000", "135640.625000", "135640.628000", "135640.631000", "135640.634000", "135640.637000", "135640.640000", "135640.643000", "135640.646000", "135640.649000", "135640.652000", "135640.655000", "135640.658000", "135640.661000", "135640.664000", "135640.668000", "135720.589000", "135720.592000", "135720.595000", "135720.598000", "135720.601000", "135720.604000", "135720.607000", "135720.611000", "135720.614000", "135720.617000", "135720.620000", "135720.623000", "135720.626000", "135720.629000", "135720.632000", "135720.635000", "135720.638000", "135720.641000", "135720.644000", "135720.647000", "135720.650000", "135720.653000", "135720.656000", "135720.660000", "135720.663000", "135720.666000", "135720.669000", "135800.590000", "135800.593000", "135800.596000", "135800.599000", "135800.602000", "135800.606000", "135800.609000", "135800.612000", "135800.615000", "135800.618000", "135800.621000", "135800.624000", "135800.627000", "135800.630000", "135800.634000", "135800.637000", "135800.640000", "135800.643000", "135800.646000", "135800.649000", "135800.652000", "135800.655000", "135800.658000", "135800.661000", "135800.664000", "135800.667000", "135800.670000", "135840.590000", "135840.593000", "135840.596000", "135840.600000", "135840.602000", "135840.606000", "135840.609000", "135840.622000", "135840.625000", "135840.628000", "135840.631000", "135840.634000", "135840.637000", "135840.641000", "135840.644000", "135840.647000", "135840.650000", "135840.653000", "135840.656000", "135840.659000", "135840.662000", "135840.665000", "135840.668000", "135840.671000", "135840.674000", "135840.677000", "135840.680000", "135920.590000", "135920.593000", "135920.596000", "135920.600000", "135920.603000", "135920.606000", "135920.609000", "135920.612000", "135920.615000", "135920.618000", "135920.621000", "135920.625000", "135920.628000", "135920.631000", "135920.634000", "135920.637000", "135920.640000", "135920.643000", "135920.646000", "135920.649000", "135920.652000", "135920.655000", "135920.658000", "135920.661000", "135920.664000", "135920.667000", "135920.670000", "140000.590000", "140000.593000", "140000.596000", "140000.600000", "140000.603000", "140000.606000", "140000.609000", "140000.612000", "140000.615000", "140000.618000", "140000.621000", "140000.624000", "140000.627000", "140000.630000", "140000.633000", "140000.636000", "140000.639000", "140000.643000", "140000.646000", "140000.649000", "140000.652000", "140000.655000", "140000.658000", "140000.661000", "140000.664000", "140000.667000", "140000.670000", "140027.141000", "140027.144000", "140027.147000", "140027.150000", "140027.154000", "140027.156000", "140027.160000", "140027.163000", "140027.166000", "140027.184000", "140027.187000", "140027.190000", "140027.193000", "140027.196000", "140027.200000", "140027.203000", "140027.206000", "140027.209000"],
