{
  "AcquisitionMatrixPE": 104,
  "AcquisitionNumber": 1,
  "AcquisitionTime": "14:12:28.087500",
  "BandwidthPerPixelPhaseEncode": 17.17,
  "BaseResolution": 104,
  "BodyPartExamined": "BRAIN",
  "CoilString": "HC1-7;NC1_2",
  "ConsistencyInfo": "N4_VE11C_LATEST_20160120",
  "ConversionSoftware": "dcm2niix",
  "ConversionSoftwareVersion": "v1.0.20190902",
  "DerivedVendorReportedEchoSpacing": 0.000560011,
  "DeviceSerialNumber": "167006",
  "DwellTime": 2.1e-06,
  "EchoTime": 0.037,
  "EchoTrainLength": 104,
  "EffectiveEchoSpacing": 0.000560011,
  "FlipAngle": 52,
  "ImageComments": "Unaliased_MB4_PE3_LB",
  "ImageOrientationPatientDICOM": [0.999274, -0.0361956, -0.0118594, 0.028785, 0.92155, -0.387192],
  "ImageType": [
    "ORIGINAL",
    "PRIMARY",
    "M",
    "MB",
    "ND",
    "MOSAIC"
],
  "ImagingFrequency": 123.259,
  "InPlanePhaseEncodingDirectionDICOM": "COL",
  "InstitutionAddress": "Chemin_Queen-Mary_4565_Montreal_District_CA_H3W_1W5",
  "InstitutionName": "IUGM",
  "InstitutionalDepartmentName": "Department",
  "MRAcquisitionType": "2D",
  "MagneticFieldStrength": 3,
  "Manufacturer": "Siemens",
  "ManufacturersModelName": "Prisma_fit",
  "Modality": "MR",
  "MultibandAccelerationFactor": 4,
  "PartialFourier": 1,
  "PatientPosition": "HFS",
  "PercentPhaseFOV": 100,
  "PhaseEncodingDirection": "j",
  "PhaseEncodingSteps": 104,
  "PhaseResolution": 1,
  "PixelBandwidth": 2290,
  "ProcedureStepDescription": "video_friends",
  "ProtocolName": "func_task-friends-s02e20b",
  "PulseSequenceDetails": "%CustomerSeq%_cmrr_mbep2d_bold",
  "ReceiveCoilActiveElements": "HC1-7;NC1,2",
  "ReceiveCoilName": "HeadNeck_64",
  "ReconMatrixPE": 104,
  "RepetitionTime": 1.49,
  "SAR": 0.0336721,
  "ScanOptions": "FS",
  "ScanningSequence": "EP",
  "SequenceName": "epfid2d1_104",
  "SequenceVariant": "SK_SS",
  "SeriesDescription": "func_task-friends-s02e20b",
  "SeriesNumber": 15,
  "ShimSetting": [606, -7279, -8829, 419, -14, -447, 38, 12],
  "SliceThickness": 2,
  "SliceTiming": [0, 0.7825, 0.0975, 0.8825, 0.195, 0.98, 0.295, 1.0775, 0.3925, 1.175, 0.49, 1.2725, 0.5875, 1.3725, 0.685, 0, 0.7825, 0.0975, 0.8825, 0.195, 0.98, 0.295, 1.0775, 0.3925, 1.175, 0.49, 1.2725, 0.5875, 1.3725, 0.685, 0, 0.7825, 0.0975, 0.8825, 0.195, 0.98, 0.295, 1.0775, 0.3925, 1.175, 0.49, 1.2725, 0.5875, 1.3725, 0.685, 0, 0.7825, 0.0975, 0.8825, 0.195, 0.98, 0.295, 1.0775, 0.3925, 1.175, 0.49, 1.2725, 0.5875, 1.3725, 0.685],
  "SoftwareVersions": "syngo_MR_E11",
  "SpacingBetweenSlices": 2,
  "StationName": "MRC35049",
  "TaskName": "s02e20b",
  "TotalReadoutTime": 0.0576811,
  "TxRefAmp": 231.256,
  "WipMemBlock": "08316ea0-5f82-4fed-b7d6-d248714bc877||Sequence: R016 ve11c/master r/e634e98; Dec 19 2017 11:00:25 by eja",
  "dcmmeta_affine": [
    [-1.9985487461090088, 0.05757006257772446, -0.04988724738359451, 97.81591033935547],
    [0.07239110767841339, 1.8430991172790527, -0.7731398940086365, -72.33477020263672],
    [-0.023718714714050293, 0.7743845582008362, 1.8438454866409302, -66.25714111328125],
    [0.0, 0.0, 0.0, 1.0]
],
  "dcmmeta_reorient_transform": [
    [0.0, -1.0, 0.0, 103.0],
    [1.0, 0.0, 0.0, 0.0],
    [0.0, 0.0, 1.0, 0.0],
    [0.0, 0.0, 0.0, 1.0]
],
  "dcmmeta_shape": [104, 104, 60, 449],
  "dcmmeta_slice_dim": 2,
  "dcmmeta_version": 0.6,
  "global": {
    "const": {
      "AcquisitionMatrix": [104, 0, 0, 104],
      "AngioFlag": "N",
      "BitsAllocated": 16,
      "BitsStored": 16,
      "BodyPartExamined": "BRAIN",
      "Columns": 832,
      "EchoNumbers": 1,
      "EchoTime": 37.0,
      "EchoTrainLength": 104,
      "FlipAngle": 52.0,
      "HighBit": 15,
      "ImageOrientationPatient": [0.9992743555538, -0.0361955520187, -0.0118593569221, 0.02878503046175, 0.92154953975114, -0.3871922878955],
      "ImagePositionPatient": [-852.17285800985, -762.04213582009, 304.01406602246],
      "ImageType": [
        "ORIGINAL",
        "PRIMARY",
        "M",
        "MB",
        "ND",
        "MOSAIC"
],
      "ImagedNucleus": "1H",
      "ImagingFrequency": 123.258822,
      "InPlanePhaseEncodingDirection": "COL",
      "MRAcquisitionType": "2D",
      "MagneticFieldStrength": 3.0,
      "Manufacturer": "SIEMENS",
      "ManufacturerModelName": "Prisma_fit",
      "Modality": "MR",
      "NumberOfAverages": 1.0,
      "NumberOfPhaseEncodingSteps": 104,
      "PercentPhaseFieldOfView": 100.0,
      "PercentSampling": 100.0,
      "PerformedProcedureStepStartTime": "131747.223000",
      "PhotometricInterpretation": "MONOCHROME2",
      "PixelBandwidth": 2290.0,
      "PixelRepresentation": 0,
      "PixelSpacing": [2.0, 2.0],
      "ProtocolName": "func_task-friends-s02e20b",
      "RepetitionTime": 1490.0,
      "Rows": 832,
      "SAR": 0.03367214539539,
      "SamplesPerPixel": 1,
      "ScanOptions": "FS",
      "ScanningSequence": "EP",
      "SequenceName": "epfid2d1_104",
      "SequenceVariant": [
        "SK",
        "SS"
],
      "SeriesDescription": "func_task-friends-s02e20b",
      "SeriesNumber": 15,
      "SeriesTime": "141401.114000",
      "SliceLocation": -35.561398422046,
      "SliceThickness": 2.0,
      "SmallestImagePixelValue": 0,
      "SoftwareVersions": "syngo MR E11",
      "SpacingBetweenSlices": 2.0000000121238,
      "SpecificCharacterSet": "ISO_IR 100",
      "StudyID": "1",
      "StudyTime": "131747.095000",
      "TransmitCoilName": "Body",
      "VariableFlipAngleFlag": "N",
      "WindowCenterWidthExplanation": "Algo1",
      "dBdt": 0.0},
    "slices": {}
  },
  "time": {
    "samples": {
      "AcquisitionNumber": [1, 2, 3, 4, 5, 6, 7, 8, 9, 10, 11, 12, 13, 14, 15, 16, 17, 18, 19, 20, 21, 22, 23, 24, 25, 26, 27, 28, 29, 30, 31, 32, 33, 34, 35, 36, 37, 38, 39, 40, 41, 42, 43, 44, 45, 46, 47, 48, 49, 50, 51, 52, 53, 54, 55, 56, 57, 58, 59, 60, 61, 62, 63, 64, 65, 66, 67, 68, 69, 70, 71, 72, 73, 74, 75, 76, 77, 78, 79, 80, 81, 82, 83, 84, 85, 86, 87, 88, 89, 90, 91, 92, 93, 94, 95, 96, 97, 98, 99, 100, 101, 102, 103, 104, 105, 106, 107, 108, 109, 110, 111, 112, 113, 114, 115, 116, 117, 118, 119, 120, 121, 122, 123, 124, 125, 126, 127, 128, 129, 130, 131, 132, 133, 134, 135, 136, 137, 138, 139, 140, 141, 142, 143, 144, 145, 146, 147, 148, 149, 150, 151, 152, 153, 154, 155, 156, 157, 158, 159, 160, 161, 162, 163, 164, 165, 166, 167, 168, 169, 170, 171, 172, 173, 174, 175, 176, 177, 178, 179, 180, 181, 182, 183, 184, 185, 186, 187, 188, 189, 190, 191, 192, 193, 194, 195, 196, 197, 198, 199, 200, 201, 202, 203, 204, 205, 206, 207, 208, 209, 210, 211, 212, 213, 214, 215, 216, 217, 218, 219, 220, 221, 222, 223, 224, 225, 226, 227, 228, 229, 230, 231, 232, 233, 234, 235, 236, 237, 238, 239, 240, 241, 242, 243, 244, 245, 246, 247, 248, 249, 250, 251, 252, 253, 254, 255, 256, 257, 258, 259, 260, 261, 262, 263, 264, 265, 266, 267, 268, 269, 270, 271, 272, 273, 274, 275, 276, 277, 278, 279, 280, 281, 282, 283, 284, 285, 286, 287, 288, 289, 290, 291, 292, 293, 294, 295, 296, 297, 298, 299, 300, 301, 302, 303, 304, 305, 306, 307, 308, 309, 310, 311, 312, 313, 314, 315, 316, 317, 318, 319, 320, 321, 322, 323, 324, 325, 326, 327, 328, 329, 330, 331, 332, 333, 334, 335, 336, 337, 338, 339, 340, 341, 342, 343, 344, 345, 346, 347, 348, 349, 350, 351, 352, 353, 354, 355, 356, 357, 358, 359, 360, 361, 362, 363, 364, 365, 366, 367, 368, 369, 370, 371, 372, 373, 374, 375, 376, 377, 378, 379, 380, 381, 382, 383, 384, 385, 386, 387, 388, 389, 390, 391, 392, 393, 394, 395, 396, 397, 398, 399, 400, 401, 402, 403, 404, 405, 406, 407, 408, 409, 410, 411, 412, 413, 414, 415, 416, 417, 418, 419, 420, 421, 422, 423, 424, 425, 426, 427, 428, 429, 430, 431, 432, 433, 434, 435, 436, 437, 438, 439, 440, 441, 442, 443, 444, 445, 446, 447, 448, 449],
      "AcquisitionTime": ["141228.087500", "141229.577500", "141231.067500", "141232.557500", "141234.047500", "141235.537500", "141237.027500", "141238.517500", "141240.007500", "141241.497500", "141242.987500", "141244.477500", "141245.967500", "141247.457500", "141248.947500", "141250.437500", "141251.927500", "141253.417500", "141254.907500", "141256.397500", "141257.887500", "141259.377500", "141300.867500", "141302.357500", "141303.847500", "141305.337500", "141306.827500", "141308.317500", "141309.807500", "141311.297500", "141312.787500", "141314.277500", "141315.767500", "141317.257500", "141318.747500", "141320.237500", "141321.727500", "141323.217500", "141324.707500", "141326.197500", "141327.687500", "141329.177500", "141330.667500", "141332.157500", "141333.647500", "141335.137500", "141336.627500", "141338.117500", "141339.607500", "141341.097500", "141342.587500", "141344.077500", "141345.567500", "141347.057500", "141348.547500", "141350.037500", "141351.527500", "141353.017500", "141354.507500", "141355.997500", "141357.487500", "141358.977500", "141400.467500", "141401.957500", "141403.447500", "141404.937500", "141406.427500", "141407.917500", "141409.407500", "141410.897500", "141412.387500", "141413.877500", "141415.367500", "141416.857500", "141418.347500", "141419.837500", "141421.327500", "141422.817500", "141424.307500", "141425.797500", "141427.287500", "141428.777500", "141430.267500", "141431.757500", "141433.247500", "141434.737500", "141436.227500", "141437.717500", "141439.207500", "141440.697500", "141442.187500", "141443.677500", "141445.167500", "141446.657500", "141448.147500", "141449.637500", "141451.127500", "141452.617500", "141454.107500", "141455.597500", "141457.087500", "141458.577500", "141500.067500", "141501.557500", "141503.047500", "141504.537500", "141506.027500", "141507.517500", "141509.007500", "141510.497500", "141511.987500", "141513.477500", "141514.967500", "141516.457500", "141517.947500", "141519.437500", "141520.927500", "141522.417500", "141523.907500", "141525.397500", "141526.887500", "141528.377500", "141529.867500", "141531.357500", "141532.847500", "141534.337500", "141535.827500", "141537.317500", "141538.807500", "141540.297500", "141541.787500", "141543.277500", "141544.767500", "141546.257500", "141547.747500", "141549.237500", "141550.727500", "141552.217500", "141553.707500", "141555.197500", "141556.687500", "141558.177500", "141559.667500", "141601.157500", "141602.647500", "141604.137500", "141605.627500", "141607.117500", "141608.607500", "141610.097500", "141611.587500", "141613.077500", "141614.567500", "141616.057500", "141617.547500", "141619.037500", "141620.527500", "141622.017500", "141623.507500", "141624.997500", "141626.487500", "141627.977500", "141629.467500", "141630.957500", "141632.447500", "141633.937500", "141635.427500", "141636.917500", "141638.407500", "141639.897500", "141641.387500", "141642.877500", "141644.367500", "141645.857500", "141647.347500", "141648.837500", "141650.327500", "141651.817500", "141653.307500", "141654.797500", "141656.287500", "141657.777500", "141659.267500", "141700.757500", "141702.247500", "141703.737500", "141705.227500", "141706.717500", "141708.207500", "141709.697500", "141711.187500", "141712.677500", "141714.167500", "141715.657500", "141717.147500", "141718.637500", "141720.127500", "141721.617500", "141723.107500", "141724.597500", "141726.087500", "141727.577500", "141729.067500", "141730.557500", "141732.047500", "141733.537500", "141735.027500", "141736.517500", "141738.007500", "141739.497500", "141740.987500", "141742.477500", "141743.967500", "141745.457500", "141746.947500", "141748.437500", "141749.927500", "141751.417500", "141752.907500", "141754.397500", "141755.887500", "141757.377500", "141758.867500", "141800.357500", "141801.847500", "141803.337500", "141804.827500", "141806.317500", "141807.807500", "141809.297500", "141810.787500", "141812.277500", "141813.767500", "141815.257500", "141816.747500", "141818.237500", "141819.727500", "141821.217500", "141822.707500", "141824.197500", "141825.687500", "141827.177500", "141828.667500", "141830.157500", "141831.647500", "141833.137500", "141834.627500", "141836.117500", "141837.607500", "141839.097500", "141840.587500", "141842.077500", "141843.567500", "141845.057500", "141846.547500", "141848.037500", "141849.527500", "141851.017500", "141852.507500", "141853.997500", "141855.487500", "141856.977500", "141858.467500", "141859.957500", "141901.447500", "141902.937500", "141904.427500", "141905.917500", "141907.407500", "141908.897500", "141910.387500", "141911.877500", "141913.367500", "141914.857500", "141916.347500", "141917.837500", "141919.327500", "141920.817500", "141922.307500", "141923.797500", "141925.287500", "141926.777500", "141928.267500", "141929.757500", "141931.247500", "141932.737500", "141934.227500", "141935.717500", "141937.207500", "141938.697500", "141940.187500", "141941.677500", "141943.167500", "141944.657500", "141946.147500", "141947.637500", "141949.127500", "141950.617500", "141952.107500", "141953.597500", "141955.087500", "141956.577500", "141958.067500", "141959.557500", "142001.047500", "142002.537500", "142004.027500", "142005.517500", "142007.007500", "142008.497500", "142009.987500", "142011.477500", "142012.967500", "142014.457500", "142015.947500", "142017.437500", "142018.927500", "142020.417500", "142021.907500", "142023.397500", "142024.887500", "142026.377500", "142027.867500", "142029.357500", "142030.847500", "142032.337500", "142033.827500", "142035.317500", "142036.807500", "142038.297500", "142039.787500", "142041.277500", "142042.767500", "142044.257500", "142045.747500", "142047.237500", "142048.727500", "142050.217500", "142051.707500", "142053.197500", "142054.687500", "142056.177500", "142057.667500", "142059.157500", "142100.647500", "142102.137500", "142103.627500", "142105.117500", "142106.607500", "142108.097500", "142109.587500", "142111.077500", "142112.567500", "142114.057500", "142115.547500", "142117.037500", "142118.527500", "142120.017500", "142121.507500", "142122.997500", "142124.487500", "142125.977500", "142127.467500", "142128.957500", "142130.447500", "142131.937500", "142133.427500", "142134.917500", "142136.407500", "142137.897500", "142139.387500", "142140.877500", "142142.367500", "142143.857500", "142145.347500", "142146.837500", "142148.327500", "142149.817500", "142151.307500", "142152.797500", "142154.287500", "142155.777500", "142157.267500", "142158.757500", "142200.247500", "142201.737500", "142203.227500", "142204.717500", "142206.207500", "142207.697500", "142209.187500", "142210.677500", "142212.167500", "142213.657500", "142215.147500", "142216.637500", "142218.127500", "142219.617500", "142221.107500", "142222.597500", "142224.087500", "142225.577500", "142227.067500", "142228.557500", "142230.047500", "142231.537500", "142233.027500", "142234.517500", "142236.007500", "142237.497500", "142238.987500", "142240.477500", "142241.967500", "142243.457500", "142244.947500", "142246.437500", "142247.927500", "142249.417500", "142250.907500", "142252.397500", "142253.887500", "142255.377500", "142256.867500", "142258.357500", "142259.847500", "142301.337500", "142302.827500", "142304.317500", "142305.807500", "142307.297500", "142308.787500", "142310.277500", "142311.767500", "142313.257500", "142314.747500", "142316.237500", "142317.727500", "142319.217500", "142320.707500", "142322.197500", "142323.687500", "142325.177500", "142326.667500", "142328.157500", "142329.647500", "142331.137500", "142332.627500", "142334.117500", "142335.607500"],
      "ContentTime": ["141401.116000", "141401.120000", "141401.123000", "141401.126000", "141401.129000", "141401.132000", "141401.135000", "141401.138000", "141401.141000", "141401.144000", "141401.147000", "141401.150000", "141401.153000", "141401.156000", "141401.159000", "141401.162000", "141401.165000", "141401.168000", "141401.171000", "141401.174000", "141401.178000", "141401.181000", "141401.211000", "141401.214000", "141401.217000", "141401.220000", "141401.223000", "141401.226000", "141401.229000", "141401.232000", "141401.235000", "141401.238000", "141401.241000", "141401.244000", "141401.248000", "141401.251000", "141401.254000", "141401.257000", "141401.260000", "141421.084000", "141421.087000", "141421.090000", "141421.093000", "141421.096000", "141421.099000", "141421.102000", "141421.105000", "141421.108000", "141421.111000", "141421.114000", "141421.117000", "141421.120000", "141421.123000", "141421.127000", "141421.130000", "141421.133000", "141421.136000", "141421.139000", "141421.142000", "141441.084000", "141441.087000", "141441.090000", "141441.093000", "141441.096000", "141441.099000", "141441.102000", "141441.105000", "141441.108000", "141441.111000", "141441.114000", "141441.117000", "141441.120000", "141441.123000", "141441.126000", "141441.129000", "141441.132000", "141441.135000", "141441.139000", "141441.141000", "141501.084000", "141501.087000", "141501.090000", "141501.094000", "141501.096000", "141501.099000", "141501.103000", "141501.105000", "141501.108000", "141501.111000", "141501.115000", "141501.117000", "141501.120000", "141501.132000", "141501.135000", "141501.138000", "141501.141000", "141501.144000", "141501.147000", "141501.150000", "141541.083000", "141541.086000", "141541.089000", "141541.092000", "141541.095000", "141541.098000", "141541.102000", "141541.105000", "141541.108000", "141541.110000", "141541.114000", "141541.117000", "141541.120000", "141541.123000", "141541.126000", "141541.129000", "141541.132000", "141541.135000", "141541.138000", "141541.141000", "141541.144000", "141541.147000", "141541.150000", "141541.153000", "141541.156000", "141541.159000", "141541.162000", "141541.165000", "141541.168000", "141541.171000", "141601.083000", "141601.086000", "141601.089000", "141601.092000", "141601.095000", "141601.098000", "141601.101000", "141601.104000", "141601.107000", "141601.110000", "141601.119000", "141601.122000", "141601.125000", "141641.084000", "141641.087000", "141641.090000", "141641.094000", "141641.097000", "141641.099000", "141641.102000", "141641.106000", "141641.109000", "141641.112000", "141641.115000", "141641.118000", "141641.121000", "141641.124000", "141641.127000", "141641.130000", "141641.133000", "141641.136000", "141641.139000", "141641.142000", "141641.145000", "141641.148000", "141641.151000", "141641.154000", "141641.157000", "141641.160000", "141641.163000", "141721.084000", "141721.087000", "141721.091000", "141721.094000", "141721.097000", "141721.100000", "141721.103000", "141721.106000", "141721.109000", "141721.112000", "141721.115000", "141721.118000", "141721.121000", "141721.124000", "141721.127000", "141721.130000", "141721.133000", "141721.136000", "141721.139000", "141721.142000", "141721.145000", "141721.148000", "141721.151000", "141721.154000", "141721.157000", "141721.160000", "141721.163000", "141801.083000", "141801.086000", "141801.089000", "141801.092000", "141801.095000", "141801.099000", "141801.102000", "141801.105000", "141801.107000", "141801.111000", "141801.114000", "141801.117000", "141801.120000", "141801.123000", "141801.126000", "141801.129000", "141801.132000", "141801.135000", "141801.138000", "141801.141000", "141801.144000", "141801.147000", "141801.150000", "141801.153000", "141801.160000", "141801.163000", "141801.166000", "141841.084000", "141841.087000", "141841.090000", "141841.093000", "141841.096000", "141841.099000", "141841.102000", "141841.106000", "141841.109000", "141841.112000", "141841.115000", "141841.118000", "141841.121000", "141841.124000", "141841.127000", "141841.130000", "141841.133000", "141841.136000", "141841.139000", "141841.142000", "141841.145000", "141841.148000", "141841.151000", "141841.154000", "141841.157000", "141841.160000", "141841.163000", "141921.084000", "141921.087000", "141921.090000", "141921.094000", "141921.097000", "141921.100000", "141921.103000", "141921.106000", "141921.109000", "141921.112000", "141921.115000", "141921.118000", "141921.121000", "141921.124000", "141921.127000", "141921.130000", "141921.133000", "141921.136000", "141921.139000", "141921.142000", "141921.145000", "141921.148000", "141921.151000", "141921.154000", "141921.157000", "141921.160000", "141921.163000", "142001.083000", "142001.086000", "142001.089000", "142001.092000", "142001.096000", "142001.099000", "142001.102000", "142001.105000", "142001.108000", "142001.111000", "142001.114000", "142001.117000", "142001.120000", "142001.123000", "142001.126000", "142001.129000", "142001.132000", "142001.151000", "142001.154000", "142001.157000", "142001.160000", "142001.163000", "142001.166000", "142001.169000", "142001.173000", "142001.176000", "142041.083000", "142041.086000", "142041.089000", "142041.092000", "142041.096000", "142041.099000", "142041.102000", "142041.105000", "142041.108000", "142041.111000", "142041.114000", "142041.117000", "142041.120000", "142041.123000", "142041.126000", "142041.129000", "142041.132000", "142041.135000", "142041.138000", "142041.141000", "142041.144000", "142041.147000", "142041.150000", "142041.153000", "142041.156000", "142041.159000", "142041.162000", "142121.084000", "142121.087000", "142121.090000", "142121.094000", "142121.097000", "142121.100000", "142121.103000", "142121.106000", "142121.109000", "142121.112000", "142121.115000", "142121.118000", "142121.121000", "142121.124000", "142121.127000", "142121.130000", "142121.133000", "142121.136000", "142121.139000", "142121.143000", "142121.145000", "142121.149000", "142121.152000", "142121.155000", "142121.158000", "142121.161000", "142121.164000", "142201.084000", "142201.087000", "142201.091000", "142201.094000", "142201.097000", "142201.100000", "142201.103000", "142201.106000", "142201.109000", "142201.112000", "142201.115000", "142201.118000", "142201.121000", "142201.124000", "142201.127000", "142201.130000", "142201.133000", "142201.136000", "142201.139000", "142201.143000", "142201.146000", "142201.149000", "142201.152000", "142201.155000", "142201.158000", "142201.161000", "142201.164000", "142241.083000", "142241.086000", "142241.090000", "142241.093000", "142241.096000", "142241.099000", "142241.102000", "142241.105000", "142241.108000", "142241.111000", "142241.114000", "142241.117000", "142241.120000", "142241.123000", "142241.126000", "142241.129000", "142241.132000", "142241.135000", "142241.138000", "142241.141000", "142241.144000", "142241.147000", "142241.150000", "142241.153000", "142241.156000", "142241.160000", "142241.163000", "142321.084000", "142321.087000", "142321.090000", "142321.093000", "142321.097000", "142321.100000", "142321.103000", "142321.106000", "142321.109000", "142321.112000", "142321.115000", "142321.118000", "142321.121000", "142321.124000", "142321.127000", "142321.130000", "142321.133000", "142321.136000", "142321.139000", "142321.142000", "142321.146000", "142321.149000", "142321.152000", "142321.155000", "142321.158000", "142321.161000", "142321.164000", "142337.400000", "142337.404000", "142337.407000", "142337.416000", "142337.419000", "142337.422000", "142337.425000", "142337.429000", "142337.432000", "142337.435000", "142337.438000"],
