{
  "AcquisitionMatrixPE": 104,
  "AcquisitionNumber": 1,
  "AcquisitionTime": "14:00:52.420000",
  "BandwidthPerPixelPhaseEncode": 17.17,
  "BaseResolution": 104,
  "BodyPartExamined": "BRAIN",
  "CoilString": "HC1-7;NC1_2",
  "ConsistencyInfo": "N4_VE11C_LATEST_20160120",
  "ConversionSoftware": "dcm2niix",
  "ConversionSoftwareVersion": "v1.0.20190902",
  "DerivedVendorReportedEchoSpacing": 0.000560011,
  "DeviceSerialNumber": "167006",
  "DwellTime": 2.1e-06,
  "EchoTime": 0.037,
  "EchoTrainLength": 104,
  "EffectiveEchoSpacing": 0.000560011,
  "FlipAngle": 52,
  "ImageComments": "Unaliased_MB4_PE3_LB",
  "ImageOrientationPatientDICOM": [0.999274, -0.0361956, -0.0118594, 0.028785, 0.92155, -0.387192],
  "ImageType": [
    "ORIGINAL",
    "PRIMARY",
    "M",
    "MB",
    "ND",
    "MOSAIC"
],
  "ImagingFrequency": 123.259,
  "InPlanePhaseEncodingDirectionDICOM": "COL",
  "InstitutionAddress": "Chemin_Queen-Mary_4565_Montreal_District_CA_H3W_1W5",
  "InstitutionName": "IUGM",
  "InstitutionalDepartmentName": "Department",
  "MRAcquisitionType": "2D",
  "MagneticFieldStrength": 3,
  "Manufacturer": "Siemens",
  "ManufacturersModelName": "Prisma_fit",
  "Modality": "MR",
  "MultibandAccelerationFactor": 4,
  "PartialFourier": 1,
  "PatientPosition": "HFS",
  "PercentPhaseFOV": 100,
  "PhaseEncodingDirection": "j",
  "PhaseEncodingSteps": 104,
  "PhaseResolution": 1,
  "PixelBandwidth": 2290,
  "ProcedureStepDescription": "video_friends",
  "ProtocolName": "func_task-friends-s02e20a",
  "PulseSequenceDetails": "%CustomerSeq%_cmrr_mbep2d_bold",
  "ReceiveCoilActiveElements": "HC1-7;NC1,2",
  "ReceiveCoilName": "HeadNeck_64",
  "ReconMatrixPE": 104,
  "RepetitionTime": 1.49,
  "SAR": 0.0336721,
  "ScanOptions": "FS",
  "ScanningSequence": "EP",
  "SequenceName": "epfid2d1_104",
  "SequenceVariant": "SK_SS",
  "SeriesDescription": "func_task-friends-s02e20a",
  "SeriesNumber": 13,
  "ShimSetting": [606, -7279, -8829, 419, -14, -447, 38, 12],
  "SliceThickness": 2,
  "SliceTiming": [0, 0.7825, 0.0975, 0.88, 0.195, 0.98, 0.2925, 1.0775, 0.39, 1.175, 0.49, 1.2725, 0.5875, 1.37, 0.685, 0, 0.7825, 0.0975, 0.88, 0.195, 0.98, 0.2925, 1.0775, 0.39, 1.175, 0.49, 1.2725, 0.5875, 1.37, 0.685, 0, 0.7825, 0.0975, 0.88, 0.195, 0.98, 0.2925, 1.0775, 0.39, 1.175, 0.49, 1.2725, 0.5875, 1.37, 0.685, 0, 0.7825, 0.0975, 0.88, 0.195, 0.98, 0.2925, 1.0775, 0.39, 1.175, 0.49, 1.2725, 0.5875, 1.37, 0.685],
  "SoftwareVersions": "syngo_MR_E11",
  "SpacingBetweenSlices": 2,
  "StationName": "MRC35049",
  "TaskName": "s02e20a",
  "TotalReadoutTime": 0.0576811,
  "TxRefAmp": 231.256,
  "WipMemBlock": "2c0ddb64-7e11-458f-b6fa-c5da4826427e||Sequence: R016 ve11c/master r/e634e98; Dec 19 2017 11:00:25 by eja",
  "dcmmeta_affine": [
    [-1.9985487461090088, 0.05757006257772446, -0.04988724738359451, 97.81591033935547],
    [0.07239110767841339, 1.8430991172790527, -0.7731398940086365, -72.33477020263672],
    [-0.023718714714050293, 0.7743845582008362, 1.8438454866409302, -66.25714111328125],
    [0.0, 0.0, 0.0, 1.0]
],
  "dcmmeta_reorient_transform": [
    [0.0, -1.0, 0.0, 103.0],
    [1.0, 0.0, 0.0, 0.0],
    [0.0, 0.0, 1.0, 0.0],
    [0.0, 0.0, 0.0, 1.0]
],
  "dcmmeta_shape": [104, 104, 60, 449],
  "dcmmeta_slice_dim": 2,
  "dcmmeta_version": 0.6,
  "global": {
    "const": {
      "AcquisitionMatrix": [104, 0, 0, 104],
      "AngioFlag": "N",
      "BitsAllocated": 16,
      "BitsStored": 16,
      "BodyPartExamined": "BRAIN",
      "Columns": 832,
      "EchoNumbers": 1,
      "EchoTime": 37.0,
      "EchoTrainLength": 104,
      "FlipAngle": 52.0,
      "HighBit": 15,
      "ImageOrientationPatient": [0.9992743555538, -0.0361955520187, -0.0118593569221, 0.02878503046175, 0.92154953975114, -0.3871922878955],
      "ImagePositionPatient": [-852.17285800985, -762.04213582009, 304.01406602246],
      "ImageType": [
        "ORIGINAL",
        "PRIMARY",
        "M",
        "MB",
        "ND",
        "MOSAIC"
],
      "ImagedNucleus": "1H",
      "ImagingFrequency": 123.258816,
      "InPlanePhaseEncodingDirection": "COL",
      "MRAcquisitionType": "2D",
      "MagneticFieldStrength": 3.0,
      "Manufacturer": "SIEMENS",
      "ManufacturerModelName": "Prisma_fit",
      "Modality": "MR",
      "NumberOfAverages": 1.0,
      "NumberOfPhaseEncodingSteps": 104,
      "PercentPhaseFieldOfView": 100.0,
      "PercentSampling": 100.0,
      "PerformedProcedureStepStartTime": "131747.223000",
      "PhotometricInterpretation": "MONOCHROME2",
      "PixelBandwidth": 2290.0,
      "PixelRepresentation": 0,
      "PixelSpacing": [2.0, 2.0],
      "ProtocolName": "func_task-friends-s02e20a",
      "RepetitionTime": 1490.0,
      "Rows": 832,
      "SAR": 0.03367214539539,
      "SamplesPerPixel": 1,
      "ScanOptions": "FS",
      "ScanningSequence": "EP",
      "SequenceName": "epfid2d1_104",
      "SequenceVariant": [
        "SK",
        "SS"
],
      "SeriesDescription": "func_task-friends-s02e20a",
      "SeriesNumber": 13,
      "SeriesTime": "140216.249000",
      "SliceLocation": -35.561398422046,
      "SliceThickness": 2.0,
      "SmallestImagePixelValue": 0,
      "SoftwareVersions": "syngo MR E11",
      "SpacingBetweenSlices": 2.0000000121238,
      "SpecificCharacterSet": "ISO_IR 100",
      "StudyID": "1",
      "StudyTime": "131747.095000",
      "TransmitCoilName": "Body",
      "VariableFlipAngleFlag": "N",
      "WindowCenterWidthExplanation": "Algo1",
      "dBdt": 0.0},
    "slices": {}
  },
  "time": {
    "samples": {
      "AcquisitionNumber": [1, 2, 3, 4, 5, 6, 7, 8, 9, 10, 11, 12, 13, 14, 15, 16, 17, 18, 19, 20, 21, 22, 23, 24, 25, 26, 27, 28, 29, 30, 31, 32, 33, 34, 35, 36, 37, 38, 39, 40, 41, 42, 43, 44, 45, 46, 47, 48, 49, 50, 51, 52, 53, 54, 55, 56, 57, 58, 59, 60, 61, 62, 63, 64, 65, 66, 67, 68, 69, 70, 71, 72, 73, 74, 75, 76, 77, 78, 79, 80, 81, 82, 83, 84, 85, 86, 87, 88, 89, 90, 91, 92, 93, 94, 95, 96, 97, 98, 99, 100, 101, 102, 103, 104, 105, 106, 107, 108, 109, 110, 111, 112, 113, 114, 115, 116, 117, 118, 119, 120, 121, 122, 123, 124, 125, 126, 127, 128, 129, 130, 131, 132, 133, 134, 135, 136, 137, 138, 139, 140, 141, 142, 143, 144, 145, 146, 147, 148, 149, 150, 151, 152, 153, 154, 155, 156, 157, 158, 159, 160, 161, 162, 163, 164, 165, 166, 167, 168, 169, 170, 171, 172, 173, 174, 175, 176, 177, 178, 179, 180, 181, 182, 183, 184, 185, 186, 187, 188, 189, 190, 191, 192, 193, 194, 195, 196, 197, 198, 199, 200, 201, 202, 203, 204, 205, 206, 207, 208, 209, 210, 211, 212, 213, 214, 215, 216, 217, 218, 219, 220, 221, 222, 223, 224, 225, 226, 227, 228, 229, 230, 231, 232, 233, 234, 235, 236, 237, 238, 239, 240, 241, 242, 243, 244, 245, 246, 247, 248, 249, 250, 251, 252, 253, 254, 255, 256, 257, 258, 259, 260, 261, 262, 263, 264, 265, 266, 267, 268, 269, 270, 271, 272, 273, 274, 275, 276, 277, 278, 279, 280, 281, 282, 283, 284, 285, 286, 287, 288, 289, 290, 291, 292, 293, 294, 295, 296, 297, 298, 299, 300, 301, 302, 303, 304, 305, 306, 307, 308, 309, 310, 311, 312, 313, 314, 315, 316, 317, 318, 319, 320, 321, 322, 323, 324, 325, 326, 327, 328, 329, 330, 331, 332, 333, 334, 335, 336, 337, 338, 339, 340, 341, 342, 343, 344, 345, 346, 347, 348, 349, 350, 351, 352, 353, 354, 355, 356, 357, 358, 359, 360, 361, 362, 363, 364, 365, 366, 367, 368, 369, 370, 371, 372, 373, 374, 375, 376, 377, 378, 379, 380, 381, 382, 383, 384, 385, 386, 387, 388, 389, 390, 391, 392, 393, 394, 395, 396, 397, 398, 399, 400, 401, 402, 403, 404, 405, 406, 407, 408, 409, 410, 411, 412, 413, 414, 415, 416, 417, 418, 419, 420, 421, 422, 423, 424, 425, 426, 427, 428, 429, 430, 431, 432, 433, 434, 435, 436, 437, 438, 439, 440, 441, 442, 443, 444, 445, 446, 447, 448, 449],
      "AcquisitionTime": ["140052.420000", "140053.910000", "140055.400000", "140056.890000", "140058.380000", "140059.870000", "140101.360000", "140102.850000", "140104.340000", "140105.830000", "140107.320000", "140108.810000", "140110.300000", "140111.790000", "140113.280000", "140114.770000", "140116.260000", "140117.750000", "140119.240000", "140120.730000", "140122.220000", "140123.710000", "140125.200000", "140126.690000", "140128.180000", "140129.670000", "140131.160000", "140132.650000", "140134.140000", "140135.630000", "140137.120000", "140138.610000", "140140.100000", "140141.590000", "140143.080000", "140144.570000", "140146.060000", "140147.550000", "140149.040000", "140150.530000", "140152.020000", "140153.510000", "140155.000000", "140156.490000", "140157.980000", "140159.470000", "140200.960000", "140202.450000", "140203.940000", "140205.430000", "140206.920000", "140208.410000", "140209.900000", "140211.390000", "140212.880000", "140214.370000", "140215.860000", "140217.350000", "140218.840000", "140220.330000", "140221.820000", "140223.310000", "140224.800000", "140226.290000", "140227.780000", "140229.270000", "140230.760000", "140232.250000", "140233.740000", "140235.230000", "140236.720000", "140238.210000", "140239.700000", "140241.190000", "140242.680000", "140244.170000", "140245.660000", "140247.150000", "140248.640000", "140250.130000", "140251.620000", "140253.110000", "140254.600000", "140256.090000", "140257.580000", "140259.070000", "140300.560000", "140302.050000", "140303.540000", "140305.030000", "140306.520000", "140308.010000", "140309.500000", "140310.990000", "140312.480000", "140313.970000", "140315.460000", "140316.950000", "140318.440000", "140319.930000", "140321.420000", "140322.910000", "140324.400000", "140325.890000", "140327.380000", "140328.870000", "140330.360000", "140331.850000", "140333.340000", "140334.830000", "140336.320000", "140337.810000", "140339.300000", "140340.790000", "140342.280000", "140343.770000", "140345.260000", "140346.750000", "140348.240000", "140349.730000", "140351.220000", "140352.710000", "140354.200000", "140355.690000", "140357.180000", "140358.670000", "140400.160000", "140401.650000", "140403.140000", "140404.630000", "140406.120000", "140407.610000", "140409.100000", "140410.590000", "140412.080000", "140413.570000", "140415.060000", "140416.550000", "140418.040000", "140419.530000", "140421.020000", "140422.510000", "140424.000000", "140425.490000", "140426.980000", "140428.470000", "140429.960000", "140431.450000", "140432.940000", "140434.430000", "140435.920000", "140437.410000", "140438.900000", "140440.390000", "140441.880000", "140443.370000", "140444.860000", "140446.350000", "140447.840000", "140449.330000", "140450.820000", "140452.310000", "140453.800000", "140455.290000", "140456.780000", "140458.270000", "140459.760000", "140501.250000", "140502.740000", "140504.230000", "140505.720000", "140507.210000", "140508.700000", "140510.190000", "140511.680000", "140513.170000", "140514.660000", "140516.150000", "140517.640000", "140519.130000", "140520.620000", "140522.110000", "140523.600000", "140525.090000", "140526.580000", "140528.070000", "140529.560000", "140531.050000", "140532.540000", "140534.030000", "140535.520000", "140537.010000", "140538.500000", "140539.990000", "140541.480000", "140542.970000", "140544.460000", "140545.950000", "140547.440000", "140548.930000", "140550.420000", "140551.910000", "140553.400000", "140554.890000", "140556.380000", "140557.870000", "140559.360000", "140600.850000", "140602.340000", "140603.830000", "140605.320000", "140606.810000", "140608.300000", "140609.790000", "140611.280000", "140612.770000", "140614.260000", "140615.750000", "140617.240000", "140618.730000", "140620.220000", "140621.710000", "140623.200000", "140624.690000", "140626.180000", "140627.670000", "140629.160000", "140630.650000", "140632.140000", "140633.630000", "140635.120000", "140636.610000", "140638.100000", "140639.590000", "140641.080000", "140642.570000", "140644.060000", "140645.550000", "140647.040000", "140648.530000", "140650.020000", "140651.510000", "140653.000000", "140654.490000", "140655.980000", "140657.470000", "140658.960000", "140700.450000", "140701.940000", "140703.430000", "140704.920000", "140706.410000", "140707.900000", "140709.390000", "140710.880000", "140712.370000", "140713.860000", "140715.350000", "140716.840000", "140718.330000", "140719.820000", "140721.310000", "140722.800000", "140724.290000", "140725.780000", "140727.270000", "140728.760000", "140730.250000", "140731.740000", "140733.230000", "140734.720000", "140736.210000", "140737.700000", "140739.190000", "140740.680000", "140742.170000", "140743.660000", "140745.150000", "140746.640000", "140748.130000", "140749.620000", "140751.110000", "140752.600000", "140754.090000", "140755.580000", "140757.070000", "140758.560000", "140800.050000", "140801.540000", "140803.030000", "140804.520000", "140806.010000", "140807.500000", "140808.990000", "140810.480000", "140811.970000", "140813.460000", "140814.950000", "140816.440000", "140817.930000", "140819.420000", "140820.910000", "140822.400000", "140823.890000", "140825.380000", "140826.870000", "140828.360000", "140829.850000", "140831.340000", "140832.830000", "140834.320000", "140835.810000", "140837.300000", "140838.790000", "140840.280000", "140841.770000", "140843.260000", "140844.750000", "140846.240000", "140847.730000", "140849.220000", "140850.710000", "140852.200000", "140853.690000", "140855.180000", "140856.670000", "140858.160000", "140859.650000", "140901.140000", "140902.630000", "140904.120000", "140905.610000", "140907.100000", "140908.590000", "140910.080000", "140911.570000", "140913.060000", "140914.550000", "140916.040000", "140917.530000", "140919.020000", "140920.510000", "140922.000000", "140923.490000", "140924.980000", "140926.470000", "140927.960000", "140929.450000", "140930.940000", "140932.430000", "140933.920000", "140935.410000", "140936.900000", "140938.390000", "140939.880000", "140941.370000", "140942.860000", "140944.350000", "140945.840000", "140947.330000", "140948.820000", "140950.310000", "140951.800000", "140953.290000", "140954.780000", "140956.270000", "140957.760000", "140959.250000", "141000.740000", "141002.230000", "141003.720000", "141005.210000", "141006.700000", "141008.190000", "141009.680000", "141011.170000", "141012.660000", "141014.150000", "141015.640000", "141017.130000", "141018.620000", "141020.110000", "141021.600000", "141023.090000", "141024.580000", "141026.070000", "141027.560000", "141029.050000", "141030.540000", "141032.030000", "141033.520000", "141035.010000", "141036.500000", "141037.990000", "141039.480000", "141040.970000", "141042.460000", "141043.950000", "141045.440000", "141046.930000", "141048.420000", "141049.910000", "141051.400000", "141052.890000", "141054.380000", "141055.870000", "141057.360000", "141058.850000", "141100.340000", "141101.830000", "141103.320000", "141104.810000", "141106.300000", "141107.790000", "141109.280000", "141110.770000", "141112.260000", "141113.750000", "141115.240000", "141116.730000", "141118.220000", "141119.710000", "141121.200000", "141122.690000", "141124.180000", "141125.670000", "141127.160000", "141128.650000", "141130.140000", "141131.630000", "141133.120000", "141134.610000", "141136.100000", "141137.590000", "141139.080000", "141140.570000", "141142.060000", "141143.550000", "141145.040000", "141146.530000", "141148.020000", "141149.510000", "141151.000000", "141152.490000", "141153.980000", "141155.470000", "141156.960000", "141158.450000", "141159.940000"],
      "ContentTime": ["140216.252000", "140216.256000", "140216.259000", "140216.263000", "140216.266000", "140216.269000", "140216.271000", "140216.275000", "140216.278000", "140216.281000", "140216.284000", "140216.287000", "140216.290000", "140216.293000", "140216.296000", "140216.299000", "140216.302000", "140216.305000", "140216.308000", "140216.311000", "140216.314000", "140216.317000", "140216.320000", "140216.323000", "140216.327000", "140216.330000", "140216.333000", "140216.336000", "140216.339000", "140216.342000", "140216.345000", "140236.155000", "140236.158000", "140236.161000", "140236.165000", "140236.168000", "140236.171000", "140236.174000", "140236.177000", "140236.180000", "140236.183000", "140236.186000", "140236.189000", "140236.192000", "140236.195000", "140236.198000", "140236.201000", "140236.204000", "140236.207000", "140236.210000", "140236.213000", "140256.156000", "140256.159000", "140256.162000", "140256.165000", "140256.168000", "140256.171000", "140256.174000", "140256.177000", "140256.180000", "140256.183000", "140256.186000", "140256.189000", "140256.192000", "140256.195000", "140256.198000", "140256.202000", "140256.205000", "140256.208000", "140256.212000", "140256.215000", "140316.156000", "140316.159000", "140316.162000", "140316.165000", "140316.168000", "140316.171000", "140316.174000", "140316.177000", "140316.180000", "140316.184000", "140316.187000", "140316.189000", "140316.192000", "140316.196000", "140316.199000", "140316.201000", "140316.204000", "140316.208000", "140316.211000", "140316.213000", "140316.216000", "140356.155000", "140356.158000", "140356.162000", "140356.165000", "140356.168000", "140356.171000", "140356.174000", "140356.177000", "140356.180000", "140356.183000", "140356.186000", "140356.189000", "140356.192000", "140356.195000", "140356.198000", "140356.201000", "140356.204000", "140356.207000", "140356.210000", "140356.213000", "140356.216000", "140356.219000", "140356.222000", "140356.225000", "140356.228000", "140356.231000", "140356.234000", "140356.237000", "140356.240000", "140356.243000", "140356.246000", "140436.155000", "140436.158000", "140436.161000", "140436.164000", "140436.167000", "140436.170000", "140436.173000", "140436.177000", "140436.180000", "140436.182000", "140436.185000", "140436.189000", "140436.191000", "140436.194000", "140436.198000", "140436.201000", "140436.204000", "140436.207000", "140436.210000", "140436.213000", "140436.216000", "140436.219000", "140436.222000", "140436.225000", "140436.228000", "140436.231000", "140516.156000", "140516.255000", "140516.258000", "140516.261000", "140516.264000", "140516.267000", "140516.270000", "140516.273000", "140516.276000", "140516.279000", "140516.282000", "140516.285000", "140516.288000", "140516.291000", "140516.294000", "140516.297000", "140516.300000", "140516.303000", "140516.306000", "140516.309000", "140516.312000", "140516.315000", "140516.318000", "140516.321000", "140516.325000", "140516.327000", "140516.330000", "140556.155000", "140556.158000", "140556.162000", "140556.165000", "140556.168000", "140556.171000", "140556.174000", "140556.177000", "140556.180000", "140556.183000", "140556.186000", "140556.205000", "140556.208000", "140556.211000", "140556.224000", "140556.227000", "140556.230000", "140556.233000", "140556.236000", "140556.239000", "140556.242000", "140556.245000", "140556.248000", "140556.251000", "140556.254000", "140556.257000", "140556.260000", "140636.155000", "140636.158000", "140636.162000", "140636.165000", "140636.167000", "140636.171000", "140636.174000", "140636.177000", "140636.180000", "140636.183000", "140636.186000", "140636.189000", "140636.192000", "140636.195000", "140636.198000", "140636.201000", "140636.204000", "140636.207000", "140636.210000", "140636.213000", "140636.216000", "140636.219000", "140636.222000", "140636.225000", "140636.228000", "140636.231000", "140636.234000", "140716.155000", "140716.158000", "140716.161000", "140716.164000", "140716.167000", "140716.170000", "140716.173000", "140716.177000", "140716.180000", "140716.183000", "140716.186000", "140716.189000", "140716.192000", "140716.195000", "140716.198000", "140716.201000", "140716.204000", "140716.207000", "140716.210000", "140716.213000", "140716.216000", "140716.219000", "140716.222000", "140716.225000", "140716.228000", "140716.238000", "140716.241000", "140756.156000", "140756.159000", "140756.162000", "140756.165000", "140756.168000", "140756.171000", "140756.174000", "140756.177000", "140756.180000", "140756.183000", "140756.186000", "140756.189000", "140756.193000", "140756.196000", "140756.199000", "140756.202000", "140756.205000", "140756.208000", "140756.211000", "140756.214000", "140756.217000", "140756.220000", "140756.223000", "140756.226000", "140756.229000", "140756.232000", "140756.235000", "140836.155000", "140836.158000", "140836.162000", "140836.165000", "140836.168000", "140836.171000", "140836.174000", "140836.177000", "140836.180000", "140836.183000", "140836.186000", "140836.189000", "140836.192000", "140836.195000", "140836.198000", "140836.202000", "140836.205000", "140836.208000", "140836.212000", "140836.215000", "140836.218000", "140836.222000", "140836.225000", "140836.228000", "140836.231000", "140836.234000", "140916.155000", "140916.158000", "140916.161000", "140916.164000", "140916.168000", "140916.171000", "140916.174000", "140916.177000", "140916.180000", "140916.183000", "140916.186000", "140916.189000", "140916.192000", "140916.195000", "140916.198000", "140916.201000", "140916.204000", "140916.207000", "140916.210000", "140916.213000", "140916.216000", "140916.219000", "140916.222000", "140916.225000", "140916.228000", "140916.232000", "140916.235000", "140956.156000", "140956.159000", "140956.162000", "140956.166000", "140956.169000", "140956.171000", "140956.174000", "140956.178000", "140956.181000", "140956.184000", "140956.187000", "140956.190000", "140956.193000", "140956.196000", "140956.199000", "140956.202000", "140956.205000", "140956.208000", "140956.211000", "140956.214000", "140956.217000", "140956.220000", "140956.223000", "140956.226000", "140956.229000", "140956.232000", "140956.235000", "141036.155000", "141036.158000", "141036.180000", "141036.183000", "141036.186000", "141036.189000", "141036.193000", "141036.196000", "141036.199000", "141036.202000", "141036.205000", "141036.226000", "141036.229000", "141036.232000", "141036.238000", "141036.241000", "141036.244000", "141036.247000", "141036.250000", "141036.253000", "141036.256000", "141036.259000", "141036.262000", "141036.265000", "141036.268000", "141036.271000", "141036.274000", "141116.155000", "141116.159000", "141116.207000", "141116.210000", "141116.213000", "141116.217000", "141116.220000", "141116.223000", "141116.225000", "141116.229000", "141116.232000", "141116.235000", "141116.238000", "141116.241000", "141116.244000", "141116.247000", "141116.250000", "141116.253000", "141116.256000", "141116.259000", "141116.262000", "141116.265000", "141116.268000", "141116.271000", "141116.274000", "141116.277000", "141116.280000", "141156.155000", "141156.158000", "141156.161000", "141156.164000", "141156.168000", "141156.171000", "141156.174000", "141156.177000", "141156.180000", "141156.183000", "141156.186000", "141156.189000", "141156.192000", "141156.195000", "141156.198000", "141156.201000", "141156.204000", "141156.207000", "141156.210000", "141156.213000", "141156.216000", "141156.219000", "141156.222000", "141156.225000", "141156.228000", "141156.231000", "141156.234000", "141201.889000", "141201.893000", "141201.896000", "141201.899000"],
