{
  "AcquisitionMatrixPE": 104,
  "AcquisitionNumber": 1,
  "AcquisitionTime": "13:36:16.357500",
  "BandwidthPerPixelPhaseEncode": 17.17,
  "BaseResolution": 104,
  "BodyPartExamined": "BRAIN",
  "CoilString": "HC1-7;NC1_2",
  "ConsistencyInfo": "N4_VE11C_LATEST_20160120",
  "ConversionSoftware": "dcm2niix",
  "ConversionSoftwareVersion": "v1.0.20190902",
  "DerivedVendorReportedEchoSpacing": 0.000560011,
  "DeviceSerialNumber": "167006",
  "DwellTime": 2.1e-06,
  "EchoTime": 0.037,
  "EchoTrainLength": 104,
  "EffectiveEchoSpacing": 0.000560011,
  "FlipAngle": 52,
  "ImageComments": "Unaliased_MB4_PE3_LB",
  "ImageOrientationPatientDICOM": [0.999274, -0.0361956, -0.0118594, 0.028785, 0.92155, -0.387192],
  "ImageType": [
    "ORIGINAL",
    "PRIMARY",
    "M",
    "MB",
    "ND",
    "MOSAIC"
],
  "ImagingFrequency": 123.259,
  "InPlanePhaseEncodingDirectionDICOM": "COL",
  "InstitutionAddress": "Chemin_Queen-Mary_4565_Montreal_District_CA_H3W_1W5",
  "InstitutionName": "IUGM",
  "InstitutionalDepartmentName": "Department",
  "MRAcquisitionType": "2D",
  "MagneticFieldStrength": 3,
  "Manufacturer": "Siemens",
  "ManufacturersModelName": "Prisma_fit",
  "Modality": "MR",
  "MultibandAccelerationFactor": 4,
  "PartialFourier": 1,
  "PatientPosition": "HFS",
  "PercentPhaseFOV": 100,
  "PhaseEncodingDirection": "j",
  "PhaseEncodingSteps": 104,
  "PhaseResolution": 1,
  "PixelBandwidth": 2290,
  "ProcedureStepDescription": "video_friends",
  "ProtocolName": "func_task-friends-s02e19a",
  "PulseSequenceDetails": "%CustomerSeq%_cmrr_mbep2d_bold",
  "ReceiveCoilActiveElements": "HC1-7;NC1,2",
  "ReceiveCoilName": "HeadNeck_64",
  "ReconMatrixPE": 104,
  "RepetitionTime": 1.49,
  "SAR": 0.0336811,
  "ScanOptions": "FS",
  "ScanningSequence": "EP",
  "SequenceName": "epfid2d1_104",
  "SequenceVariant": "SK_SS",
  "SeriesDescription": "func_task-friends-s02e19a",
  "SeriesNumber": 9,
  "ShimSetting": [606, -7279, -8829, 419, -14, -447, 38, 12],
  "SliceThickness": 2,
  "SliceTiming": [0, 0.7825, 0.0975, 0.88, 0.195, 0.9775, 0.2925, 1.0775, 0.39, 1.175, 0.49, 1.2725, 0.5875, 1.37, 0.685, 0, 0.7825, 0.0975, 0.88, 0.195, 0.9775, 0.2925, 1.0775, 0.39, 1.175, 0.49, 1.2725, 0.5875, 1.37, 0.685, 0, 0.7825, 0.0975, 0.88, 0.195, 0.9775, 0.2925, 1.0775, 0.39, 1.175, 0.49, 1.2725, 0.5875, 1.37, 0.685, 0, 0.7825, 0.0975, 0.88, 0.195, 0.9775, 0.2925, 1.0775, 0.39, 1.175, 0.49, 1.2725, 0.5875, 1.37, 0.685],
  "SoftwareVersions": "syngo_MR_E11",
  "SpacingBetweenSlices": 2,
  "StationName": "MRC35049",
  "TaskName": "s02e19a",
  "TotalReadoutTime": 0.0576811,
  "TxRefAmp": 231.256,
  "WipMemBlock": "9a3a6227-d682-4517-a7f6-c98d5ee0a975||Sequence: R016 ve11c/master r/e634e98; Dec 19 2017 11:00:25 by eja",
  "dcmmeta_affine": [
    [-1.9985487461090088, 0.05757006257772446, -0.04988724738359451, 97.81591033935547],
    [0.07239110767841339, 1.8430991172790527, -0.7731398940086365, -72.33477020263672],
    [-0.023718714714050293, 0.7743845582008362, 1.8438454866409302, -66.25714111328125],
    [0.0, 0.0, 0.0, 1.0]
],
  "dcmmeta_reorient_transform": [
    [0.0, -1.0, 0.0, 103.0],
    [1.0, 0.0, 0.0, 0.0],
    [0.0, 0.0, 1.0, 0.0],
    [0.0, 0.0, 0.0, 1.0]
],
  "dcmmeta_shape": [104, 104, 60, 478],
  "dcmmeta_slice_dim": 2,
  "dcmmeta_version": 0.6,
  "global": {
    "const": {
      "AcquisitionMatrix": [104, 0, 0, 104],
      "AngioFlag": "N",
      "BitsAllocated": 16,
      "BitsStored": 16,
      "BodyPartExamined": "BRAIN",
      "Columns": 832,
      "EchoNumbers": 1,
      "EchoTime": 37.0,
      "EchoTrainLength": 104,
      "FlipAngle": 52.0,
      "HighBit": 15,
      "ImageOrientationPatient": [0.9992743555538, -0.0361955520187, -0.0118593569221, 0.02878503046175, 0.92154953975114, -0.3871922878955],
      "ImagePositionPatient": [-852.17285800985, -762.04213582009, 304.01406602246],
      "ImageType": [
        "ORIGINAL",
        "PRIMARY",
        "M",
        "MB",
        "ND",
        "MOSAIC"
],
      "ImagedNucleus": "1H",
      "ImagingFrequency": 123.258799,
      "InPlanePhaseEncodingDirection": "COL",
      "MRAcquisitionType": "2D",
      "MagneticFieldStrength": 3.0,
      "Manufacturer": "SIEMENS",
      "ManufacturerModelName": "Prisma_fit",
      "Modality": "MR",
      "NumberOfAverages": 1.0,
      "NumberOfPhaseEncodingSteps": 104,
      "PercentPhaseFieldOfView": 100.0,
      "PercentSampling": 100.0,
      "PerformedProcedureStepStartTime": "131747.223000",
      "PhotometricInterpretation": "MONOCHROME2",
      "PixelBandwidth": 2290.0,
      "PixelRepresentation": 0,
      "PixelSpacing": [2.0, 2.0],
      "ProtocolName": "func_task-friends-s02e19a",
      "RepetitionTime": 1490.0,
      "Rows": 832,
      "SAR": 0.0336811319966,
      "SamplesPerPixel": 1,
      "ScanOptions": "FS",
      "ScanningSequence": "EP",
      "SequenceName": "epfid2d1_104",
      "SequenceVariant": [
        "SK",
        "SS"
],
      "SeriesDescription": "func_task-friends-s02e19a",
      "SeriesNumber": 9,
      "SeriesTime": "133721.124000",
      "SliceLocation": -35.561398422046,
      "SliceThickness": 2.0,
      "SmallestImagePixelValue": 0,
      "SoftwareVersions": "syngo MR E11",
      "SpacingBetweenSlices": 2.0000000121238,
      "SpecificCharacterSet": "ISO_IR 100",
      "StudyID": "1",
      "StudyTime": "131747.095000",
      "TransmitCoilName": "Body",
      "VariableFlipAngleFlag": "N",
      "WindowCenterWidthExplanation": "Algo1",
      "dBdt": 0.0},
    "slices": {}
  },
  "time": {
    "samples": {
      "AcquisitionNumber": [1, 2, 3, 4, 5, 6, 7, 8, 9, 10, 11, 12, 13, 14, 15, 16, 17, 18, 19, 20, 21, 22, 23, 24, 25, 26, 27, 28, 29, 30, 31, 32, 33, 34, 35, 36, 37, 38, 39, 40, 41, 42, 43, 44, 45, 46, 47, 48, 49, 50, 51, 52, 53, 54, 55, 56, 57, 58, 59, 60, 61, 62, 63, 64, 65, 66, 67, 68, 69, 70, 71, 72, 73, 74, 75, 76, 77, 78, 79, 80, 81, 82, 83, 84, 85, 86, 87, 88, 89, 90, 91, 92, 93, 94, 95, 96, 97, 98, 99, 100, 101, 102, 103, 104, 105, 106, 107, 108, 109, 110, 111, 112, 113, 114, 115, 116, 117, 118, 119, 120, 121, 122, 123, 124, 125, 126, 127, 128, 129, 130, 131, 132, 133, 134, 135, 136, 137, 138, 139, 140, 141, 142, 143, 144, 145, 146, 147, 148, 149, 150, 151, 152, 153, 154, 155, 156, 157, 158, 159, 160, 161, 162, 163, 164, 165, 166, 167, 168, 169, 170, 171, 172, 173, 174, 175, 176, 177, 178, 179, 180, 181, 182, 183, 184, 185, 186, 187, 188, 189, 190, 191, 192, 193, 194, 195, 196, 197, 198, 199, 200, 201, 202, 203, 204, 205, 206, 207, 208, 209, 210, 211, 212, 213, 214, 215, 216, 217, 218, 219, 220, 221, 222, 223, 224, 225, 226, 227, 228, 229, 230, 231, 232, 233, 234, 235, 236, 237, 238, 239, 240, 241, 242, 243, 244, 245, 246, 247, 248, 249, 250, 251, 252, 253, 254, 255, 256, 257, 258, 259, 260, 261, 262, 263, 264, 265, 266, 267, 268, 269, 270, 271, 272, 273, 274, 275, 276, 277, 278, 279, 280, 281, 282, 283, 284, 285, 286, 287, 288, 289, 290, 291, 292, 293, 294, 295, 296, 297, 298, 299, 300, 301, 302, 303, 304, 305, 306, 307, 308, 309, 310, 311, 312, 313, 314, 315, 316, 317, 318, 319, 320, 321, 322, 323, 324, 325, 326, 327, 328, 329, 330, 331, 332, 333, 334, 335, 336, 337, 338, 339, 340, 341, 342, 343, 344, 345, 346, 347, 348, 349, 350, 351, 352, 353, 354, 355, 356, 357, 358, 359, 360, 361, 362, 363, 364, 365, 366, 367, 368, 369, 370, 371, 372, 373, 374, 375, 376, 377, 378, 379, 380, 381, 382, 383, 384, 385, 386, 387, 388, 389, 390, 391, 392, 393, 394, 395, 396, 397, 398, 399, 400, 401, 402, 403, 404, 405, 406, 407, 408, 409, 410, 411, 412, 413, 414, 415, 416, 417, 418, 419, 420, 421, 422, 423, 424, 425, 426, 427, 428, 429, 430, 431, 432, 433, 434, 435, 436, 437, 438, 439, 440, 441, 442, 443, 444, 445, 446, 447, 448, 449, 450, 451, 452, 453, 454, 455, 456, 457, 458, 459, 460, 461, 462, 463, 464, 465, 466, 467, 468, 469, 470, 471, 472, 473, 474, 475, 476, 477, 478],
      "AcquisitionTime": ["133616.357500", "133617.847500", "133619.337500", "133620.827500", "133622.317500", "133623.807500", "133625.297500", "133626.787500", "133628.277500", "133629.767500", "133631.257500", "133632.747500", "133634.237500", "133635.727500", "133637.217500", "133638.707500", "133640.197500", "133641.687500", "133643.177500", "133644.667500", "133646.157500", "133647.647500", "133649.137500", "133650.627500", "133652.117500", "133653.607500", "133655.097500", "133656.587500", "133658.077500", "133659.567500", "133701.057500", "133702.547500", "133704.037500", "133705.527500", "133707.017500", "133708.507500", "133709.997500", "133711.487500", "133712.977500", "133714.467500", "133715.957500", "133717.447500", "133718.937500", "133720.427500", "133721.917500", "133723.407500", "133724.897500", "133726.387500", "133727.877500", "133729.367500", "133730.857500", "133732.347500", "133733.837500", "133735.327500", "133736.817500", "133738.307500", "133739.797500", "133741.287500", "133742.777500", "133744.267500", "133745.757500", "133747.247500", "133748.737500", "133750.227500", "133751.717500", "133753.207500", "133754.697500", "133756.187500", "133757.677500", "133759.167500", "133800.657500", "133802.147500", "133803.637500", "133805.127500", "133806.617500", "133808.107500", "133809.597500", "133811.087500", "133812.577500", "133814.067500", "133815.557500", "133817.047500", "133818.537500", "133820.027500", "133821.517500", "133823.007500", "133824.497500", "133825.987500", "133827.477500", "133828.967500", "133830.457500", "133831.947500", "133833.437500", "133834.927500", "133836.417500", "133837.907500", "133839.397500", "133840.887500", "133842.377500", "133843.867500", "133845.357500", "133846.847500", "133848.337500", "133849.827500", "133851.317500", "133852.807500", "133854.297500", "133855.787500", "133857.277500", "133858.767500", "133900.257500", "133901.747500", "133903.237500", "133904.727500", "133906.217500", "133907.707500", "133909.197500", "133910.687500", "133912.177500", "133913.667500", "133915.157500", "133916.647500", "133918.137500", "133919.627500", "133921.117500", "133922.607500", "133924.097500", "133925.587500", "133927.077500", "133928.567500", "133930.057500", "133931.547500", "133933.037500", "133934.527500", "133936.017500", "133937.507500", "133938.997500", "133940.487500", "133941.977500", "133943.467500", "133944.957500", "133946.447500", "133947.937500", "133949.427500", "133950.917500", "133952.407500", "133953.897500", "133955.387500", "133956.877500", "133958.367500", "133959.857500", "134001.347500", "134002.837500", "134004.327500", "134005.817500", "134007.307500", "134008.797500", "134010.287500", "134011.777500", "134013.267500", "134014.757500", "134016.247500", "134017.737500", "134019.227500", "134020.717500", "134022.207500", "134023.697500", "134025.187500", "134026.677500", "134028.167500", "134029.657500", "134031.147500", "134032.637500", "134034.127500", "134035.617500", "134037.107500", "134038.597500", "134040.087500", "134041.577500", "134043.067500", "134044.557500", "134046.047500", "134047.537500", "134049.027500", "134050.517500", "134052.007500", "134053.497500", "134054.987500", "134056.477500", "134057.967500", "134059.457500", "134100.947500", "134102.437500", "134103.927500", "134105.417500", "134106.907500", "134108.397500", "134109.887500", "134111.377500", "134112.867500", "134114.357500", "134115.847500", "134117.337500", "134118.827500", "134120.317500", "134121.807500", "134123.297500", "134124.787500", "134126.277500", "134127.767500", "134129.257500", "134130.747500", "134132.237500", "134133.727500", "134135.217500", "134136.707500", "134138.197500", "134139.687500", "134141.177500", "134142.667500", "134144.157500", "134145.647500", "134147.137500", "134148.627500", "134150.117500", "134151.607500", "134153.097500", "134154.587500", "134156.077500", "134157.567500", "134159.057500", "134200.547500", "134202.037500", "134203.527500", "134205.017500", "134206.507500", "134207.997500", "134209.487500", "134210.977500", "134212.467500", "134213.957500", "134215.447500", "134216.937500", "134218.427500", "134219.917500", "134221.407500", "134222.897500", "134224.387500", "134225.877500", "134227.367500", "134228.857500", "134230.347500", "134231.837500", "134233.327500", "134234.817500", "134236.307500", "134237.797500", "134239.287500", "134240.777500", "134242.267500", "134243.757500", "134245.247500", "134246.737500", "134248.227500", "134249.717500", "134251.207500", "134252.697500", "134254.187500", "134255.677500", "134257.167500", "134258.657500", "134300.147500", "134301.637500", "134303.127500", "134304.617500", "134306.107500", "134307.597500", "134309.087500", "134310.577500", "134312.067500", "134313.557500", "134315.047500", "134316.537500", "134318.027500", "134319.517500", "134321.007500", "134322.497500", "134323.987500", "134325.477500", "134326.967500", "134328.457500", "134329.947500", "134331.437500", "134332.927500", "134334.417500", "134335.907500", "134337.397500", "134338.887500", "134340.377500", "134341.867500", "134343.357500", "134344.847500", "134346.337500", "134347.827500", "134349.317500", "134350.807500", "134352.297500", "134353.787500", "134355.277500", "134356.767500", "134358.257500", "134359.747500", "134401.237500", "134402.727500", "134404.217500", "134405.707500", "134407.197500", "134408.687500", "134410.177500", "134411.667500", "134413.157500", "134414.647500", "134416.137500", "134417.627500", "134419.117500", "134420.607500", "134422.097500", "134423.587500", "134425.077500", "134426.567500", "134428.057500", "134429.547500", "134431.037500", "134432.527500", "134434.017500", "134435.507500", "134436.997500", "134438.487500", "134439.977500", "134441.467500", "134442.957500", "134444.447500", "134445.937500", "134447.427500", "134448.917500", "134450.407500", "134451.897500", "134453.387500", "134454.877500", "134456.367500", "134457.857500", "134459.347500", "134500.837500", "134502.327500", "134503.817500", "134505.307500", "134506.797500", "134508.287500", "134509.777500", "134511.267500", "134512.757500", "134514.247500", "134515.737500", "134517.227500", "134518.717500", "134520.207500", "134521.697500", "134523.187500", "134524.677500", "134526.167500", "134527.657500", "134529.147500", "134530.637500", "134532.127500", "134533.617500", "134535.107500", "134536.597500", "134538.087500", "134539.577500", "134541.067500", "134542.557500", "134544.047500", "134545.537500", "134547.027500", "134548.517500", "134550.007500", "134551.497500", "134552.987500", "134554.477500", "134555.967500", "134557.457500", "134558.947500", "134600.437500", "134601.927500", "134603.417500", "134604.907500", "134606.397500", "134607.887500", "134609.377500", "134610.867500", "134612.357500", "134613.847500", "134615.337500", "134616.827500", "134618.317500", "134619.807500", "134621.297500", "134622.787500", "134624.277500", "134625.767500", "134627.257500", "134628.747500", "134630.237500", "134631.727500", "134633.217500", "134634.707500", "134636.197500", "134637.687500", "134639.177500", "134640.667500", "134642.157500", "134643.647500", "134645.137500", "134646.627500", "134648.117500", "134649.607500", "134651.097500", "134652.587500", "134654.077500", "134655.567500", "134657.057500", "134658.547500", "134700.037500", "134701.527500", "134703.017500", "134704.507500", "134705.997500", "134707.487500", "134708.977500", "134710.467500", "134711.957500", "134713.447500", "134714.937500", "134716.427500", "134717.917500", "134719.407500", "134720.897500", "134722.387500", "134723.877500", "134725.367500", "134726.857500", "134728.347500", "134729.837500", "134731.327500", "134732.817500", "134734.307500", "134735.797500", "134737.287500", "134738.777500", "134740.267500", "134741.757500", "134743.247500", "134744.737500", "134746.227500", "134747.717500", "134749.207500", "134750.697500", "134752.187500", "134753.677500", "134755.167500", "134756.657500", "134758.147500", "134759.637500", "134801.127500", "134802.617500", "134804.107500", "134805.597500", "134807.087500"],
      "ContentTime": ["133721.126000", "133721.130000", "133721.133000", "133721.136000", "133721.139000", "133721.142000", "133721.148000", "133721.151000", "133721.155000", "133721.158000", "133741.084000", "133741.087000", "133741.090000", "133741.093000", "133741.096000", "133741.100000", "133741.103000", "133741.106000", "133741.109000", "133741.112000", "133741.115000", "133741.118000", "133741.121000", "133741.124000", "133741.127000", "133741.130000", "133741.133000", "133741.136000", "133741.139000", "133741.142000", "133741.145000", "133801.084000", "133801.087000", "133801.090000", "133801.094000", "133801.098000", "133801.100000", "133801.103000", "133801.106000", "133801.122000", "133801.125000", "133801.128000", "133801.131000", "133801.140000", "133801.143000", "133801.146000", "133801.149000", "133801.152000", "133801.155000", "133801.158000", "133801.168000", "133821.083000", "133821.098000", "133821.101000", "133821.104000", "133821.107000", "133821.110000", "133821.113000", "133821.116000", "133821.119000", "133821.122000", "133821.125000", "133821.128000", "133821.131000", "133821.134000", "133821.137000", "133821.140000", "133821.143000", "133821.146000", "133821.149000", "133821.152000", "133841.083000", "133841.086000", "133841.089000", "133841.092000", "133841.095000", "133841.100000", "133841.103000", "133841.107000", "133841.110000", "133841.113000", "133841.116000", "133841.119000", "133841.122000", "133841.125000", "133841.128000", "133841.131000", "133841.134000", "133841.137000", "133841.140000", "133841.143000", "133921.084000", "133921.087000", "133921.090000", "133921.093000", "133921.096000", "133921.099000", "133921.102000", "133921.105000", "133921.108000", "133921.111000", "133921.114000", "133921.117000", "133921.121000", "133921.124000", "133921.127000", "133921.138000", "133921.142000", "133921.145000", "133921.148000", "133921.151000", "133921.154000", "133921.157000", "133921.160000", "133921.163000", "133921.166000", "133921.169000", "133921.172000", "133921.175000", "133921.179000", "133921.182000", "133921.185000", "133921.188000", "134001.084000", "134001.087000", "134001.090000", "134001.093000", "134001.096000", "134001.099000", "134001.103000", "134001.106000", "134001.109000", "134001.112000", "134001.115000", "134001.118000", "134001.121000", "134001.124000", "134001.127000", "134001.130000", "134001.133000", "134001.136000", "134001.139000", "134001.142000", "134001.145000", "134001.148000", "134001.151000", "134001.154000", "134001.157000", "134001.160000", "134001.163000", "134041.083000", "134041.086000", "134041.089000", "134041.092000", "134041.095000", "134041.098000", "134041.101000", "134041.104000", "134041.107000", "134041.110000", "134041.117000", "134041.120000", "134041.123000", "134041.127000", "134041.130000", "134041.133000", "134041.136000", "134041.139000", "134041.142000", "134041.145000", "134041.148000", "134041.151000", "134041.154000", "134041.157000", "134041.160000", "134041.163000", "134041.166000", "134121.084000", "134121.087000", "134121.090000", "134121.093000", "134121.097000", "134121.099000", "134121.102000", "134121.105000", "134121.109000", "134121.112000", "134121.115000", "134121.118000", "134121.121000", "134121.124000", "134121.127000", "134121.130000", "134121.133000", "134121.136000", "134121.139000", "134121.142000", "134121.145000", "134121.148000", "134121.151000", "134121.154000", "134121.157000", "134121.160000", "134121.163000", "134201.084000", "134201.087000", "134201.090000", "134201.093000", "134201.096000", "134201.100000", "134201.103000", "134201.106000", "134201.109000", "134201.112000", "134201.115000", "134201.118000", "134201.121000", "134201.125000", "134201.128000", "134201.131000", "134201.135000", "134201.138000", "134201.141000", "134201.160000", "134201.163000", "134201.166000", "134201.169000", "134201.173000", "134201.176000", "134201.179000", "134241.084000", "134241.087000", "134241.090000", "134241.093000", "134241.096000", "134241.100000", "134241.103000", "134241.106000", "134241.109000", "134241.112000", "134241.125000", "134241.133000", "134241.136000", "134241.139000", "134241.142000", "134241.145000", "134241.148000", "134241.151000", "134241.154000", "134241.157000", "134241.160000", "134241.163000", "134241.166000", "134241.169000", "134241.172000", "134241.175000", "134241.178000", "134321.083000", "134321.086000", "134321.089000", "134321.092000", "134321.096000", "134321.099000", "134321.102000", "134321.105000", "134321.108000", "134321.111000", "134321.114000", "134321.117000", "134321.120000", "134321.123000", "134321.126000", "134321.129000", "134321.132000", "134321.135000", "134321.138000", "134321.141000", "134321.144000", "134321.147000", "134321.150000", "134321.153000", "134321.156000", "134321.159000", "134321.162000", "134401.084000", "134401.087000", "134401.090000", "134401.093000", "134401.096000", "134401.099000", "134401.102000", "134401.106000", "134401.109000", "134401.112000", "134401.115000", "134401.118000", "134401.121000", "134401.124000", "134401.127000", "134401.130000", "134401.133000", "134401.136000", "134401.139000", "134401.142000", "134401.145000", "134401.148000", "134401.151000", "134401.154000", "134401.158000", "134401.161000", "134401.163000", "134441.084000", "134441.087000", "134441.095000", "134441.098000", "134441.100000", "134441.104000", "134441.107000", "134441.110000", "134441.113000", "134441.116000", "134441.119000", "134441.122000", "134441.125000", "134441.128000", "134441.131000", "134441.134000", "134441.145000", "134441.148000", "134441.152000", "134441.155000", "134441.158000", "134441.161000", "134441.164000", "134441.167000", "134441.170000", "134441.173000", "134441.176000", "134521.083000", "134521.086000", "134521.089000", "134521.092000", "134521.096000", "134521.099000", "134521.102000", "134521.105000", "134521.108000", "134521.111000", "134521.114000", "134521.117000", "134521.120000", "134521.123000", "134521.126000", "134521.129000", "134521.132000", "134521.135000", "134521.138000", "134521.141000", "134521.144000", "134521.147000", "134521.150000", "134521.153000", "134521.156000", "134521.160000", "134521.163000", "134601.084000", "134601.087000", "134601.090000", "134601.094000", "134601.097000", "134601.100000", "134601.103000", "134601.106000", "134601.109000", "134601.112000", "134601.115000", "134601.118000", "134601.121000", "134601.124000", "134601.127000", "134601.130000", "134601.134000", "134601.137000", "134601.140000", "134601.143000", "134601.146000", "134601.149000", "134601.152000", "134601.155000", "134601.158000", "134601.161000", "134601.164000", "134641.084000", "134641.087000", "134641.090000", "134641.094000", "134641.097000", "134641.100000", "134641.103000", "134641.106000", "134641.109000", "134641.112000", "134641.115000", "134641.119000", "134641.122000", "134641.125000", "134641.128000", "134641.131000", "134641.134000", "134641.138000", "134641.141000", "134641.144000", "134641.147000", "134641.150000", "134641.153000", "134641.156000", "134641.159000", "134641.162000", "134721.084000", "134721.087000", "134721.091000", "134721.094000", "134721.097000", "134721.100000", "134721.103000", "134721.106000", "134721.109000", "134721.112000", "134721.115000", "134721.118000", "134721.121000", "134721.124000", "134721.127000", "134721.130000", "134721.133000", "134721.136000", "134721.139000", "134721.142000", "134721.145000", "134721.149000", "134721.152000", "134721.155000", "134721.158000", "134721.161000", "134721.164000", "134801.083000", "134801.086000", "134801.089000", "134801.092000", "134801.095000", "134801.098000", "134801.101000", "134801.105000", "134801.108000", "134801.111000", "134801.114000", "134801.117000", "134801.120000", "134801.123000", "134801.126000", "134801.129000", "134801.132000", "134801.135000", "134801.138000", "134801.142000", "134801.145000", "134801.148000", "134801.151000", "134801.154000", "134801.158000", "134801.161000", "134801.164000", "134809.218000", "134809.222000", "134809.225000", "134809.228000", "134809.231000", "134809.234000"],
