{
  "AcquisitionMatrixPE": 104,
  "AcquisitionNumber": 1,
  "AcquisitionTime": "18:11:58.065000",
  "BandwidthPerPixelPhaseEncode": 17.17,
  "BaseResolution": 104,
  "BodyPartExamined": "BRAIN",
  "CoilCombinationMethod": "Sum of Squares",
  "ConsistencyInfo": "N4_VE11C_LATEST_20160120",
  "ConversionSoftware": "dcm2niix",
  "ConversionSoftwareVersion": "v1.0.20220505",
  "DerivedVendorReportedEchoSpacing": 0.000560011,
  "DeviceSerialNumber": "167006",
  "DwellTime": 2.1e-06,
  "EchoTime": 0.037,
  "EchoTrainLength": 104,
  "EffectiveEchoSpacing": 0.000560011,
  "FlipAngle": 52,
  "HeudiconvVersion": "0.5.3.post811+g6206e14",
  "ImageComments": "Unaliased MB4/PE3/LB",
  "ImageOrientationPatientDICOM": [0.999956, -0.00922969, -0.00174026, 0.0080283, 0.936099, -0.351645],
  "ImageOrientationText": "Tra>Cor(-20.6)>Sag(-0.3)",
  "ImageType": [
    "ORIGINAL",
    "PRIMARY",
    "M",
    "MB",
    "ND",
    "MOSAIC"
],
  "ImagingFrequency": 123.259,
  "InPlanePhaseEncodingDirectionDICOM": "COL",
  "InstitutionAddress": "Chemin Queen-Mary 4565,Montreal,District,CA,H3W 1W5",
  "InstitutionName": "IUGM",
  "InstitutionalDepartmentName": "Department",
  "MRAcquisitionType": "2D",
  "MagneticFieldStrength": 3,
  "Manufacturer": "Siemens",
  "ManufacturersModelName": "Prisma_fit",
  "MatrixCoilMode": "SENSE",
  "Modality": "MR",
  "MultibandAccelerationFactor": 4,
  "PartialFourier": 1,
  "PatientPosition": "HFS",
  "PercentPhaseFOV": 100,
  "PercentSampling": 100,
  "PhaseEncodingDirection": "j",
  "PhaseEncodingSteps": 104,
  "PhaseResolution": 1,
  "PixelBandwidth": 2290,
  "ProcedureStepDescription": "video^friends",
  "ProtocolName": "func_task-friends-s05e15a",
  "PulseSequenceDetails": "%CustomerSeq%\\cmrr_mbep2d_bold",
  "ReceiveCoilActiveElements": "HC1-7;NC1,2",
  "ReceiveCoilName": "HeadNeck_64",
  "ReconMatrixPE": 104,
  "RepetitionTime": 1.49,
  "SAR": 0.0616424,
  "ScanOptions": "FS",
  "ScanningSequence": "EP",
  "SequenceName": "epfid2d1_104",
  "SequenceVariant": "SK\\SS",
  "SeriesDescription": "func_task-friends-s05e15a",
  "SeriesNumber": 9,
  "ShimSetting": [607, -7277, -8813, 400, 0, -376, 2, 42],
  "SliceThickness": 2,
  "SliceTiming": [0, 0.785, 0.0975, 0.8825, 0.1975, 0.98, 0.295, 1.0775, 0.3925, 1.1775, 0.49, 1.275, 0.5875, 1.3725, 0.6875, 0, 0.785, 0.0975, 0.8825, 0.1975, 0.98, 0.295, 1.0775, 0.3925, 1.1775, 0.49, 1.275, 0.5875, 1.3725, 0.6875, 0, 0.785, 0.0975, 0.8825, 0.1975, 0.98, 0.295, 1.0775, 0.3925, 1.1775, 0.49, 1.275, 0.5875, 1.3725, 0.6875, 0, 0.785, 0.0975, 0.8825, 0.1975, 0.98, 0.295, 1.0775, 0.3925, 1.1775, 0.49, 1.275, 0.5875, 1.3725, 0.6875],
  "SoftwareVersions": "syngo MR E11",
  "SpacingBetweenSlices": 2,
  "StationName": "MRC35049",
  "TaskName": "s05e15a",
  "TotalReadoutTime": 0.0576811,
  "TxRefAmp": 295.975,
  "WipMemBlock": "639230d4-2805-45f4-b48d-20cd2d1ac1e9||Sequence: R016 ve11c/master r/e634e98; Dec 19 2017 11:00:25 by eja",
  "dcmmeta_affine": [
    [-1.9999117851257324, 0.0160566084086895, -0.009749261662364006, 99.58086395263672],
    [0.01845937967300415, 1.872198224067688, -0.7032303810119629, -73.1330795288086],
    [-0.0034805284813046455, 0.7032893300056458, 1.8722639083862305, -59.83293151855469],
    [0.0, 0.0, 0.0, 1.0]
],
  "dcmmeta_reorient_transform": [
    [0.0, -1.0, 0.0, 103.0],
    [1.0, 0.0, 0.0, 0.0],
    [0.0, 0.0, 1.0, 0.0],
    [0.0, 0.0, 0.0, 1.0]
],
  "dcmmeta_shape": [104, 104, 60, 443],
  "dcmmeta_slice_dim": 2,
  "dcmmeta_version": 0.6,
  "global": {
    "const": {
      "AcquisitionMatrix": [104, 0, 0, 104],
      "AngioFlag": "N",
      "BitsAllocated": 16,
      "BitsStored": 16,
      "BodyPartExamined": "BRAIN",
      "Columns": 832,
      "EchoNumbers": 1,
      "EchoTime": 37.0,
      "EchoTrainLength": 104,
      "FlipAngle": 52.0,
      "HighBit": 15,
      "ImageOrientationPatient": [0.99995589118103, -0.009229689739, -0.001740264256, 0.00802830399608, 0.93609912787217, -0.3516446631643],
      "ImagePositionPatient": [-835.0471901777, -794.46428861872, 269.87009758061],
      "ImageType": [
        "ORIGINAL",
        "PRIMARY",
        "M",
        "MB",
        "ND",
        "MOSAIC"
],
      "ImagedNucleus": "1H",
      "ImagingFrequency": 123.258793,
      "InPlanePhaseEncodingDirection": "COL",
      "MRAcquisitionType": "2D",
      "MagneticFieldStrength": 3.0,
      "Manufacturer": "SIEMENS",
      "ManufacturerModelName": "Prisma_fit",
      "Modality": "MR",
      "NumberOfAverages": 1.0,
      "NumberOfPhaseEncodingSteps": 104,
      "PercentPhaseFieldOfView": 100.0,
      "PercentSampling": 100.0,
      "PerformedProcedureStepStartTime": "180545.321000",
      "PhotometricInterpretation": "MONOCHROME2",
      "PixelBandwidth": 2290.0,
      "PixelRepresentation": 0,
      "PixelSpacing": [2.0, 2.0],
      "ProtocolName": "func_task-friends-s05e15a",
      "RepetitionTime": 1490.0,
      "Rows": 832,
      "SAR": 0.06164241991002,
      "SamplesPerPixel": 1,
      "ScanOptions": "FS",
      "ScanningSequence": "EP",
      "SequenceName": "epfid2d1_104",
      "SequenceVariant": [
        "SK",
        "SS"
],
      "SeriesDescription": "func_task-friends-s05e15a",
      "SeriesNumber": 9,
      "SeriesTime": "181330.560000",
      "SliceLocation": -30.782234658341,
      "SliceThickness": 2.0,
      "SmallestImagePixelValue": 0,
      "SoftwareVersions": "syngo MR E11",
      "SpacingBetweenSlices": 1.999999985988,
      "SpecificCharacterSet": "ISO_IR 100",
      "StudyID": "1",
      "StudyTime": "180545.249000",
      "TransmitCoilName": "Body",
      "VariableFlipAngleFlag": "N",
      "WindowCenterWidthExplanation": "Algo1",
      "dBdt": 0.0},
    "slices": {}
  },
  "time": {
    "samples": {
      "AcquisitionNumber": [1, 2, 3, 4, 5, 6, 7, 8, 9, 10, 11, 12, 13, 14, 15, 16, 17, 18, 19, 20, 21, 22, 23, 24, 25, 26, 27, 28, 29, 30, 31, 32, 33, 34, 35, 36, 37, 38, 39, 40, 41, 42, 43, 44, 45, 46, 47, 48, 49, 50, 51, 52, 53, 54, 55, 56, 57, 58, 59, 60, 61, 62, 63, 64, 65, 66, 67, 68, 69, 70, 71, 72, 73, 74, 75, 76, 77, 78, 79, 80, 81, 82, 83, 84, 85, 86, 87, 88, 89, 90, 91, 92, 93, 94, 95, 96, 97, 98, 99, 100, 101, 102, 103, 104, 105, 106, 107, 108, 109, 110, 111, 112, 113, 114, 115, 116, 117, 118, 119, 120, 121, 122, 123, 124, 125, 126, 127, 128, 129, 130, 131, 132, 133, 134, 135, 136, 137, 138, 139, 140, 141, 142, 143, 144, 145, 146, 147, 148, 149, 150, 151, 152, 153, 154, 155, 156, 157, 158, 159, 160, 161, 162, 163, 164, 165, 166, 167, 168, 169, 170, 171, 172, 173, 174, 175, 176, 177, 178, 179, 180, 181, 182, 183, 184, 185, 186, 187, 188, 189, 190, 191, 192, 193, 194, 195, 196, 197, 198, 199, 200, 201, 202, 203, 204, 205, 206, 207, 208, 209, 210, 211, 212, 213, 214, 215, 216, 217, 218, 219, 220, 221, 222, 223, 224, 225, 226, 227, 228, 229, 230, 231, 232, 233, 234, 235, 236, 237, 238, 239, 240, 241, 242, 243, 244, 245, 246, 247, 248, 249, 250, 251, 252, 253, 254, 255, 256, 257, 258, 259, 260, 261, 262, 263, 264, 265, 266, 267, 268, 269, 270, 271, 272, 273, 274, 275, 276, 277, 278, 279, 280, 281, 282, 283, 284, 285, 286, 287, 288, 289, 290, 291, 292, 293, 294, 295, 296, 297, 298, 299, 300, 301, 302, 303, 304, 305, 306, 307, 308, 309, 310, 311, 312, 313, 314, 315, 316, 317, 318, 319, 320, 321, 322, 323, 324, 325, 326, 327, 328, 329, 330, 331, 332, 333, 334, 335, 336, 337, 338, 339, 340, 341, 342, 343, 344, 345, 346, 347, 348, 349, 350, 351, 352, 353, 354, 355, 356, 357, 358, 359, 360, 361, 362, 363, 364, 365, 366, 367, 368, 369, 370, 371, 372, 373, 374, 375, 376, 377, 378, 379, 380, 381, 382, 383, 384, 385, 386, 387, 388, 389, 390, 391, 392, 393, 394, 395, 396, 397, 398, 399, 400, 401, 402, 403, 404, 405, 406, 407, 408, 409, 410, 411, 412, 413, 414, 415, 416, 417, 418, 419, 420, 421, 422, 423, 424, 425, 426, 427, 428, 429, 430, 431, 432, 433, 434, 435, 436, 437, 438, 439, 440, 441, 442, 443],
      "AcquisitionTime": ["181158.065000", "181159.555000", "181201.045000", "181202.535000", "181204.025000", "181205.515000", "181207.005000", "181208.495000", "181209.985000", "181211.475000", "181212.965000", "181214.455000", "181215.945000", "181217.435000", "181218.925000", "181220.415000", "181221.905000", "181223.395000", "181224.885000", "181226.375000", "181227.865000", "181229.355000", "181230.845000", "181232.335000", "181233.825000", "181235.315000", "181236.805000", "181238.295000", "181239.785000", "181241.275000", "181242.765000", "181244.255000", "181245.745000", "181247.235000", "181248.725000", "181250.215000", "181251.705000", "181253.195000", "181254.685000", "181256.175000", "181257.665000", "181259.155000", "181300.645000", "181302.135000", "181303.625000", "181305.115000", "181306.605000", "181308.095000", "181309.585000", "181311.075000", "181312.565000", "181314.055000", "181315.545000", "181317.035000", "181318.525000", "181320.015000", "181321.505000", "181322.995000", "181324.485000", "181325.975000", "181327.465000", "181328.955000", "181330.445000", "181331.935000", "181333.425000", "181334.915000", "181336.405000", "181337.895000", "181339.385000", "181340.875000", "181342.365000", "181343.855000", "181345.345000", "181346.835000", "181348.325000", "181349.815000", "181351.305000", "181352.795000", "181354.285000", "181355.775000", "181357.265000", "181358.755000", "181400.245000", "181401.735000", "181403.225000", "181404.715000", "181406.205000", "181407.695000", "181409.185000", "181410.675000", "181412.165000", "181413.655000", "181415.145000", "181416.635000", "181418.125000", "181419.615000", "181421.105000", "181422.595000", "181424.085000", "181425.575000", "181427.065000", "181428.555000", "181430.045000", "181431.535000", "181433.025000", "181434.515000", "181436.005000", "181437.495000", "181438.985000", "181440.475000", "181441.965000", "181443.455000", "181444.945000", "181446.435000", "181447.925000", "181449.415000", "181450.905000", "181452.395000", "181453.885000", "181455.375000", "181456.865000", "181458.355000", "181459.845000", "181501.335000", "181502.825000", "181504.315000", "181505.805000", "181507.295000", "181508.785000", "181510.275000", "181511.765000", "181513.255000", "181514.745000", "181516.235000", "181517.725000", "181519.215000", "181520.705000", "181522.195000", "181523.685000", "181525.175000", "181526.665000", "181528.155000", "181529.645000", "181531.135000", "181532.625000", "181534.115000", "181535.605000", "181537.095000", "181538.585000", "181540.075000", "181541.565000", "181543.055000", "181544.545000", "181546.035000", "181547.525000", "181549.015000", "181550.505000", "181551.995000", "181553.485000", "181554.975000", "181556.465000", "181557.955000", "181559.445000", "181600.935000", "181602.425000", "181603.915000", "181605.405000", "181606.895000", "181608.385000", "181609.875000", "181611.365000", "181612.855000", "181614.345000", "181615.835000", "181617.325000", "181618.815000", "181620.305000", "181621.795000", "181623.285000", "181624.775000", "181626.265000", "181627.755000", "181629.245000", "181630.735000", "181632.225000", "181633.715000", "181635.205000", "181636.695000", "181638.185000", "181639.675000", "181641.165000", "181642.655000", "181644.145000", "181645.635000", "181647.125000", "181648.615000", "181650.105000", "181651.595000", "181653.085000", "181654.575000", "181656.065000", "181657.555000", "181659.045000", "181700.535000", "181702.025000", "181703.515000", "181705.005000", "181706.495000", "181707.985000", "181709.475000", "181710.965000", "181712.455000", "181713.945000", "181715.435000", "181716.925000", "181718.415000", "181719.905000", "181721.395000", "181722.885000", "181724.375000", "181725.865000", "181727.355000", "181728.845000", "181730.335000", "181731.825000", "181733.315000", "181734.805000", "181736.295000", "181737.785000", "181739.275000", "181740.765000", "181742.255000", "181743.745000", "181745.235000", "181746.725000", "181748.215000", "181749.705000", "181751.195000", "181752.685000", "181754.175000", "181755.665000", "181757.155000", "181758.645000", "181800.135000", "181801.625000", "181803.115000", "181804.605000", "181806.095000", "181807.585000", "181809.075000", "181810.565000", "181812.055000", "181813.545000", "181815.035000", "181816.525000", "181818.015000", "181819.505000", "181820.995000", "181822.485000", "181823.975000", "181825.465000", "181826.955000", "181828.445000", "181829.935000", "181831.425000", "181832.915000", "181834.405000", "181835.895000", "181837.385000", "181838.875000", "181840.365000", "181841.855000", "181843.345000", "181844.835000", "181846.325000", "181847.815000", "181849.305000", "181850.795000", "181852.285000", "181853.775000", "181855.265000", "181856.755000", "181858.245000", "181859.735000", "181901.225000", "181902.715000", "181904.205000", "181905.695000", "181907.185000", "181908.675000", "181910.165000", "181911.655000", "181913.145000", "181914.635000", "181916.125000", "181917.615000", "181919.105000", "181920.595000", "181922.085000", "181923.575000", "181925.065000", "181926.555000", "181928.045000", "181929.535000", "181931.025000", "181932.515000", "181934.005000", "181935.495000", "181936.985000", "181938.475000", "181939.965000", "181941.455000", "181942.945000", "181944.435000", "181945.925000", "181947.415000", "181948.905000", "181950.395000", "181951.885000", "181953.375000", "181954.865000", "181956.355000", "181957.845000", "181959.335000", "182000.825000", "182002.315000", "182003.805000", "182005.295000", "182006.785000", "182008.275000", "182009.765000", "182011.255000", "182012.745000", "182014.235000", "182015.725000", "182017.215000", "182018.705000", "182020.195000", "182021.685000", "182023.175000", "182024.665000", "182026.155000", "182027.645000", "182029.135000", "182030.625000", "182032.115000", "182033.605000", "182035.095000", "182036.585000", "182038.075000", "182039.565000", "182041.055000", "182042.545000", "182044.035000", "182045.525000", "182047.015000", "182048.505000", "182049.995000", "182051.485000", "182052.975000", "182054.465000", "182055.955000", "182057.445000", "182058.935000", "182100.425000", "182101.915000", "182103.405000", "182104.895000", "182106.385000", "182107.875000", "182109.365000", "182110.855000", "182112.345000", "182113.835000", "182115.325000", "182116.815000", "182118.305000", "182119.795000", "182121.285000", "182122.775000", "182124.265000", "182125.755000", "182127.245000", "182128.735000", "182130.225000", "182131.715000", "182133.205000", "182134.695000", "182136.185000", "182137.675000", "182139.165000", "182140.655000", "182142.145000", "182143.635000", "182145.125000", "182146.615000", "182148.105000", "182149.595000", "182151.085000", "182152.575000", "182154.065000", "182155.555000", "182157.045000", "182158.535000", "182200.025000", "182201.515000", "182203.005000", "182204.495000", "182205.985000", "182207.475000", "182208.965000", "182210.455000", "182211.945000", "182213.435000", "182214.925000", "182216.415000", "182217.905000", "182219.395000", "182220.885000", "182222.375000", "182223.865000", "182225.355000", "182226.845000", "182228.335000", "182229.825000", "182231.315000", "182232.805000", "182234.295000", "182235.785000", "182237.275000", "182238.765000", "182240.255000", "182241.745000", "182243.235000", "182244.725000", "182246.215000", "182247.705000", "182249.195000", "182250.685000", "182252.175000", "182253.665000", "182255.155000", "182256.645000"],
      "ContentTime": ["181330.563000", "181330.566000", "181330.569000", "181330.572000", "181330.575000", "181330.578000", "181330.581000", "181330.587000", "181330.589000", "181330.592000", "181330.595000", "181330.598000", "181330.601000", "181330.604000", "181330.607000", "181330.609000", "181330.612000", "181330.615000", "181330.618000", "181330.621000", "181330.624000", "181330.627000", "181330.630000", "181330.632000", "181330.635000", "181330.638000", "181330.641000", "181330.644000", "181330.647000", "181330.650000", "181330.658000", "181330.661000", "181330.664000", "181330.667000", "181330.669000", "181330.672000", "181330.675000", "181330.678000", "181350.526000", "181350.529000", "181350.532000", "181350.535000", "181350.538000", "181350.540000", "181350.543000", "181350.546000", "181350.549000", "181350.552000", "181350.555000", "181350.558000", "181350.561000", "181350.564000", "181350.567000", "181350.569000", "181350.572000", "181350.583000", "181350.586000", "181350.589000", "181410.526000", "181410.529000", "181410.532000", "181410.534000", "181410.537000", "181410.540000", "181410.543000", "181410.546000", "181410.549000", "181410.552000", "181410.554000", "181410.557000", "181410.560000", "181410.563000", "181410.566000", "181410.569000", "181410.572000", "181410.574000", "181410.577000", "181410.580000", "181410.587000", "181430.526000", "181430.529000", "181430.532000", "181430.535000", "181430.537000", "181430.541000", "181430.543000", "181430.546000", "181430.549000", "181430.552000", "181430.555000", "181430.558000", "181430.561000", "181430.564000", "181430.567000", "181430.569000", "181430.572000", "181430.575000", "181430.578000", "181430.581000", "181510.527000", "181510.530000", "181510.533000", "181510.536000", "181510.539000", "181510.542000", "181510.544000", "181510.547000", "181510.550000", "181510.553000", "181510.556000", "181510.559000", "181510.562000", "181510.565000", "181510.568000", "181510.571000", "181510.573000", "181510.576000", "181510.579000", "181510.582000", "181510.585000", "181510.588000", "181510.590000", "181510.593000", "181510.596000", "181510.599000", "181510.602000", "181510.605000", "181510.608000", "181550.526000", "181550.529000", "181550.532000", "181550.535000", "181550.538000", "181550.541000", "181550.543000", "181550.546000", "181550.549000", "181550.552000", "181550.555000", "181550.558000", "181550.561000", "181550.564000", "181550.566000", "181550.569000", "181550.572000", "181550.575000", "181550.578000", "181550.581000", "181550.584000", "181550.587000", "181550.589000", "181550.592000", "181550.595000", "181550.598000", "181550.601000", "181630.526000", "181630.529000", "181630.532000", "181630.535000", "181630.537000", "181630.561000", "181630.564000", "181630.567000", "181630.570000", "181630.573000", "181630.576000", "181630.579000", "181630.581000", "181630.584000", "181630.587000", "181630.590000", "181630.593000", "181630.596000", "181630.599000", "181630.602000", "181630.605000", "181630.607000", "181630.610000", "181630.613000", "181630.616000", "181630.619000", "181630.622000", "181710.526000", "181710.529000", "181710.532000", "181710.535000", "181710.538000", "181710.541000", "181710.543000", "181710.546000", "181710.549000", "181710.552000", "181710.555000", "181710.558000", "181710.561000", "181710.564000", "181710.567000", "181710.569000", "181710.572000", "181710.575000", "181710.578000", "181710.581000", "181710.584000", "181710.587000", "181710.590000", "181710.593000", "181710.595000", "181710.598000", "181710.601000", "181750.527000", "181750.530000", "181750.533000", "181750.536000", "181750.539000", "181750.541000", "181750.544000", "181750.547000", "181750.550000", "181750.553000", "181750.555000", "181750.558000", "181750.561000", "181750.564000", "181750.567000", "181750.570000", "181750.573000", "181750.576000", "181750.579000", "181750.582000", "181750.585000", "181750.587000", "181750.590000", "181750.593000", "181750.596000", "181750.599000", "181750.602000", "181830.526000", "181830.529000", "181830.532000", "181830.535000", "181830.538000", "181830.541000", "181830.544000", "181830.546000", "181830.549000", "181830.552000", "181830.555000", "181830.558000", "181830.561000", "181830.564000", "181830.567000", "181830.570000", "181830.573000", "181830.575000", "181830.578000", "181830.581000", "181830.593000", "181830.595000", "181830.598000", "181830.601000", "181830.604000", "181830.607000", "181910.536000", "181910.539000", "181910.543000", "181910.546000", "181910.549000", "181910.552000", "181910.555000", "181910.558000", "181910.561000", "181910.564000", "181910.567000", "181910.570000", "181910.573000", "181910.576000", "181910.579000", "181910.582000", "181910.584000", "181910.587000", "181910.590000", "181910.593000", "181910.596000", "181910.599000", "181910.602000", "181910.605000", "181910.608000", "181910.611000", "181910.614000", "181930.526000", "181930.529000", "181930.532000", "181930.535000", "181930.538000", "181930.541000", "181930.544000", "181930.547000", "181930.550000", "181930.552000", "181930.555000", "181930.558000", "181930.561000", "181930.564000", "182010.527000", "182010.530000", "182010.533000", "182010.536000", "182010.538000", "182010.541000", "182010.544000", "182010.547000", "182010.550000", "182010.553000", "182010.555000", "182010.558000", "182010.561000", "182010.564000", "182010.567000", "182010.570000", "182010.573000", "182010.575000", "182010.578000", "182010.581000", "182010.584000", "182010.587000", "182010.589000", "182010.592000", "182010.595000", "182010.598000", "182010.601000", "182050.526000", "182050.529000", "182050.532000", "182050.535000", "182050.537000", "182050.540000", "182050.543000", "182050.546000", "182050.549000", "182050.552000", "182050.556000", "182050.558000", "182050.561000", "182050.564000", "182050.567000", "182050.570000", "182050.573000", "182050.576000", "182050.591000", "182050.594000", "182050.596000", "182050.599000", "182050.602000", "182050.605000", "182050.608000", "182050.611000", "182130.526000", "182130.529000", "182130.532000", "182130.535000", "182130.538000", "182130.541000", "182130.543000", "182130.546000", "182130.549000", "182130.552000", "182130.555000", "182130.558000", "182130.561000", "182130.563000", "182130.566000", "182130.569000", "182130.572000", "182130.575000", "182130.578000", "182130.581000", "182130.583000", "182130.586000", "182130.589000", "182130.592000", "182130.595000", "182130.598000", "182130.600000", "182210.527000", "182210.530000", "182210.533000", "182210.536000", "182210.539000", "182210.541000", "182210.544000", "182210.547000", "182210.550000", "182210.553000", "182210.556000", "182210.559000", "182210.562000", "182210.564000", "182210.567000", "182210.570000", "182210.573000", "182210.576000", "182210.579000", "182210.582000", "182210.585000", "182210.588000", "182210.590000", "182210.593000", "182210.596000", "182210.599000", "182210.602000", "182250.526000", "182250.529000", "182250.532000", "182250.535000", "182250.537000", "182250.540000", "182250.543000", "182250.546000", "182250.549000", "182250.552000", "182250.555000", "182250.558000", "182250.561000", "182250.564000", "182250.567000", "182250.570000", "182250.573000", "182250.575000", "182250.578000", "182250.581000", "182250.584000", "182250.587000", "182250.590000", "182250.593000", "182250.596000", "182250.598000", "182250.601000", "182258.877000", "182258.880000", "182258.883000", "182258.886000", "182258.889000", "182258.892000"],
