{
  "AcquisitionMatrixPE": 104,
  "AcquisitionNumber": 1,
  "AcquisitionTime": "18:24:59.450000",
  "BandwidthPerPixelPhaseEncode": 17.17,
  "BaseResolution": 104,
  "BodyPartExamined": "BRAIN",
  "CoilCombinationMethod": "Sum of Squares",
  "ConsistencyInfo": "N4_VE11C_LATEST_20160120",
  "ConversionSoftware": "dcm2niix",
  "ConversionSoftwareVersion": "v1.0.20220505",
  "DerivedVendorReportedEchoSpacing": 0.000560011,
  "DeviceSerialNumber": "167006",
  "DwellTime": 2.1e-06,
  "EchoTime": 0.037,
  "EchoTrainLength": 104,
  "EffectiveEchoSpacing": 0.000560011,
  "FlipAngle": 52,
  "HeudiconvVersion": "0.5.3.post811+g6206e14",
  "ImageComments": "Unaliased MB4/PE3/LB",
  "ImageOrientationPatientDICOM": [0.999956, -0.00922969, -0.00174026, 0.0080283, 0.936099, -0.351645],
  "ImageOrientationText": "Tra>Cor(-20.6)>Sag(-0.3)",
  "ImageType": [
    "ORIGINAL",
    "PRIMARY",
    "M",
    "MB",
    "ND",
    "MOSAIC"
],
  "ImagingFrequency": 123.259,
  "InPlanePhaseEncodingDirectionDICOM": "COL",
  "InstitutionAddress": "Chemin Queen-Mary 4565,Montreal,District,CA,H3W 1W5",
  "InstitutionName": "IUGM",
  "InstitutionalDepartmentName": "Department",
  "MRAcquisitionType": "2D",
  "MagneticFieldStrength": 3,
  "Manufacturer": "Siemens",
  "ManufacturersModelName": "Prisma_fit",
  "MatrixCoilMode": "SENSE",
  "Modality": "MR",
  "MultibandAccelerationFactor": 4,
  "PartialFourier": 1,
  "PatientPosition": "HFS",
  "PercentPhaseFOV": 100,
  "PercentSampling": 100,
  "PhaseEncodingDirection": "j",
  "PhaseEncodingSteps": 104,
  "PhaseResolution": 1,
  "PixelBandwidth": 2290,
  "ProcedureStepDescription": "video^friends",
  "ProtocolName": "func_task-friends-s05e15b",
  "PulseSequenceDetails": "%CustomerSeq%\\cmrr_mbep2d_bold",
  "ReceiveCoilActiveElements": "HC1-7;NC1,2",
  "ReceiveCoilName": "HeadNeck_64",
  "ReconMatrixPE": 104,
  "RepetitionTime": 1.49,
  "SAR": 0.061662,
  "ScanOptions": "FS",
  "ScanningSequence": "EP",
  "SequenceName": "epfid2d1_104",
  "SequenceVariant": "SK\\SS",
  "SeriesDescription": "func_task-friends-s05e15b",
  "SeriesNumber": 11,
  "ShimSetting": [607, -7277, -8813, 400, 0, -376, 2, 42],
  "SliceThickness": 2,
  "SliceTiming": [0, 0.785, 0.0975, 0.8825, 0.1975, 0.98, 0.295, 1.0775, 0.3925, 1.1775, 0.49, 1.275, 0.5875, 1.3725, 0.6875, 0, 0.785, 0.0975, 0.8825, 0.1975, 0.98, 0.295, 1.0775, 0.3925, 1.1775, 0.49, 1.275, 0.5875, 1.3725, 0.6875, 0, 0.785, 0.0975, 0.8825, 0.1975, 0.98, 0.295, 1.0775, 0.3925, 1.1775, 0.49, 1.275, 0.5875, 1.3725, 0.6875, 0, 0.785, 0.0975, 0.8825, 0.1975, 0.98, 0.295, 1.0775, 0.3925, 1.1775, 0.49, 1.275, 0.5875, 1.3725, 0.6875],
  "SoftwareVersions": "syngo MR E11",
  "SpacingBetweenSlices": 2,
  "StationName": "MRC35049",
  "TaskName": "s05e15b",
  "TotalReadoutTime": 0.0576811,
  "TxRefAmp": 295.975,
  "WipMemBlock": "81341e56-0d20-46b5-8b44-f80d54bca5e1||Sequence: R016 ve11c/master r/e634e98; Dec 19 2017 11:00:25 by eja",
  "dcmmeta_affine": [
    [-1.9999117851257324, 0.0160566084086895, -0.009749261662364006, 99.58086395263672],
    [0.01845937967300415, 1.872198224067688, -0.7032303810119629, -73.1330795288086],
    [-0.0034805284813046455, 0.7032893300056458, 1.8722639083862305, -59.83293151855469],
    [0.0, 0.0, 0.0, 1.0]
],
  "dcmmeta_reorient_transform": [
    [0.0, -1.0, 0.0, 103.0],
    [1.0, 0.0, 0.0, 0.0],
    [0.0, 0.0, 1.0, 0.0],
    [0.0, 0.0, 0.0, 1.0]
],
  "dcmmeta_shape": [104, 104, 60, 477],
  "dcmmeta_slice_dim": 2,
  "dcmmeta_version": 0.6,
  "global": {
    "const": {
      "AcquisitionMatrix": [104, 0, 0, 104],
      "AngioFlag": "N",
      "BitsAllocated": 16,
      "BitsStored": 16,
      "BodyPartExamined": "BRAIN",
      "Columns": 832,
      "EchoNumbers": 1,
      "EchoTime": 37.0,
      "EchoTrainLength": 104,
      "FlipAngle": 52.0,
      "HighBit": 15,
      "ImageOrientationPatient": [0.99995589118103, -0.009229689739, -0.001740264256, 0.00802830399608, 0.93609912787217, -0.3516446631643],
      "ImagePositionPatient": [-835.0471901777, -794.46428861872, 269.87009758061],
      "ImageType": [
        "ORIGINAL",
        "PRIMARY",
        "M",
        "MB",
        "ND",
        "MOSAIC"
],
      "ImagedNucleus": "1H",
      "ImagingFrequency": 123.258802,
      "InPlanePhaseEncodingDirection": "COL",
      "MRAcquisitionType": "2D",
      "MagneticFieldStrength": 3.0,
      "Manufacturer": "SIEMENS",
      "ManufacturerModelName": "Prisma_fit",
      "Modality": "MR",
      "NumberOfAverages": 1.0,
      "NumberOfPhaseEncodingSteps": 104,
      "PercentPhaseFieldOfView": 100.0,
      "PercentSampling": 100.0,
      "PerformedProcedureStepStartTime": "180545.321000",
      "PhotometricInterpretation": "MONOCHROME2",
      "PixelBandwidth": 2290.0,
      "PixelRepresentation": 0,
      "PixelSpacing": [2.0, 2.0],
      "ProtocolName": "func_task-friends-s05e15b",
      "RepetitionTime": 1490.0,
      "Rows": 832,
      "SAR": 0.06166200445533,
      "SamplesPerPixel": 1,
      "ScanOptions": "FS",
      "ScanningSequence": "EP",
      "SequenceName": "epfid2d1_104",
      "SequenceVariant": [
        "SK",
        "SS"
],
      "SeriesDescription": "func_task-friends-s05e15b",
      "SeriesNumber": 11,
      "SeriesTime": "182625.477000",
      "SliceLocation": -30.782234658341,
      "SliceThickness": 2.0,
      "SmallestImagePixelValue": 0,
      "SoftwareVersions": "syngo MR E11",
      "SpacingBetweenSlices": 1.999999985988,
      "SpecificCharacterSet": "ISO_IR 100",
      "StudyID": "1",
      "StudyTime": "180545.249000",
      "TransmitCoilName": "Body",
      "VariableFlipAngleFlag": "N",
      "WindowCenterWidthExplanation": "Algo1",
      "dBdt": 0.0},
    "slices": {}
  },
  "time": {
    "samples": {
      "AcquisitionNumber": [1, 2, 3, 4, 5, 6, 7, 8, 9, 10, 11, 12, 13, 14, 15, 16, 17, 18, 19, 20, 21, 22, 23, 24, 25, 26, 27, 28, 29, 30, 31, 32, 33, 34, 35, 36, 37, 38, 39, 40, 41, 42, 43, 44, 45, 46, 47, 48, 49, 50, 51, 52, 53, 54, 55, 56, 57, 58, 59, 60, 61, 62, 63, 64, 65, 66, 67, 68, 69, 70, 71, 72, 73, 74, 75, 76, 77, 78, 79, 80, 81, 82, 83, 84, 85, 86, 87, 88, 89, 90, 91, 92, 93, 94, 95, 96, 97, 98, 99, 100, 101, 102, 103, 104, 105, 106, 107, 108, 109, 110, 111, 112, 113, 114, 115, 116, 117, 118, 119, 120, 121, 122, 123, 124, 125, 126, 127, 128, 129, 130, 131, 132, 133, 134, 135, 136, 137, 138, 139, 140, 141, 142, 143, 144, 145, 146, 147, 148, 149, 150, 151, 152, 153, 154, 155, 156, 157, 158, 159, 160, 161, 162, 163, 164, 165, 166, 167, 168, 169, 170, 171, 172, 173, 174, 175, 176, 177, 178, 179, 180, 181, 182, 183, 184, 185, 186, 187, 188, 189, 190, 191, 192, 193, 194, 195, 196, 197, 198, 199, 200, 201, 202, 203, 204, 205, 206, 207, 208, 209, 210, 211, 212, 213, 214, 215, 216, 217, 218, 219, 220, 221, 222, 223, 224, 225, 226, 227, 228, 229, 230, 231, 232, 233, 234, 235, 236, 237, 238, 239, 240, 241, 242, 243, 244, 245, 246, 247, 248, 249, 250, 251, 252, 253, 254, 255, 256, 257, 258, 259, 260, 261, 262, 263, 264, 265, 266, 267, 268, 269, 270, 271, 272, 273, 274, 275, 276, 277, 278, 279, 280, 281, 282, 283, 284, 285, 286, 287, 288, 289, 290, 291, 292, 293, 294, 295, 296, 297, 298, 299, 300, 301, 302, 303, 304, 305, 306, 307, 308, 309, 310, 311, 312, 313, 314, 315, 316, 317, 318, 319, 320, 321, 322, 323, 324, 325, 326, 327, 328, 329, 330, 331, 332, 333, 334, 335, 336, 337, 338, 339, 340, 341, 342, 343, 344, 345, 346, 347, 348, 349, 350, 351, 352, 353, 354, 355, 356, 357, 358, 359, 360, 361, 362, 363, 364, 365, 366, 367, 368, 369, 370, 371, 372, 373, 374, 375, 376, 377, 378, 379, 380, 381, 382, 383, 384, 385, 386, 387, 388, 389, 390, 391, 392, 393, 394, 395, 396, 397, 398, 399, 400, 401, 402, 403, 404, 405, 406, 407, 408, 409, 410, 411, 412, 413, 414, 415, 416, 417, 418, 419, 420, 421, 422, 423, 424, 425, 426, 427, 428, 429, 430, 431, 432, 433, 434, 435, 436, 437, 438, 439, 440, 441, 442, 443, 444, 445, 446, 447, 448, 449, 450, 451, 452, 453, 454, 455, 456, 457, 458, 459, 460, 461, 462, 463, 464, 465, 466, 467, 468, 469, 470, 471, 472, 473, 474, 475, 476, 477],
      "AcquisitionTime": ["182459.450000", "182500.940000", "182502.430000", "182503.920000", "182505.410000", "182506.900000", "182508.390000", "182509.880000", "182511.370000", "182512.860000", "182514.350000", "182515.840000", "182517.330000", "182518.820000", "182520.310000", "182521.800000", "182523.290000", "182524.780000", "182526.270000", "182527.760000", "182529.250000", "182530.740000", "182532.230000", "182533.720000", "182535.210000", "182536.700000", "182538.190000", "182539.680000", "182541.170000", "182542.660000", "182544.150000", "182545.640000", "182547.130000", "182548.620000", "182550.110000", "182551.600000", "182553.090000", "182554.580000", "182556.070000", "182557.560000", "182559.050000", "182600.540000", "182602.030000", "182603.520000", "182605.010000", "182606.500000", "182607.990000", "182609.480000", "182610.970000", "182612.460000", "182613.950000", "182615.440000", "182616.930000", "182618.420000", "182619.910000", "182621.400000", "182622.890000", "182624.380000", "182625.870000", "182627.360000", "182628.850000", "182630.340000", "182631.830000", "182633.320000", "182634.810000", "182636.300000", "182637.790000", "182639.280000", "182640.770000", "182642.260000", "182643.750000", "182645.240000", "182646.730000", "182648.220000", "182649.710000", "182651.200000", "182652.690000", "182654.180000", "182655.670000", "182657.160000", "182658.650000", "182700.140000", "182701.630000", "182703.120000", "182704.610000", "182706.100000", "182707.590000", "182709.080000", "182710.570000", "182712.060000", "182713.550000", "182715.040000", "182716.530000", "182718.020000", "182719.510000", "182721.000000", "182722.490000", "182723.980000", "182725.470000", "182726.960000", "182728.450000", "182729.940000", "182731.430000", "182732.920000", "182734.410000", "182735.900000", "182737.390000", "182738.880000", "182740.370000", "182741.860000", "182743.350000", "182744.840000", "182746.330000", "182747.820000", "182749.310000", "182750.800000", "182752.290000", "182753.780000", "182755.270000", "182756.760000", "182758.250000", "182759.740000", "182801.230000", "182802.720000", "182804.210000", "182805.700000", "182807.190000", "182808.680000", "182810.170000", "182811.660000", "182813.150000", "182814.640000", "182816.130000", "182817.620000", "182819.110000", "182820.600000", "182822.090000", "182823.580000", "182825.070000", "182826.560000", "182828.050000", "182829.540000", "182831.030000", "182832.520000", "182834.010000", "182835.500000", "182836.990000", "182838.480000", "182839.970000", "182841.460000", "182842.950000", "182844.440000", "182845.930000", "182847.420000", "182848.910000", "182850.400000", "182851.890000", "182853.380000", "182854.870000", "182856.360000", "182857.850000", "182859.340000", "182900.830000", "182902.320000", "182903.810000", "182905.300000", "182906.790000", "182908.280000", "182909.770000", "182911.260000", "182912.750000", "182914.240000", "182915.730000", "182917.220000", "182918.710000", "182920.200000", "182921.690000", "182923.180000", "182924.670000", "182926.160000", "182927.650000", "182929.140000", "182930.630000", "182932.120000", "182933.610000", "182935.100000", "182936.590000", "182938.080000", "182939.570000", "182941.060000", "182942.550000", "182944.040000", "182945.530000", "182947.020000", "182948.510000", "182950.000000", "182951.490000", "182952.980000", "182954.470000", "182955.960000", "182957.450000", "182958.940000", "183000.430000", "183001.920000", "183003.410000", "183004.900000", "183006.390000", "183007.880000", "183009.370000", "183010.860000", "183012.350000", "183013.840000", "183015.330000", "183016.820000", "183018.310000", "183019.800000", "183021.290000", "183022.780000", "183024.270000", "183025.760000", "183027.250000", "183028.740000", "183030.230000", "183031.720000", "183033.210000", "183034.700000", "183036.190000", "183037.680000", "183039.170000", "183040.660000", "183042.150000", "183043.640000", "183045.130000", "183046.620000", "183048.110000", "183049.600000", "183051.090000", "183052.580000", "183054.070000", "183055.560000", "183057.050000", "183058.540000", "183100.030000", "183101.520000", "183103.010000", "183104.500000", "183105.990000", "183107.480000", "183108.970000", "183110.460000", "183111.950000", "183113.440000", "183114.930000", "183116.420000", "183117.910000", "183119.400000", "183120.890000", "183122.380000", "183123.870000", "183125.360000", "183126.850000", "183128.340000", "183129.830000", "183131.320000", "183132.810000", "183134.300000", "183135.790000", "183137.280000", "183138.770000", "183140.260000", "183141.750000", "183143.240000", "183144.730000", "183146.220000", "183147.710000", "183149.200000", "183150.690000", "183152.180000", "183153.670000", "183155.160000", "183156.650000", "183158.140000", "183159.630000", "183201.120000", "183202.610000", "183204.100000", "183205.590000", "183207.080000", "183208.570000", "183210.060000", "183211.550000", "183213.040000", "183214.530000", "183216.020000", "183217.510000", "183219.000000", "183220.490000", "183221.980000", "183223.470000", "183224.960000", "183226.450000", "183227.940000", "183229.430000", "183230.920000", "183232.410000", "183233.900000", "183235.390000", "183236.880000", "183238.370000", "183239.860000", "183241.350000", "183242.840000", "183244.330000", "183245.820000", "183247.310000", "183248.800000", "183250.290000", "183251.780000", "183253.270000", "183254.760000", "183256.250000", "183257.740000", "183259.230000", "183300.720000", "183302.210000", "183303.700000", "183305.190000", "183306.680000", "183308.170000", "183309.660000", "183311.150000", "183312.640000", "183314.130000", "183315.620000", "183317.110000", "183318.600000", "183320.090000", "183321.580000", "183323.070000", "183324.560000", "183326.050000", "183327.540000", "183329.030000", "183330.520000", "183332.010000", "183333.500000", "183334.990000", "183336.480000", "183337.970000", "183339.460000", "183340.950000", "183342.440000", "183343.930000", "183345.420000", "183346.910000", "183348.400000", "183349.890000", "183351.380000", "183352.870000", "183354.360000", "183355.850000", "183357.340000", "183358.830000", "183400.320000", "183401.810000", "183403.300000", "183404.790000", "183406.280000", "183407.770000", "183409.260000", "183410.750000", "183412.240000", "183413.730000", "183415.220000", "183416.710000", "183418.200000", "183419.690000", "183421.180000", "183422.670000", "183424.160000", "183425.650000", "183427.140000", "183428.630000", "183430.120000", "183431.610000", "183433.100000", "183434.590000", "183436.080000", "183437.570000", "183439.060000", "183440.550000", "183442.040000", "183443.530000", "183445.020000", "183446.510000", "183448.000000", "183449.490000", "183450.980000", "183452.470000", "183453.960000", "183455.450000", "183456.940000", "183458.430000", "183459.920000", "183501.410000", "183502.900000", "183504.390000", "183505.880000", "183507.370000", "183508.860000", "183510.350000", "183511.840000", "183513.330000", "183514.820000", "183516.310000", "183517.800000", "183519.290000", "183520.780000", "183522.270000", "183523.760000", "183525.250000", "183526.740000", "183528.230000", "183529.720000", "183531.210000", "183532.700000", "183534.190000", "183535.680000", "183537.170000", "183538.660000", "183540.150000", "183541.640000", "183543.130000", "183544.620000", "183546.110000", "183547.600000", "183549.090000", "183550.580000", "183552.070000", "183553.560000", "183555.050000", "183556.540000", "183558.030000", "183559.520000", "183601.010000", "183602.500000", "183603.990000", "183605.480000", "183606.970000", "183608.460000", "183609.950000", "183611.440000", "183612.930000", "183614.420000", "183615.910000", "183617.400000", "183618.890000", "183620.380000", "183621.870000", "183623.360000", "183624.850000", "183626.340000", "183627.830000", "183629.320000", "183630.810000", "183632.300000", "183633.790000", "183635.280000", "183636.770000", "183638.260000", "183639.750000", "183641.240000", "183642.730000", "183644.220000", "183645.710000", "183647.200000", "183648.690000"],
      "ContentTime": ["182625.480000", "182625.483000", "182625.486000", "182625.489000", "182625.492000", "182625.495000", "182625.498000", "182625.500000", "182625.503000", "182625.506000", "182625.509000", "182625.512000", "182625.515000", "182625.518000", "182625.520000", "182625.523000", "182625.531000", "182625.534000", "182625.537000", "182625.540000", "182625.543000", "182625.546000", "182625.548000", "182625.551000", "182625.554000", "182625.557000", "182625.560000", "182625.563000", "182625.566000", "182625.568000", "182625.571000", "182625.574000", "182625.577000", "182645.446000", "182645.449000", "182645.452000", "182645.455000", "182645.457000", "182645.460000", "182645.463000", "182645.466000", "182645.469000", "182645.471000", "182645.474000", "182645.477000", "182645.480000", "182645.483000", "182645.485000", "182645.488000", "182645.491000", "182645.494000", "182645.497000", "182645.499000", "182705.445000", "182705.448000", "182705.451000", "182705.453000", "182705.460000", "182705.463000", "182705.466000", "182705.468000", "182705.471000", "182705.474000", "182705.477000", "182705.480000", "182705.482000", "182705.486000", "182705.489000", "182705.492000", "182705.495000", "182705.498000", "182705.500000", "182705.503000", "182725.446000", "182725.449000", "182725.452000", "182725.454000", "182725.457000", "182725.460000", "182725.474000", "182725.477000", "182725.480000", "182725.482000", "182725.485000", "182725.488000", "182725.491000", "182725.494000", "182725.496000", "182725.499000", "182725.509000", "182725.512000", "182725.515000", "182725.518000", "182805.446000", "182805.449000", "182805.452000", "182805.455000", "182805.457000", "182805.460000", "182805.463000", "182805.466000", "182805.469000", "182805.471000", "182805.474000", "182805.477000", "182805.480000", "182805.483000", "182805.486000", "182805.488000", "182805.491000", "182805.494000", "182805.497000", "182805.500000", "182805.503000", "182805.505000", "182805.508000", "182805.511000", "182805.514000", "182805.517000", "182805.519000", "182805.522000", "182805.525000", "182805.528000", "182805.531000", "182845.446000", "182845.449000", "182845.452000", "182845.455000", "182845.457000", "182845.460000", "182845.463000", "182845.466000", "182845.469000", "182845.472000", "182845.474000", "182845.477000", "182845.480000", "182845.483000", "182845.486000", "182845.488000", "182845.491000", "182845.494000", "182845.497000", "182845.500000", "182845.510000", "182845.513000", "182845.516000", "182845.522000", "182845.525000", "182845.527000", "182925.446000", "182925.449000", "182925.452000", "182925.455000", "182925.457000", "182925.460000", "182925.463000", "182925.466000", "182925.469000", "182925.477000", "182925.480000", "182925.483000", "182925.486000", "182925.488000", "182925.491000", "182925.494000", "182925.497000", "182925.500000", "182925.503000", "182925.505000", "182925.508000", "182925.511000", "182925.514000", "182925.517000", "182925.520000", "182925.522000", "182925.525000", "183005.446000", "183005.449000", "183005.452000", "183005.455000", "183005.457000", "183005.460000", "183005.463000", "183005.466000", "183005.469000", "183005.472000", "183005.475000", "183005.478000", "183005.481000", "183005.483000", "183005.486000", "183005.489000", "183005.492000", "183005.495000", "183005.498000", "183005.500000", "183005.503000", "183005.506000", "183005.509000", "183005.512000", "183005.515000", "183005.517000", "183005.520000", "183045.446000", "183045.449000", "183045.452000", "183045.455000", "183045.457000", "183045.460000", "183045.463000", "183045.466000", "183045.469000", "183045.472000", "183045.475000", "183045.477000", "183045.480000", "183045.483000", "183045.486000", "183045.489000", "183045.492000", "183045.495000", "183045.497000", "183045.500000", "183045.503000", "183045.506000", "183045.509000", "183045.512000", "183045.514000", "183045.517000", "183045.520000", "183125.447000", "183125.450000", "183125.453000", "183125.456000", "183125.458000", "183125.461000", "183125.464000", "183125.467000", "183125.470000", "183125.473000", "183125.476000", "183125.478000", "183125.481000", "183125.484000", "183125.487000", "183125.490000", "183125.492000", "183125.495000", "183125.498000", "183125.501000", "183125.504000", "183125.507000", "183125.510000", "183125.513000", "183125.516000", "183125.519000", "183125.521000", "183205.446000", "183205.449000", "183205.452000", "183205.455000", "183205.458000", "183205.460000", "183205.463000", "183205.466000", "183205.469000", "183205.472000", "183205.475000", "183205.478000", "183205.480000", "183205.483000", "183205.486000", "183205.489000", "183205.492000", "183205.495000", "183205.497000", "183205.500000", "183205.503000", "183205.506000", "183205.509000", "183205.512000", "183205.515000", "183205.517000", "183205.520000", "183245.446000", "183245.449000", "183245.452000", "183245.455000", "183245.457000", "183245.460000", "183245.463000", "183245.466000", "183245.469000", "183245.472000", "183245.474000", "183245.477000", "183245.480000", "183245.483000", "183245.486000", "183245.489000", "183245.491000", "183245.494000", "183245.497000", "183245.500000", "183245.503000", "183245.506000", "183245.508000", "183245.511000", "183245.514000", "183245.517000", "183245.520000", "183325.446000", "183325.449000", "183325.452000", "183325.454000", "183325.457000", "183325.460000", "183325.463000", "183325.466000", "183325.469000", "183325.472000", "183325.474000", "183325.477000", "183325.480000", "183325.483000", "183325.486000", "183325.489000", "183325.492000", "183325.495000", "183325.498000", "183325.501000", "183325.504000", "183325.506000", "183325.509000", "183325.512000", "183325.515000", "183325.518000", "183405.446000", "183405.449000", "183405.452000", "183405.455000", "183405.458000", "183405.461000", "183405.464000", "183405.466000", "183405.469000", "183405.472000", "183405.475000", "183405.478000", "183405.481000", "183405.484000", "183405.496000", "183405.499000", "183405.501000", "183405.504000", "183405.507000", "183405.510000", "183405.513000", "183405.516000", "183405.519000", "183405.522000", "183405.525000", "183405.527000", "183405.530000", "183445.446000", "183445.449000", "183445.452000", "183445.455000", "183445.458000", "183445.461000", "183445.464000", "183445.467000", "183445.470000", "183445.473000", "183445.476000", "183445.479000", "183445.481000", "183445.485000", "183445.487000", "183445.490000", "183445.493000", "183445.496000", "183445.499000", "183445.502000", "183445.511000", "183445.514000", "183445.517000", "183445.520000", "183445.522000", "183445.525000", "183445.528000", "183525.446000", "183525.449000", "183525.452000", "183525.455000", "183525.458000", "183525.461000", "183525.463000", "183525.466000", "183525.469000", "183525.472000", "183525.475000", "183525.478000", "183525.481000", "183525.484000", "183525.487000", "183525.490000", "183525.493000", "183525.495000", "183525.498000", "183525.501000", "183525.504000", "183525.507000", "183525.510000", "183525.513000", "183525.516000", "183525.519000", "183525.521000", "183605.446000", "183605.449000", "183605.452000", "183605.455000", "183605.458000", "183605.461000", "183605.464000", "183605.467000", "183605.469000", "183605.472000", "183605.475000", "183605.478000", "183605.481000", "183605.484000", "183605.487000", "183605.490000", "183605.493000", "183605.496000", "183605.498000", "183605.501000", "183605.504000", "183605.507000", "183605.510000", "183605.513000", "183605.516000", "183605.519000", "183605.522000", "183645.446000", "183645.449000", "183645.452000", "183645.455000", "183645.458000", "183645.461000", "183645.464000", "183645.467000", "183645.469000", "183645.472000", "183645.475000", "183645.478000", "183645.481000", "183645.484000", "183645.487000", "183645.490000", "183645.493000", "183645.495000", "183645.498000", "183645.501000", "183645.504000", "183645.507000", "183645.509000", "183645.525000", "183645.528000", "183645.530000", "183645.533000", "183651.244000", "183651.248000", "183651.251000", "183651.254000"],
