{
  "AcquisitionMatrixPE": 104,
  "AcquisitionNumber": 1,
  "AcquisitionTime": "15:33:2.795000",
  "BandwidthPerPixelPhaseEncode": 17.17,
  "BaseResolution": 104,
  "BodyPartExamined": "BRAIN",
  "CoilCombinationMethod": "Sum of Squares",
  "ConsistencyInfo": "N4_VE11C_LATEST_20160120",
  "ConversionSoftware": "dcm2niix",
  "ConversionSoftwareVersion": "v1.0.20211006",
  "DerivedVendorReportedEchoSpacing": 0.000560011,
  "DeviceSerialNumber": "167006",
  "DwellTime": 2.1e-06,
  "EchoTime": 0.037,
  "EchoTrainLength": 104,
  "EffectiveEchoSpacing": 0.000560011,
  "FlipAngle": 52,
  "HeudiconvVersion": "0.11.3.post9+gc939bf8",
  "ImageComments": "Unaliased MB4/PE3/LB",
  "ImageOrientationPatientDICOM": [0.998894, -0.035189, -0.0311789, 0.0221448, 0.937151, -0.348219],
  "ImageOrientationText": "Tra>Cor(-20.3)>Sag(-2.4)",
  "ImageType": [
    "ORIGINAL",
    "PRIMARY",
    "M",
    "MB",
    "ND",
    "MOSAIC"
],
  "ImagingFrequency": 123.258,
  "InPlanePhaseEncodingDirectionDICOM": "COL",
  "InstitutionAddress": "Chemin Queen-Mary 4565,Montreal,District,CA,H3W 1W5",
  "InstitutionName": "IUGM",
  "InstitutionalDepartmentName": "Department",
  "MRAcquisitionType": "2D",
  "MagneticFieldStrength": 3,
  "Manufacturer": "Siemens",
  "ManufacturersModelName": "Prisma_fit",
  "MatrixCoilMode": "SENSE",
  "Modality": "MR",
  "MultibandAccelerationFactor": 4,
  "PartialFourier": 1,
  "PatientPosition": "HFS",
  "PercentPhaseFOV": 100,
  "PercentSampling": 100,
  "PhaseEncodingDirection": "j",
  "PhaseEncodingSteps": 104,
  "PhaseResolution": 1,
  "PixelBandwidth": 2290,
  "ProcedureStepDescription": "video^friends",
  "ProtocolName": "func_task-friends-s06e05b",
  "PulseSequenceDetails": "%CustomerSeq%\\cmrr_mbep2d_bold",
  "ReceiveCoilActiveElements": "HC1-7;NC1,2",
  "ReceiveCoilName": "HeadNeck_64",
  "ReconMatrixPE": 104,
  "RepetitionTime": 1.49,
  "SAR": 0.036336,
  "ScanOptions": "FS",
  "ScanningSequence": "EP",
  "SequenceName": "epfid2d1_104",
  "SequenceVariant": "SK\\SS",
  "SeriesDescription": "func_task-friends-s06e05b",
  "SeriesNumber": 11,
  "ShimSetting": [616, -7247, -8818, 583, -9, -218, -59, -47],
  "SliceThickness": 2,
  "SliceTiming": [0, 0.7825, 0.0975, 0.88, 0.195, 0.98, 0.2925, 1.0775, 0.3925, 1.175, 0.49, 1.2725, 0.5875, 1.37, 0.685, 0, 0.7825, 0.0975, 0.88, 0.195, 0.98, 0.2925, 1.0775, 0.3925, 1.175, 0.49, 1.2725, 0.5875, 1.37, 0.685, 0, 0.7825, 0.0975, 0.88, 0.195, 0.98, 0.2925, 1.0775, 0.3925, 1.175, 0.49, 1.2725, 0.5875, 1.37, 0.685, 0, 0.7825, 0.0975, 0.88, 0.195, 0.98, 0.2925, 1.0775, 0.3925, 1.175, 0.49, 1.2725, 0.5875, 1.37, 0.685],
  "SoftwareVersions": "syngo MR E11",
  "SpacingBetweenSlices": 2,
  "StationName": "MRC35049",
  "TaskName": "s06e05b",
  "TotalReadoutTime": 0.0576811,
  "TxRefAmp": 231.179,
  "WipMemBlock": "1563bc8b-3904-4855-9fd3-d7b7fe2b8869||Sequence: R016 ve11c/master r/e634e98; Dec 19 2017 11:00:25 by eja",
  "dcmmeta_affine": [
    [-1.997788429260254, 0.04428961127996445, -0.08294560015201569, 101.78785705566406],
    [0.07037795335054398, 1.8743029832839966, -0.6942875981330872, -74.0470199584961],
    [-0.06235773116350174, 0.6964386701583862, 1.873788833618164, -64.44570922851562],
    [0.0, 0.0, 0.0, 1.0]
],
  "dcmmeta_reorient_transform": [
    [0.0, -1.0, 0.0, 103.0],
    [1.0, 0.0, 0.0, 0.0],
    [0.0, 0.0, 1.0, 0.0],
    [0.0, 0.0, 0.0, 1.0]
],
  "dcmmeta_shape": [104, 104, 60, 486],
  "dcmmeta_slice_dim": 2,
  "dcmmeta_version": 0.6,
  "global": {
    "const": {
      "AcquisitionMatrix": [104, 0, 0, 104],
      "AngioFlag": "N",
      "BitsAllocated": 16,
      "BitsStored": 16,
      "BodyPartExamined": "BRAIN",
      "Columns": 832,
      "EchoNumbers": 1,
      "EchoTime": 37.0,
      "EchoTrainLength": 104,
      "FlipAngle": 52.0,
      "HighBit": 15,
      "ImageOrientationPatient": [0.99889419574544, -0.0351889757402, -0.0311788661182, 0.02214480476171, 0.93715148450956, -0.3482193313181],
      "ImagePositionPatient": [-849.66607869481, -775.63488897639, 283.48935931848],
      "ImageType": [
        "ORIGINAL",
        "PRIMARY",
        "M",
        "MB",
        "ND",
        "MOSAIC"
],
      "ImagedNucleus": "1H",
      "ImagingFrequency": 123.258502,
      "InPlanePhaseEncodingDirection": "COL",
      "MRAcquisitionType": "2D",
      "MagneticFieldStrength": 3.0,
      "Manufacturer": "SIEMENS",
      "ManufacturerModelName": "Prisma_fit",
      "Modality": "MR",
      "NumberOfAverages": 1.0,
      "NumberOfPhaseEncodingSteps": 104,
      "PercentPhaseFieldOfView": 100.0,
      "PercentSampling": 100.0,
      "PerformedProcedureStepStartTime": "142649.603000",
      "PhotometricInterpretation": "MONOCHROME2",
      "PixelBandwidth": 2290.0,
      "PixelRepresentation": 0,
      "PixelSpacing": [2.0, 2.0],
      "ProtocolName": "func_task-friends-s06e05b",
      "RepetitionTime": 1490.0,
      "Rows": 832,
      "SAR": 0.03633600447431,
      "SamplesPerPixel": 1,
      "ScanOptions": "FS",
      "ScanningSequence": "EP",
      "SequenceName": "epfid2d1_104",
      "SequenceVariant": [
        "SK",
        "SS"
],
      "SeriesDescription": "func_task-friends-s06e05b",
      "SeriesNumber": 11,
      "SeriesTime": "153435.121000",
      "SliceLocation": -38.895288674895,
      "SliceThickness": 2.0,
      "SmallestImagePixelValue": 0,
      "SoftwareVersions": "syngo MR E11",
      "SpacingBetweenSlices": 1.99999994796,
      "SpecificCharacterSet": "ISO_IR 100",
      "StudyID": "1",
      "StudyTime": "142649.526000",
      "TransmitCoilName": "Body",
      "VariableFlipAngleFlag": "N",
      "WindowCenterWidthExplanation": "Algo1",
      "dBdt": 0.0},
    "slices": {}
  },
  "time": {
    "samples": {
      "AcquisitionNumber": [1, 2, 3, 4, 5, 6, 7, 8, 9, 10, 11, 12, 13, 14, 15, 16, 17, 18, 19, 20, 21, 22, 23, 24, 25, 26, 27, 28, 29, 30, 31, 32, 33, 34, 35, 36, 37, 38, 39, 40, 41, 42, 43, 44, 45, 46, 47, 48, 49, 50, 51, 52, 53, 54, 55, 56, 57, 58, 59, 60, 61, 62, 63, 64, 65, 66, 67, 68, 69, 70, 71, 72, 73, 74, 75, 76, 77, 78, 79, 80, 81, 82, 83, 84, 85, 86, 87, 88, 89, 90, 91, 92, 93, 94, 95, 96, 97, 98, 99, 100, 101, 102, 103, 104, 105, 106, 107, 108, 109, 110, 111, 112, 113, 114, 115, 116, 117, 118, 119, 120, 121, 122, 123, 124, 125, 126, 127, 128, 129, 130, 131, 132, 133, 134, 135, 136, 137, 138, 139, 140, 141, 142, 143, 144, 145, 146, 147, 148, 149, 150, 151, 152, 153, 154, 155, 156, 157, 158, 159, 160, 161, 162, 163, 164, 165, 166, 167, 168, 169, 170, 171, 172, 173, 174, 175, 176, 177, 178, 179, 180, 181, 182, 183, 184, 185, 186, 187, 188, 189, 190, 191, 192, 193, 194, 195, 196, 197, 198, 199, 200, 201, 202, 203, 204, 205, 206, 207, 208, 209, 210, 211, 212, 213, 214, 215, 216, 217, 218, 219, 220, 221, 222, 223, 224, 225, 226, 227, 228, 229, 230, 231, 232, 233, 234, 235, 236, 237, 238, 239, 240, 241, 242, 243, 244, 245, 246, 247, 248, 249, 250, 251, 252, 253, 254, 255, 256, 257, 258, 259, 260, 261, 262, 263, 264, 265, 266, 267, 268, 269, 270, 271, 272, 273, 274, 275, 276, 277, 278, 279, 280, 281, 282, 283, 284, 285, 286, 287, 288, 289, 290, 291, 292, 293, 294, 295, 296, 297, 298, 299, 300, 301, 302, 303, 304, 305, 306, 307, 308, 309, 310, 311, 312, 313, 314, 315, 316, 317, 318, 319, 320, 321, 322, 323, 324, 325, 326, 327, 328, 329, 330, 331, 332, 333, 334, 335, 336, 337, 338, 339, 340, 341, 342, 343, 344, 345, 346, 347, 348, 349, 350, 351, 352, 353, 354, 355, 356, 357, 358, 359, 360, 361, 362, 363, 364, 365, 366, 367, 368, 369, 370, 371, 372, 373, 374, 375, 376, 377, 378, 379, 380, 381, 382, 383, 384, 385, 386, 387, 388, 389, 390, 391, 392, 393, 394, 395, 396, 397, 398, 399, 400, 401, 402, 403, 404, 405, 406, 407, 408, 409, 410, 411, 412, 413, 414, 415, 416, 417, 418, 419, 420, 421, 422, 423, 424, 425, 426, 427, 428, 429, 430, 431, 432, 433, 434, 435, 436, 437, 438, 439, 440, 441, 442, 443, 444, 445, 446, 447, 448, 449, 450, 451, 452, 453, 454, 455, 456, 457, 458, 459, 460, 461, 462, 463, 464, 465, 466, 467, 468, 469, 470, 471, 472, 473, 474, 475, 476, 477, 478, 479, 480, 481, 482, 483, 484, 485, 486],
      "AcquisitionTime": ["153302.795000", "153304.285000", "153305.775000", "153307.265000", "153308.755000", "153310.245000", "153311.735000", "153313.225000", "153314.715000", "153316.205000", "153317.695000", "153319.185000", "153320.675000", "153322.165000", "153323.655000", "153325.145000", "153326.635000", "153328.125000", "153329.615000", "153331.105000", "153332.595000", "153334.085000", "153335.575000", "153337.065000", "153338.555000", "153340.045000", "153341.535000", "153343.025000", "153344.515000", "153346.005000", "153347.495000", "153348.985000", "153350.475000", "153351.965000", "153353.455000", "153354.945000", "153356.435000", "153357.925000", "153359.415000", "153400.905000", "153402.395000", "153403.885000", "153405.375000", "153406.865000", "153408.355000", "153409.845000", "153411.335000", "153412.825000", "153414.315000", "153415.805000", "153417.295000", "153418.785000", "153420.275000", "153421.765000", "153423.255000", "153424.745000", "153426.235000", "153427.725000", "153429.215000", "153430.705000", "153432.195000", "153433.685000", "153435.175000", "153436.665000", "153438.155000", "153439.645000", "153441.135000", "153442.625000", "153444.115000", "153445.605000", "153447.095000", "153448.585000", "153450.075000", "153451.565000", "153453.055000", "153454.545000", "153456.035000", "153457.525000", "153459.015000", "153500.505000", "153501.995000", "153503.485000", "153504.975000", "153506.465000", "153507.955000", "153509.445000", "153510.935000", "153512.425000", "153513.915000", "153515.405000", "153516.895000", "153518.385000", "153519.875000", "153521.365000", "153522.855000", "153524.345000", "153525.835000", "153527.325000", "153528.815000", "153530.305000", "153531.795000", "153533.285000", "153534.775000", "153536.265000", "153537.755000", "153539.245000", "153540.735000", "153542.225000", "153543.715000", "153545.205000", "153546.695000", "153548.185000", "153549.675000", "153551.165000", "153552.655000", "153554.145000", "153555.635000", "153557.125000", "153558.615000", "153600.105000", "153601.595000", "153603.085000", "153604.575000", "153606.065000", "153607.555000", "153609.045000", "153610.535000", "153612.025000", "153613.515000", "153615.005000", "153616.495000", "153617.985000", "153619.475000", "153620.965000", "153622.455000", "153623.945000", "153625.435000", "153626.925000", "153628.415000", "153629.905000", "153631.395000", "153632.885000", "153634.375000", "153635.865000", "153637.355000", "153638.845000", "153640.335000", "153641.825000", "153643.315000", "153644.805000", "153646.295000", "153647.785000", "153649.275000", "153650.765000", "153652.255000", "153653.745000", "153655.235000", "153656.725000", "153658.215000", "153659.705000", "153701.195000", "153702.685000", "153704.175000", "153705.665000", "153707.155000", "153708.645000", "153710.135000", "153711.625000", "153713.115000", "153714.605000", "153716.095000", "153717.585000", "153719.075000", "153720.565000", "153722.055000", "153723.545000", "153725.035000", "153726.525000", "153728.015000", "153729.505000", "153730.995000", "153732.485000", "153733.975000", "153735.465000", "153736.955000", "153738.445000", "153739.935000", "153741.425000", "153742.915000", "153744.405000", "153745.895000", "153747.385000", "153748.875000", "153750.365000", "153751.855000", "153753.345000", "153754.835000", "153756.325000", "153757.815000", "153759.305000", "153800.795000", "153802.285000", "153803.775000", "153805.265000", "153806.755000", "153808.245000", "153809.735000", "153811.225000", "153812.715000", "153814.205000", "153815.695000", "153817.185000", "153818.675000", "153820.165000", "153821.655000", "153823.145000", "153824.635000", "153826.125000", "153827.615000", "153829.105000", "153830.595000", "153832.085000", "153833.575000", "153835.065000", "153836.555000", "153838.045000", "153839.535000", "153841.025000", "153842.515000", "153844.005000", "153845.495000", "153846.985000", "153848.475000", "153849.965000", "153851.455000", "153852.945000", "153854.435000", "153855.925000", "153857.415000", "153858.905000", "153900.395000", "153901.885000", "153903.375000", "153904.865000", "153906.355000", "153907.845000", "153909.335000", "153910.825000", "153912.315000", "153913.805000", "153915.295000", "153916.785000", "153918.275000", "153919.765000", "153921.255000", "153922.745000", "153924.235000", "153925.725000", "153927.215000", "153928.705000", "153930.195000", "153931.685000", "153933.175000", "153934.665000", "153936.155000", "153937.645000", "153939.135000", "153940.625000", "153942.115000", "153943.605000", "153945.095000", "153946.585000", "153948.075000", "153949.565000", "153951.055000", "153952.545000", "153954.035000", "153955.525000", "153957.015000", "153958.505000", "153959.995000", "154001.485000", "154002.975000", "154004.465000", "154005.955000", "154007.445000", "154008.935000", "154010.425000", "154011.915000", "154013.405000", "154014.895000", "154016.385000", "154017.875000", "154019.365000", "154020.855000", "154022.345000", "154023.835000", "154025.325000", "154026.815000", "154028.305000", "154029.795000", "154031.285000", "154032.775000", "154034.265000", "154035.755000", "154037.245000", "154038.735000", "154040.225000", "154041.715000", "154043.205000", "154044.695000", "154046.185000", "154047.675000", "154049.165000", "154050.655000", "154052.145000", "154053.635000", "154055.125000", "154056.615000", "154058.105000", "154059.595000", "154101.085000", "154102.575000", "154104.065000", "154105.555000", "154107.045000", "154108.535000", "154110.025000", "154111.515000", "154113.005000", "154114.495000", "154115.985000", "154117.475000", "154118.965000", "154120.455000", "154121.945000", "154123.435000", "154124.925000", "154126.415000", "154127.905000", "154129.395000", "154130.885000", "154132.375000", "154133.865000", "154135.355000", "154136.845000", "154138.335000", "154139.825000", "154141.315000", "154142.805000", "154144.295000", "154145.785000", "154147.275000", "154148.765000", "154150.255000", "154151.745000", "154153.235000", "154154.725000", "154156.215000", "154157.705000", "154159.195000", "154200.685000", "154202.175000", "154203.665000", "154205.155000", "154206.645000", "154208.135000", "154209.625000", "154211.115000", "154212.605000", "154214.095000", "154215.585000", "154217.075000", "154218.565000", "154220.055000", "154221.545000", "154223.035000", "154224.525000", "154226.015000", "154227.505000", "154228.995000", "154230.485000", "154231.975000", "154233.465000", "154234.955000", "154236.445000", "154237.935000", "154239.425000", "154240.915000", "154242.405000", "154243.895000", "154245.385000", "154246.875000", "154248.365000", "154249.855000", "154251.345000", "154252.835000", "154254.325000", "154255.815000", "154257.305000", "154258.795000", "154300.285000", "154301.775000", "154303.265000", "154304.755000", "154306.245000", "154307.735000", "154309.225000", "154310.715000", "154312.205000", "154313.695000", "154315.185000", "154316.675000", "154318.165000", "154319.655000", "154321.145000", "154322.635000", "154324.125000", "154325.615000", "154327.105000", "154328.595000", "154330.085000", "154331.575000", "154333.065000", "154334.555000", "154336.045000", "154337.535000", "154339.025000", "154340.515000", "154342.005000", "154343.495000", "154344.985000", "154346.475000", "154347.965000", "154349.455000", "154350.945000", "154352.435000", "154353.925000", "154355.415000", "154356.905000", "154358.395000", "154359.885000", "154401.375000", "154402.865000", "154404.355000", "154405.845000", "154407.335000", "154408.825000", "154410.315000", "154411.805000", "154413.295000", "154414.785000", "154416.275000", "154417.765000", "154419.255000", "154420.745000", "154422.235000", "154423.725000", "154425.215000", "154426.705000", "154428.195000", "154429.685000", "154431.175000", "154432.665000", "154434.155000", "154435.645000", "154437.135000", "154438.625000", "154440.115000", "154441.605000", "154443.095000", "154444.585000", "154446.075000", "154447.565000", "154449.055000", "154450.545000", "154452.035000", "154453.525000", "154455.015000", "154456.505000", "154457.995000", "154459.485000", "154500.975000", "154502.465000", "154503.955000", "154505.445000"],
      "ContentTime": ["153435.124000", "153435.127000", "153435.130000", "153435.133000", "153435.135000", "153435.138000", "153435.141000", "153435.144000", "153435.147000", "153435.150000", "153435.153000", "153435.155000", "153435.165000", "153435.168000", "153435.171000", "153435.174000", "153435.176000", "153435.179000", "153435.182000", "153435.185000", "153435.188000", "153435.191000", "153435.194000", "153435.196000", "153435.199000", "153435.202000", "153435.214000", "153435.216000", "153435.219000", "153435.222000", "153435.225000", "153435.228000", "153435.231000", "153435.234000", "153435.237000", "153435.239000", "153435.242000", "153435.245000", "153455.094000", "153455.097000", "153455.100000", "153455.103000", "153455.106000", "153455.108000", "153455.111000", "153455.114000", "153455.117000", "153455.120000", "153455.123000", "153455.126000", "153455.128000", "153455.140000", "153455.142000", "153455.145000", "153455.148000", "153455.156000", "153455.164000", "153455.166000", "153515.094000", "153515.097000", "153515.100000", "153515.104000", "153515.107000", "153515.110000", "153515.113000", "153515.116000", "153515.119000", "153515.121000", "153515.124000", "153515.127000", "153515.130000", "153515.133000", "153515.136000", "153515.139000", "153515.142000", "153515.144000", "153515.147000", "153515.150000", "153535.094000", "153535.097000", "153535.100000", "153535.103000", "153535.105000", "153535.108000", "153535.111000", "153535.114000", "153535.117000", "153535.120000", "153535.122000", "153535.125000", "153535.128000", "153535.131000", "153535.134000", "153535.137000", "153535.140000", "153535.142000", "153535.145000", "153535.148000", "153535.151000", "153615.095000", "153615.098000", "153615.101000", "153615.104000", "153615.107000", "153615.110000", "153615.112000", "153615.115000", "153615.118000", "153615.121000", "153615.124000", "153615.127000", "153615.129000", "153615.132000", "153615.135000", "153615.138000", "153615.141000", "153615.144000", "153615.147000", "153615.149000", "153615.152000", "153615.155000", "153615.158000", "153615.161000", "153615.164000", "153615.166000", "153615.170000", "153615.173000", "153615.176000", "153655.094000", "153655.097000", "153655.100000", "153655.103000", "153655.106000", "153655.119000", "153655.122000", "153655.125000", "153655.128000", "153655.131000", "153655.134000", "153655.136000", "153655.139000", "153655.142000", "153655.145000", "153655.148000", "153655.151000", "153655.154000", "153655.156000", "153655.159000", "153655.162000", "153655.165000", "153655.168000", "153655.171000", "153655.173000", "153655.176000", "153655.179000", "153735.094000", "153735.097000", "153735.100000", "153735.103000", "153735.106000", "153735.109000", "153735.112000", "153735.114000", "153735.117000", "153735.120000", "153735.123000", "153735.126000", "153735.129000", "153735.132000", "153735.135000", "153735.137000", "153735.140000", "153735.143000", "153735.146000", "153735.149000", "153735.152000", "153735.155000", "153735.167000", "153735.170000", "153735.173000", "153735.175000", "153735.178000", "153815.095000", "153815.098000", "153815.101000", "153815.104000", "153815.107000", "153815.109000", "153815.112000", "153815.115000", "153815.118000", "153815.121000", "153815.124000", "153815.127000", "153815.129000", "153815.132000", "153815.135000", "153815.138000", "153815.141000", "153815.144000", "153815.147000", "153815.149000", "153815.152000", "153815.155000", "153815.158000", "153815.161000", "153815.164000", "153815.168000", "153855.094000", "153855.097000", "153855.100000", "153855.103000", "153855.106000", "153855.109000", "153855.111000", "153855.114000", "153855.117000", "153855.120000", "153855.123000", "153855.126000", "153855.129000", "153855.132000", "153855.134000", "153855.137000", "153855.140000", "153855.143000", "153855.146000", "153855.149000", "153855.151000", "153855.154000", "153855.157000", "153855.160000", "153855.163000", "153855.166000", "153855.169000", "153935.094000", "153935.097000", "153935.100000", "153935.103000", "153935.106000", "153935.109000", "153935.111000", "153935.114000", "153935.117000", "153935.120000", "153935.123000", "153935.126000", "153935.139000", "153935.142000", "153935.144000", "153935.147000", "153935.150000", "153935.153000", "153935.156000", "153935.159000", "153935.162000", "153935.164000", "153935.167000", "153935.170000", "153935.173000", "153935.176000", "153935.179000", "154015.094000", "154015.097000", "154015.100000", "154015.103000", "154015.106000", "154015.109000", "154015.111000", "154015.114000", "154015.117000", "154015.120000", "154015.123000", "154015.126000", "154015.129000", "154015.131000", "154015.134000", "154015.137000", "154015.140000", "154015.143000", "154015.146000", "154015.148000", "154015.151000", "154015.154000", "154015.157000", "154015.160000", "154015.163000", "154015.166000", "154015.168000", "154055.095000", "154055.098000", "154055.111000", "154055.114000", "154055.117000", "154055.120000", "154055.123000", "154055.126000", "154055.129000", "154055.132000", "154055.135000", "154055.138000", "154055.140000", "154055.143000", "154055.146000", "154055.149000", "154055.152000", "154055.155000", "154055.158000", "154055.161000", "154055.164000", "154055.166000", "154055.169000", "154055.172000", "154055.175000", "154055.178000", "154055.181000", "154135.094000", "154135.097000", "154135.100000", "154135.103000", "154135.106000", "154135.109000", "154135.112000", "154135.114000", "154135.117000", "154135.120000", "154135.123000", "154135.126000", "154135.129000", "154135.132000", "154135.134000", "154135.137000", "154135.140000", "154135.143000", "154135.146000", "154135.149000", "154135.152000", "154135.154000", "154135.157000", "154135.160000", "154135.163000", "154135.166000", "154135.169000", "154215.094000", "154215.097000", "154215.100000", "154215.103000", "154215.106000", "154215.109000", "154215.112000", "154215.115000", "154215.117000", "154215.120000", "154215.123000", "154215.126000", "154215.129000", "154215.132000", "154215.135000", "154215.137000", "154215.140000", "154215.143000", "154215.146000", "154215.149000", "154215.152000", "154215.155000", "154215.157000", "154215.161000", "154215.163000", "154215.167000", "154255.095000", "154255.098000", "154255.101000", "154255.104000", "154255.107000", "154255.110000", "154255.112000", "154255.115000", "154255.118000", "154255.121000", "154255.124000", "154255.127000", "154255.130000", "154255.133000", "154255.135000", "154255.138000", "154255.141000", "154255.144000", "154255.147000", "154255.150000", "154255.153000", "154255.156000", "154255.158000", "154255.161000", "154255.165000", "154255.168000", "154255.171000", "154335.094000", "154335.097000", "154335.100000", "154335.103000", "154335.106000", "154335.109000", "154335.111000", "154335.114000", "154335.117000", "154335.120000", "154335.123000", "154335.126000", "154335.129000", "154335.132000", "154335.134000", "154335.137000", "154335.140000", "154335.143000", "154335.146000", "154335.149000", "154335.152000", "154335.154000", "154335.157000", "154335.160000", "154335.163000", "154335.166000", "154335.169000", "154415.094000", "154415.097000", "154415.100000", "154415.103000", "154415.106000", "154415.109000", "154415.111000", "154415.114000", "154415.133000", "154415.136000", "154415.139000", "154415.142000", "154415.144000", "154415.147000", "154415.150000", "154415.153000", "154415.156000", "154415.159000", "154415.162000", "154415.164000", "154415.167000", "154415.170000", "154415.173000", "154415.176000", "154415.179000", "154415.182000", "154415.185000", "154455.094000", "154455.097000", "154455.100000", "154455.103000", "154455.106000", "154455.108000", "154455.111000", "154455.119000", "154455.122000", "154455.125000", "154455.128000", "154455.131000", "154455.133000", "154455.136000", "154455.139000", "154455.142000", "154455.145000", "154455.148000", "154455.150000", "154455.153000", "154455.156000", "154455.159000", "154455.162000", "154455.165000", "154455.168000", "154455.171000", "154455.174000", "154508.079000", "154508.082000", "154508.085000", "154508.088000", "154508.091000", "154508.094000", "154508.097000", "154508.100000", "154508.103000"],
