{
  "AcquisitionMatrixPE": 104,
  "AcquisitionNumber": 1,
  "AcquisitionTime": "10:12:42.757500",
  "BandwidthPerPixelPhaseEncode": 17.17,
  "BaseResolution": 104,
  "BodyPartExamined": "BRAIN",
  "CoilString": "HC1-7;NC1_2",
  "ConsistencyInfo": "N4_VE11C_LATEST_20160120",
  "ConversionSoftware": "dcm2niix",
  "ConversionSoftwareVersion": "v1.0.20190902",
  "DerivedVendorReportedEchoSpacing": 0.000560011,
  "DeviceSerialNumber": "167006",
  "DwellTime": 2.1e-06,
  "EchoTime": 0.037,
  "EchoTrainLength": 104,
  "EffectiveEchoSpacing": 0.000560011,
  "FlipAngle": 52,
  "ImageComments": "Unaliased_MB4_PE3_LB",
  "ImageOrientationPatientDICOM": [0.998617, 0.0430631, 0.0301552, -0.0312083, 0.947192, -0.319145],
  "ImageType": [
    "ORIGINAL",
    "PRIMARY",
    "M",
    "MB",
    "ND",
    "MOSAIC"
],
  "ImagingFrequency": 123.259,
  "InPlanePhaseEncodingDirectionDICOM": "COL",
  "InstitutionAddress": "Chemin_Queen-Mary_4565_Montreal_District_CA_H3W_1W5",
  "InstitutionName": "IUGM",
  "InstitutionalDepartmentName": "Department",
  "MRAcquisitionType": "2D",
  "MagneticFieldStrength": 3,
  "Manufacturer": "Siemens",
  "ManufacturersModelName": "Prisma_fit",
  "Modality": "MR",
  "MultibandAccelerationFactor": 4,
  "PartialFourier": 1,
  "PatientPosition": "HFS",
  "PercentPhaseFOV": 100,
  "PhaseEncodingDirection": "j",
  "PhaseEncodingSteps": 104,
  "PhaseResolution": 1,
  "PixelBandwidth": 2290,
  "ProcedureStepDescription": "video_friends",
  "ProtocolName": "func_task-friends-s04e20b",
  "PulseSequenceDetails": "%CustomerSeq%_cmrr_mbep2d_bold",
  "ReceiveCoilActiveElements": "HC1-7;NC1,2",
  "ReceiveCoilName": "HeadNeck_64",
  "ReconMatrixPE": 104,
  "RepetitionTime": 1.49,
  "SAR": 0.0419565,
  "ScanOptions": "FS",
  "ScanningSequence": "EP",
  "SequenceName": "epfid2d1_104",
  "SequenceVariant": "SK_SS",
  "SeriesDescription": "func_task-friends-s04e20b",
  "SeriesNumber": 11,
  "ShimSetting": [643, -7223, -8825, 661, 92, -85, 62, -15],
  "SliceThickness": 2,
  "SliceTiming": [0, 0.785, 0.0975, 0.8825, 0.195, 0.98, 0.295, 1.0775, 0.3925, 1.175, 0.49, 1.275, 0.5875, 1.3725, 0.685, 0, 0.785, 0.0975, 0.8825, 0.195, 0.98, 0.295, 1.0775, 0.3925, 1.175, 0.49, 1.275, 0.5875, 1.3725, 0.685, 0, 0.785, 0.0975, 0.8825, 0.195, 0.98, 0.295, 1.0775, 0.3925, 1.175, 0.49, 1.275, 0.5875, 1.3725, 0.685, 0, 0.785, 0.0975, 0.8825, 0.195, 0.98, 0.295, 1.0775, 0.3925, 1.175, 0.49, 1.275, 0.5875, 1.3725, 0.685],
  "SoftwareVersions": "syngo_MR_E11",
  "SpacingBetweenSlices": 2,
  "StationName": "MRC35049",
  "TaskName": "s04e20b",
  "TotalReadoutTime": 0.0576811,
  "TxRefAmp": 252.422,
  "WipMemBlock": "925ddbb7-fc8f-4b3a-aba4-ece1d2ff1277||Sequence: R016 ve11c/master r/e634e98; Dec 19 2017 11:00:25 by eja",
  "dcmmeta_affine": [
    [-1.9972343444824219, -0.062416668981313705, 0.08461231738328934, 104.58482360839844],
    [-0.08612626791000366, 1.8943840265274048, -0.6355243921279907, -67.08485412597656],
    [0.06031045690178871, 0.638289213180542, 1.8944523334503174, -58.37387466430664],
    [0.0, 0.0, 0.0, 1.0]
],
  "dcmmeta_reorient_transform": [
    [0.0, -1.0, 0.0, 103.0],
    [1.0, 0.0, 0.0, 0.0],
    [0.0, 0.0, 1.0, 0.0],
    [0.0, 0.0, 0.0, 1.0]
],
  "dcmmeta_shape": [104, 104, 60, 447],
  "dcmmeta_slice_dim": 2,
  "dcmmeta_version": 0.6,
  "global": {
    "const": {
      "AcquisitionMatrix": [104, 0, 0, 104],
      "AngioFlag": "N",
      "BitsAllocated": 16,
      "BitsStored": 16,
      "BodyPartExamined": "BRAIN",
      "Columns": 832,
      "EchoNumbers": 1,
      "EchoTime": 37.0,
      "EchoTrainLength": 104,
      "FlipAngle": 52.0,
      "HighBit": 15,
      "ImageOrientationPatient": [0.99861715824899, 0.0430631331903, 0.03015522857733, -0.0312083348217, 0.94719204139644, -0.3191446013219],
      "ImagePositionPatient": [-802.42953145898, -848.94247615461, 217.75417582365],
      "ImageType": [
        "ORIGINAL",
        "PRIMARY",
        "M",
        "MB",
        "ND",
        "MOSAIC"
],
      "ImagedNucleus": "1H",
      "ImagingFrequency": 123.258987,
      "InPlanePhaseEncodingDirection": "COL",
      "MRAcquisitionType": "2D",
      "MagneticFieldStrength": 3.0,
      "Manufacturer": "SIEMENS",
      "ManufacturerModelName": "Prisma_fit",
      "Modality": "MR",
      "NumberOfAverages": 1.0,
      "NumberOfPhaseEncodingSteps": 104,
      "PercentPhaseFieldOfView": 100.0,
      "PercentSampling": 100.0,
      "PerformedProcedureStepStartTime": "095258.540000",
      "PhotometricInterpretation": "MONOCHROME2",
      "PixelBandwidth": 2290.0,
      "PixelRepresentation": 0,
      "PixelSpacing": [2.0, 2.0],
      "ProtocolName": "func_task-friends-s04e20b",
      "RepetitionTime": 1490.0,
      "Rows": 832,
      "SAR": 0.04195653891594,
      "SamplesPerPixel": 1,
      "ScanOptions": "FS",
      "ScanningSequence": "EP",
      "SequenceName": "epfid2d1_104",
      "SequenceVariant": [
        "SK",
        "SS"
],
      "SeriesDescription": "func_task-friends-s04e20b",
      "SeriesNumber": 11,
      "SeriesTime": "101355.162000",
      "SliceLocation": -29.55165055197,
      "SliceThickness": 2.0,
      "SmallestImagePixelValue": 0,
      "SoftwareVersions": "syngo MR E11",
      "SpacingBetweenSlices": 2.0000000547353,
      "SpecificCharacterSet": "ISO_IR 100",
      "StudyID": "1",
      "StudyTime": "095258.460000",
      "TransmitCoilName": "Body",
      "VariableFlipAngleFlag": "N",
      "WindowCenterWidthExplanation": "Algo1",
      "dBdt": 0.0},
    "slices": {}
  },
  "time": {
    "samples": {
      "AcquisitionNumber": [1, 2, 3, 4, 5, 6, 7, 8, 9, 10, 11, 12, 13, 14, 15, 16, 17, 18, 19, 20, 21, 22, 23, 24, 25, 26, 27, 28, 29, 30, 31, 32, 33, 34, 35, 36, 37, 38, 39, 40, 41, 42, 43, 44, 45, 46, 47, 48, 49, 50, 51, 52, 53, 54, 55, 56, 57, 58, 59, 60, 61, 62, 63, 64, 65, 66, 67, 68, 69, 70, 71, 72, 73, 74, 75, 76, 77, 78, 79, 80, 81, 82, 83, 84, 85, 86, 87, 88, 89, 90, 91, 92, 93, 94, 95, 96, 97, 98, 99, 100, 101, 102, 103, 104, 105, 106, 107, 108, 109, 110, 111, 112, 113, 114, 115, 116, 117, 118, 119, 120, 121, 122, 123, 124, 125, 126, 127, 128, 129, 130, 131, 132, 133, 134, 135, 136, 137, 138, 139, 140, 141, 142, 143, 144, 145, 146, 147, 148, 149, 150, 151, 152, 153, 154, 155, 156, 157, 158, 159, 160, 161, 162, 163, 164, 165, 166, 167, 168, 169, 170, 171, 172, 173, 174, 175, 176, 177, 178, 179, 180, 181, 182, 183, 184, 185, 186, 187, 188, 189, 190, 191, 192, 193, 194, 195, 196, 197, 198, 199, 200, 201, 202, 203, 204, 205, 206, 207, 208, 209, 210, 211, 212, 213, 214, 215, 216, 217, 218, 219, 220, 221, 222, 223, 224, 225, 226, 227, 228, 229, 230, 231, 232, 233, 234, 235, 236, 237, 238, 239, 240, 241, 242, 243, 244, 245, 246, 247, 248, 249, 250, 251, 252, 253, 254, 255, 256, 257, 258, 259, 260, 261, 262, 263, 264, 265, 266, 267, 268, 269, 270, 271, 272, 273, 274, 275, 276, 277, 278, 279, 280, 281, 282, 283, 284, 285, 286, 287, 288, 289, 290, 291, 292, 293, 294, 295, 296, 297, 298, 299, 300, 301, 302, 303, 304, 305, 306, 307, 308, 309, 310, 311, 312, 313, 314, 315, 316, 317, 318, 319, 320, 321, 322, 323, 324, 325, 326, 327, 328, 329, 330, 331, 332, 333, 334, 335, 336, 337, 338, 339, 340, 341, 342, 343, 344, 345, 346, 347, 348, 349, 350, 351, 352, 353, 354, 355, 356, 357, 358, 359, 360, 361, 362, 363, 364, 365, 366, 367, 368, 369, 370, 371, 372, 373, 374, 375, 376, 377, 378, 379, 380, 381, 382, 383, 384, 385, 386, 387, 388, 389, 390, 391, 392, 393, 394, 395, 396, 397, 398, 399, 400, 401, 402, 403, 404, 405, 406, 407, 408, 409, 410, 411, 412, 413, 414, 415, 416, 417, 418, 419, 420, 421, 422, 423, 424, 425, 426, 427, 428, 429, 430, 431, 432, 433, 434, 435, 436, 437, 438, 439, 440, 441, 442, 443, 444, 445, 446, 447],
      "AcquisitionTime": ["101242.757500", "101244.247500", "101245.737500", "101247.227500", "101248.717500", "101250.207500", "101251.697500", "101253.187500", "101254.677500", "101256.167500", "101257.657500", "101259.147500", "101300.637500", "101302.127500", "101303.617500", "101305.107500", "101306.597500", "101308.087500", "101309.577500", "101311.067500", "101312.557500", "101314.047500", "101315.537500", "101317.027500", "101318.517500", "101320.007500", "101321.497500", "101322.987500", "101324.477500", "101325.967500", "101327.457500", "101328.947500", "101330.437500", "101331.927500", "101333.417500", "101334.907500", "101336.397500", "101337.887500", "101339.377500", "101340.867500", "101342.357500", "101343.847500", "101345.337500", "101346.827500", "101348.317500", "101349.807500", "101351.297500", "101352.787500", "101354.277500", "101355.767500", "101357.257500", "101358.747500", "101400.237500", "101401.727500", "101403.217500", "101404.707500", "101406.197500", "101407.687500", "101409.177500", "101410.667500", "101412.157500", "101413.647500", "101415.137500", "101416.627500", "101418.117500", "101419.607500", "101421.097500", "101422.587500", "101424.077500", "101425.567500", "101427.057500", "101428.547500", "101430.037500", "101431.527500", "101433.017500", "101434.507500", "101435.997500", "101437.487500", "101438.977500", "101440.467500", "101441.957500", "101443.447500", "101444.937500", "101446.427500", "101447.917500", "101449.407500", "101450.897500", "101452.387500", "101453.877500", "101455.367500", "101456.857500", "101458.347500", "101459.837500", "101501.327500", "101502.817500", "101504.307500", "101505.797500", "101507.287500", "101508.777500", "101510.267500", "101511.757500", "101513.247500", "101514.737500", "101516.227500", "101517.717500", "101519.207500", "101520.697500", "101522.187500", "101523.677500", "101525.167500", "101526.657500", "101528.147500", "101529.637500", "101531.127500", "101532.617500", "101534.107500", "101535.597500", "101537.087500", "101538.577500", "101540.067500", "101541.557500", "101543.047500", "101544.537500", "101546.027500", "101547.517500", "101549.007500", "101550.497500", "101551.987500", "101553.477500", "101554.967500", "101556.457500", "101557.947500", "101559.437500", "101600.927500", "101602.417500", "101603.907500", "101605.397500", "101606.887500", "101608.377500", "101609.867500", "101611.357500", "101612.847500", "101614.337500", "101615.827500", "101617.317500", "101618.807500", "101620.297500", "101621.787500", "101623.277500", "101624.767500", "101626.257500", "101627.747500", "101629.237500", "101630.727500", "101632.217500", "101633.707500", "101635.197500", "101636.687500", "101638.177500", "101639.667500", "101641.157500", "101642.647500", "101644.137500", "101645.627500", "101647.117500", "101648.607500", "101650.097500", "101651.587500", "101653.077500", "101654.567500", "101656.057500", "101657.547500", "101659.037500", "101700.527500", "101702.017500", "101703.507500", "101704.997500", "101706.487500", "101707.977500", "101709.467500", "101710.957500", "101712.447500", "101713.937500", "101715.427500", "101716.917500", "101718.407500", "101719.897500", "101721.387500", "101722.877500", "101724.367500", "101725.857500", "101727.347500", "101728.837500", "101730.327500", "101731.817500", "101733.307500", "101734.797500", "101736.287500", "101737.777500", "101739.267500", "101740.757500", "101742.247500", "101743.737500", "101745.227500", "101746.717500", "101748.207500", "101749.697500", "101751.187500", "101752.677500", "101754.167500", "101755.657500", "101757.147500", "101758.637500", "101800.127500", "101801.617500", "101803.107500", "101804.597500", "101806.087500", "101807.577500", "101809.067500", "101810.557500", "101812.047500", "101813.537500", "101815.027500", "101816.517500", "101818.007500", "101819.497500", "101820.987500", "101822.477500", "101823.967500", "101825.457500", "101826.947500", "101828.437500", "101829.927500", "101831.417500", "101832.907500", "101834.397500", "101835.887500", "101837.377500", "101838.867500", "101840.357500", "101841.847500", "101843.337500", "101844.827500", "101846.317500", "101847.807500", "101849.297500", "101850.787500", "101852.277500", "101853.767500", "101855.257500", "101856.747500", "101858.237500", "101859.727500", "101901.217500", "101902.707500", "101904.197500", "101905.687500", "101907.177500", "101908.667500", "101910.157500", "101911.647500", "101913.137500", "101914.627500", "101916.117500", "101917.607500", "101919.097500", "101920.587500", "101922.077500", "101923.567500", "101925.057500", "101926.547500", "101928.037500", "101929.527500", "101931.017500", "101932.507500", "101933.997500", "101935.487500", "101936.977500", "101938.467500", "101939.957500", "101941.447500", "101942.937500", "101944.427500", "101945.917500", "101947.407500", "101948.897500", "101950.387500", "101951.877500", "101953.367500", "101954.857500", "101956.347500", "101957.837500", "101959.327500", "102000.817500", "102002.307500", "102003.797500", "102005.287500", "102006.777500", "102008.267500", "102009.757500", "102011.247500", "102012.737500", "102014.227500", "102015.717500", "102017.207500", "102018.697500", "102020.187500", "102021.677500", "102023.167500", "102024.657500", "102026.147500", "102027.637500", "102029.127500", "102030.617500", "102032.107500", "102033.597500", "102035.087500", "102036.577500", "102038.067500", "102039.557500", "102041.047500", "102042.537500", "102044.027500", "102045.517500", "102047.007500", "102048.497500", "102049.987500", "102051.477500", "102052.967500", "102054.457500", "102055.947500", "102057.437500", "102058.927500", "102100.417500", "102101.907500", "102103.397500", "102104.887500", "102106.377500", "102107.867500", "102109.357500", "102110.847500", "102112.337500", "102113.827500", "102115.317500", "102116.807500", "102118.297500", "102119.787500", "102121.277500", "102122.767500", "102124.257500", "102125.747500", "102127.237500", "102128.727500", "102130.217500", "102131.707500", "102133.197500", "102134.687500", "102136.177500", "102137.667500", "102139.157500", "102140.647500", "102142.137500", "102143.627500", "102145.117500", "102146.607500", "102148.097500", "102149.587500", "102151.077500", "102152.567500", "102154.057500", "102155.547500", "102157.037500", "102158.527500", "102200.017500", "102201.507500", "102202.997500", "102204.487500", "102205.977500", "102207.467500", "102208.957500", "102210.447500", "102211.937500", "102213.427500", "102214.917500", "102216.407500", "102217.897500", "102219.387500", "102220.877500", "102222.367500", "102223.857500", "102225.347500", "102226.837500", "102228.327500", "102229.817500", "102231.307500", "102232.797500", "102234.287500", "102235.777500", "102237.267500", "102238.757500", "102240.247500", "102241.737500", "102243.227500", "102244.717500", "102246.207500", "102247.697500", "102249.187500", "102250.677500", "102252.167500", "102253.657500", "102255.147500", "102256.637500", "102258.127500", "102259.617500", "102301.107500", "102302.597500", "102304.087500", "102305.577500", "102307.067500", "102308.557500", "102310.047500", "102311.537500", "102313.027500", "102314.517500", "102316.007500", "102317.497500", "102318.987500", "102320.477500", "102321.967500", "102323.457500", "102324.947500", "102326.437500", "102327.927500", "102329.417500", "102330.907500", "102332.397500", "102333.887500", "102335.377500", "102336.867500", "102338.357500", "102339.847500", "102341.337500", "102342.827500", "102344.317500", "102345.807500", "102347.297500"],
      "ContentTime": ["101355.165000", "101355.168000", "101355.171000", "101355.174000", "101355.177000", "101355.179000", "101355.182000", "101355.185000", "101355.188000", "101355.191000", "101355.193000", "101355.196000", "101355.199000", "101355.202000", "101355.205000", "101355.213000", "101355.216000", "101415.128000", "101415.131000", "101415.135000", "101415.138000", "101415.141000", "101415.143000", "101415.146000", "101415.149000", "101415.152000", "101415.155000", "101415.157000", "101415.160000", "101415.163000", "101415.166000", "101415.169000", "101415.171000", "101415.174000", "101415.177000", "101415.180000", "101415.182000", "101435.128000", "101435.131000", "101435.134000", "101435.136000", "101435.139000", "101435.142000", "101435.145000", "101435.148000", "101435.150000", "101435.153000", "101435.160000", "101435.163000", "101435.166000", "101435.168000", "101435.171000", "101435.174000", "101435.177000", "101435.180000", "101435.182000", "101435.185000", "101455.128000", "101455.131000", "101455.134000", "101455.136000", "101455.139000", "101455.142000", "101455.145000", "101455.147000", "101455.150000", "101455.153000", "101455.156000", "101455.159000", "101455.162000", "101455.164000", "101455.167000", "101455.170000", "101455.173000", "101455.176000", "101455.178000", "101455.181000", "101515.128000", "101515.131000", "101515.134000", "101515.136000", "101515.139000", "101515.142000", "101515.145000", "101515.147000", "101515.150000", "101515.153000", "101515.156000", "101515.159000", "101515.161000", "101515.164000", "101515.167000", "101515.170000", "101515.173000", "101515.176000", "101515.178000", "101515.181000", "101555.128000", "101555.131000", "101555.134000", "101555.137000", "101555.139000", "101555.142000", "101555.145000", "101555.148000", "101555.151000", "101555.154000", "101555.156000", "101555.159000", "101555.162000", "101555.165000", "101555.168000", "101555.170000", "101555.173000", "101555.176000", "101555.179000", "101555.181000", "101555.184000", "101555.256000", "101555.259000", "101555.262000", "101555.265000", "101555.268000", "101555.271000", "101555.273000", "101555.276000", "101555.279000", "101555.282000", "101635.128000", "101635.131000", "101635.133000", "101635.136000", "101635.139000", "101635.142000", "101635.145000", "101635.148000", "101635.151000", "101635.153000", "101635.156000", "101635.159000", "101635.162000", "101635.164000", "101635.167000", "101635.170000", "101635.173000", "101635.176000", "101635.178000", "101635.181000", "101635.184000", "101635.187000", "101635.190000", "101635.192000", "101635.195000", "101635.198000", "101635.201000", "101715.128000", "101715.131000", "101715.133000", "101715.136000", "101715.139000", "101715.149000", "101715.151000", "101715.154000", "101715.157000", "101715.160000", "101715.163000", "101715.166000", "101715.168000", "101715.171000", "101715.174000", "101715.177000", "101715.179000", "101715.182000", "101715.185000", "101715.188000", "101715.191000", "101715.194000", "101715.196000", "101715.199000", "101715.202000", "101715.205000", "101715.208000", "101755.128000", "101755.131000", "101755.134000", "101755.137000", "101755.139000", "101755.142000", "101755.145000", "101755.148000", "101755.151000", "101755.153000", "101755.156000", "101755.159000", "101755.162000", "101755.165000", "101755.167000", "101755.170000", "101755.173000", "101755.176000", "101755.179000", "101755.182000", "101755.184000", "101755.187000", "101755.190000", "101755.193000", "101755.195000", "101755.198000", "101755.201000", "101835.128000", "101835.131000", "101835.134000", "101835.136000", "101835.139000", "101835.142000", "101835.145000", "101835.148000", "101835.151000", "101835.153000", "101835.156000", "101835.159000", "101835.162000", "101835.165000", "101835.168000", "101835.170000", "101835.173000", "101835.176000", "101835.179000", "101835.182000", "101835.185000", "101835.187000", "101835.190000", "101835.193000", "101835.196000", "101835.199000", "101835.201000", "101915.128000", "101915.131000", "101915.134000", "101915.137000", "101915.152000", "101915.155000", "101915.158000", "101915.161000", "101915.163000", "101915.166000", "101915.169000", "101915.172000", "101915.175000", "101915.177000", "101915.180000", "101915.183000", "101915.186000", "101915.189000", "101915.192000", "101915.194000", "101915.197000", "101915.200000", "101915.203000", "101915.206000", "101915.209000", "101915.211000", "101955.128000", "101955.131000", "101955.134000", "101955.137000", "101955.139000", "101955.142000", "101955.145000", "101955.148000", "101955.151000", "101955.154000", "101955.156000", "101955.159000", "101955.162000", "101955.165000", "101955.168000", "101955.170000", "101955.173000", "101955.176000", "101955.179000", "101955.182000", "101955.185000", "101955.187000", "101955.190000", "101955.193000", "101955.196000", "101955.199000", "101955.202000", "102035.128000", "102035.131000", "102035.134000", "102035.137000", "102035.139000", "102035.142000", "102035.145000", "102035.148000", "102035.151000", "102035.154000", "102035.156000", "102035.159000", "102035.162000", "102035.165000", "102035.168000", "102035.171000", "102035.174000", "102035.177000", "102035.179000", "102035.182000", "102035.185000", "102035.188000", "102035.191000", "102035.193000", "102035.196000", "102035.199000", "102035.202000", "102115.128000", "102115.131000", "102115.134000", "102115.136000", "102115.139000", "102115.142000", "102115.145000", "102115.148000", "102115.154000", "102115.157000", "102115.160000", "102115.163000", "102115.166000", "102115.169000", "102115.171000", "102115.174000", "102115.177000", "102115.180000", "102115.183000", "102115.186000", "102115.189000", "102115.192000", "102115.194000", "102115.197000", "102115.200000", "102115.203000", "102115.206000", "102155.128000", "102155.131000", "102155.134000", "102155.137000", "102155.140000", "102155.143000", "102155.146000", "102155.148000", "102155.151000", "102155.154000", "102155.157000", "102155.160000", "102155.162000", "102155.165000", "102155.168000", "102155.171000", "102155.174000", "102155.177000", "102155.198000", "102155.201000", "102155.204000", "102155.207000", "102155.210000", "102155.213000", "102155.216000", "102155.219000", "102155.221000", "102235.128000", "102235.131000", "102235.134000", "102235.137000", "102235.139000", "102235.142000", "102235.145000", "102235.148000", "102235.151000", "102235.154000", "102235.156000", "102235.159000", "102235.162000", "102235.165000", "102235.168000", "102235.171000", "102235.173000", "102235.176000", "102235.179000", "102235.182000", "102235.185000", "102235.188000", "102235.190000", "102235.193000", "102235.196000", "102235.199000", "102235.202000", "102315.128000", "102315.131000", "102315.134000", "102315.137000", "102315.140000", "102315.142000", "102315.145000", "102315.148000", "102315.151000", "102315.154000", "102315.157000", "102315.160000", "102315.164000", "102315.167000", "102315.170000", "102315.172000", "102315.175000", "102315.178000", "102315.181000", "102315.184000", "102315.187000", "102315.189000", "102315.192000", "102315.195000", "102315.198000", "102315.201000", "102349.475000", "102349.478000", "102349.481000", "102349.484000", "102349.486000", "102349.489000", "102349.492000", "102349.495000", "102349.498000", "102349.501000", "102349.503000", "102349.506000", "102349.509000", "102349.512000", "102349.515000", "102349.518000", "102349.520000", "102349.523000", "102349.526000", "102349.529000", "102349.532000", "102349.534000", "102349.537000", "102349.540000"],
