{
  "AcquisitionMatrixPE": 104,
  "AcquisitionNumber": 1,
  "AcquisitionTime": "16:38:26.987500",
  "BandwidthPerPixelPhaseEncode": 17.17,
  "BaseResolution": 104,
  "BodyPartExamined": "BRAIN",
  "CoilString": "HC1-7;NC1_2",
  "ConsistencyInfo": "N4_VE11C_LATEST_20160120",
  "ConversionSoftware": "dcm2niix",
  "ConversionSoftwareVersion": "v1.0.20190902",
  "DerivedVendorReportedEchoSpacing": 0.000560011,
  "DeviceSerialNumber": "167006",
  "DwellTime": 2.1e-06,
  "EchoTime": 0.037,
  "EchoTrainLength": 104,
  "EffectiveEchoSpacing": 0.000560011,
  "FlipAngle": 52,
  "ImageComments": "Unaliased_MB4_PE3_LB",
  "ImageOrientationPatientDICOM": [0.999199, -0.0389531, 0.00912745, 0.0397827, 0.943181, -0.32989],
  "ImageType": [
    "ORIGINAL",
    "PRIMARY",
    "M",
    "MB",
    "ND",
    "MOSAIC"
],
  "ImagingFrequency": 123.259,
  "InPlanePhaseEncodingDirectionDICOM": "COL",
  "InstitutionAddress": "Chemin_Queen-Mary_4565_Montreal_District_CA_H3W_1W5",
  "InstitutionName": "IUGM",
  "InstitutionalDepartmentName": "Department",
  "MRAcquisitionType": "2D",
  "MagneticFieldStrength": 3,
  "Manufacturer": "Siemens",
  "ManufacturersModelName": "Prisma_fit",
  "Modality": "MR",
  "MultibandAccelerationFactor": 4,
  "PartialFourier": 1,
  "PatientPosition": "HFS",
  "PercentPhaseFOV": 100,
  "PhaseEncodingDirection": "j",
  "PhaseEncodingSteps": 104,
  "PhaseResolution": 1,
  "PixelBandwidth": 2290,
  "ProcedureStepDescription": "video_friends",
  "ProtocolName": "func_task-friends-s04e15a",
  "PulseSequenceDetails": "%CustomerSeq%_cmrr_mbep2d_bold",
  "ReceiveCoilActiveElements": "HC1-7;NC1,2",
  "ReceiveCoilName": "HeadNeck_64",
  "ReconMatrixPE": 104,
  "RepetitionTime": 1.49,
  "SAR": 0.030578,
  "ScanOptions": "FS",
  "ScanningSequence": "EP",
  "SequenceName": "epfid2d1_104",
  "SequenceVariant": "SK_SS",
  "SeriesDescription": "func_task-friends-s04e15a",
  "SeriesNumber": 30,
  "ShimSetting": [635, -7264, -8825, 624, 39, -217, -53, 21],
  "SliceThickness": 2,
  "SliceTiming": [0, 0.7825, 0.0975, 0.88, 0.195, 0.98, 0.2925, 1.0775, 0.39, 1.175, 0.49, 1.2725, 0.5875, 1.37, 0.685, 0, 0.7825, 0.0975, 0.88, 0.195, 0.98, 0.2925, 1.0775, 0.39, 1.175, 0.49, 1.2725, 0.5875, 1.37, 0.685, 0, 0.7825, 0.0975, 0.88, 0.195, 0.98, 0.2925, 1.0775, 0.39, 1.175, 0.49, 1.2725, 0.5875, 1.37, 0.685, 0, 0.7825, 0.0975, 0.88, 0.195, 0.98, 0.2925, 1.0775, 0.39, 1.175, 0.49, 1.2725, 0.5875, 1.37, 0.685],
  "SoftwareVersions": "syngo_MR_E11",
  "SpacingBetweenSlices": 2,
  "StationName": "MRC35049",
  "TaskName": "s04e15a",
  "TotalReadoutTime": 0.0576811,
  "TxRefAmp": 218.273,
  "WipMemBlock": "a642544f-0c59-4a13-898b-5aecca2becd0||Sequence: R016 ve11c/master r/e634e98; Dec 19 2017 11:00:25 by eja",
  "dcmmeta_affine": [
    [-1.9983986616134644, 0.07956545054912567, -0.008482806384563446, 99.61442565917969],
    [0.07790620625019073, 1.8863614797592163, -0.6599780917167664, -77.72238159179688],
    [0.018254907801747322, 0.6597801446914673, 1.8879504203796387, -66.82572937011719],
    [0.0, 0.0, 0.0, 1.0]
],
  "dcmmeta_reorient_transform": [
    [0.0, -1.0, 0.0, 103.0],
    [1.0, 0.0, 0.0, 0.0],
    [0.0, 0.0, 1.0, 0.0],
    [0.0, 0.0, 0.0, 1.0]
],
  "dcmmeta_shape": [104, 104, 60, 444],
  "dcmmeta_slice_dim": 2,
  "dcmmeta_version": 0.6,
  "global": {
    "const": {
      "AcquisitionMatrix": [104, 0, 0, 104],
      "AngioFlag": "N",
      "BitsAllocated": 16,
      "BitsStored": 16,
      "BodyPartExamined": "BRAIN",
      "Columns": 832,
      "EchoNumbers": 1,
      "EchoTime": 37.0,
      "EchoTrainLength": 104,
      "FlipAngle": 52.0,
      "HighBit": 15,
      "ImageOrientationPatient": [0.9991993521045, -0.0389531043001, 0.00912745415431, 0.03978272556523, 0.94318072610358, -0.3298900614649],
      "ImagePositionPatient": [-864.18861894877, -774.85055585528, 234.64679763203],
      "ImageType": [
        "ORIGINAL",
        "PRIMARY",
        "M",
        "MB",
        "ND",
        "MOSAIC"
],
      "ImagedNucleus": "1H",
      "ImagingFrequency": 123.259029,
      "InPlanePhaseEncodingDirection": "COL",
      "MRAcquisitionType": "2D",
      "MagneticFieldStrength": 3.0,
      "Manufacturer": "SIEMENS",
      "ManufacturerModelName": "Prisma_fit",
      "Modality": "MR",
      "NumberOfAverages": 1.0,
      "NumberOfPhaseEncodingSteps": 104,
      "PercentPhaseFieldOfView": 100.0,
      "PercentSampling": 100.0,
      "PerformedProcedureStepStartTime": "142222.043000",
      "PhotometricInterpretation": "MONOCHROME2",
      "PixelBandwidth": 2290.0,
      "PixelRepresentation": 0,
      "PixelSpacing": [2.0, 2.0],
      "ProtocolName": "func_task-friends-s04e15a",
      "RepetitionTime": 1490.0,
      "Rows": 832,
      "SAR": 0.030577980984,
      "SamplesPerPixel": 1,
      "ScanOptions": "FS",
      "ScanningSequence": "EP",
      "SequenceName": "epfid2d1_104",
      "SequenceVariant": [
        "SK",
        "SS"
],
      "SeriesDescription": "func_task-friends-s04e15a",
      "SeriesNumber": 30,
      "SeriesTime": "163946.414000",
      "SliceLocation": -37.856806646064,
      "SliceThickness": 2.0,
      "SmallestImagePixelValue": 0,
      "SoftwareVersions": "syngo MR E11",
      "SpacingBetweenSlices": 1.9999999797442,
      "SpecificCharacterSet": "ISO_IR 100",
      "StudyID": "1",
      "StudyTime": "142221.863000",
      "TransmitCoilName": "Body",
      "VariableFlipAngleFlag": "N",
      "WindowCenterWidthExplanation": "Algo1",
      "dBdt": 0.0},
    "slices": {}
  },
  "time": {
    "samples": {
      "AcquisitionNumber": [1, 2, 3, 4, 5, 6, 7, 8, 9, 10, 11, 12, 13, 14, 15, 16, 17, 18, 19, 20, 21, 22, 23, 24, 25, 26, 27, 28, 29, 30, 31, 32, 33, 34, 35, 36, 37, 38, 39, 40, 41, 42, 43, 44, 45, 46, 47, 48, 49, 50, 51, 52, 53, 54, 55, 56, 57, 58, 59, 60, 61, 62, 63, 64, 65, 66, 67, 68, 69, 70, 71, 72, 73, 74, 75, 76, 77, 78, 79, 80, 81, 82, 83, 84, 85, 86, 87, 88, 89, 90, 91, 92, 93, 94, 95, 96, 97, 98, 99, 100, 101, 102, 103, 104, 105, 106, 107, 108, 109, 110, 111, 112, 113, 114, 115, 116, 117, 118, 119, 120, 121, 122, 123, 124, 125, 126, 127, 128, 129, 130, 131, 132, 133, 134, 135, 136, 137, 138, 139, 140, 141, 142, 143, 144, 145, 146, 147, 148, 149, 150, 151, 152, 153, 154, 155, 156, 157, 158, 159, 160, 161, 162, 163, 164, 165, 166, 167, 168, 169, 170, 171, 172, 173, 174, 175, 176, 177, 178, 179, 180, 181, 182, 183, 184, 185, 186, 187, 188, 189, 190, 191, 192, 193, 194, 195, 196, 197, 198, 199, 200, 201, 202, 203, 204, 205, 206, 207, 208, 209, 210, 211, 212, 213, 214, 215, 216, 217, 218, 219, 220, 221, 222, 223, 224, 225, 226, 227, 228, 229, 230, 231, 232, 233, 234, 235, 236, 237, 238, 239, 240, 241, 242, 243, 244, 245, 246, 247, 248, 249, 250, 251, 252, 253, 254, 255, 256, 257, 258, 259, 260, 261, 262, 263, 264, 265, 266, 267, 268, 269, 270, 271, 272, 273, 274, 275, 276, 277, 278, 279, 280, 281, 282, 283, 284, 285, 286, 287, 288, 289, 290, 291, 292, 293, 294, 295, 296, 297, 298, 299, 300, 301, 302, 303, 304, 305, 306, 307, 308, 309, 310, 311, 312, 313, 314, 315, 316, 317, 318, 319, 320, 321, 322, 323, 324, 325, 326, 327, 328, 329, 330, 331, 332, 333, 334, 335, 336, 337, 338, 339, 340, 341, 342, 343, 344, 345, 346, 347, 348, 349, 350, 351, 352, 353, 354, 355, 356, 357, 358, 359, 360, 361, 362, 363, 364, 365, 366, 367, 368, 369, 370, 371, 372, 373, 374, 375, 376, 377, 378, 379, 380, 381, 382, 383, 384, 385, 386, 387, 388, 389, 390, 391, 392, 393, 394, 395, 396, 397, 398, 399, 400, 401, 402, 403, 404, 405, 406, 407, 408, 409, 410, 411, 412, 413, 414, 415, 416, 417, 418, 419, 420, 421, 422, 423, 424, 425, 426, 427, 428, 429, 430, 431, 432, 433, 434, 435, 436, 437, 438, 439, 440, 441, 442, 443, 444],
      "AcquisitionTime": ["163826.987500", "163828.477500", "163829.967500", "163831.457500", "163832.947500", "163834.437500", "163835.927500", "163837.417500", "163838.907500", "163840.397500", "163841.887500", "163843.377500", "163844.867500", "163846.357500", "163847.847500", "163849.337500", "163850.827500", "163852.317500", "163853.807500", "163855.297500", "163856.787500", "163858.277500", "163859.767500", "163901.257500", "163902.747500", "163904.237500", "163905.727500", "163907.217500", "163908.707500", "163910.197500", "163911.687500", "163913.177500", "163914.667500", "163916.157500", "163917.647500", "163919.137500", "163920.627500", "163922.117500", "163923.607500", "163925.097500", "163926.587500", "163928.077500", "163929.567500", "163931.057500", "163932.547500", "163934.037500", "163935.527500", "163937.017500", "163938.507500", "163939.997500", "163941.487500", "163942.977500", "163944.467500", "163945.957500", "163947.447500", "163948.937500", "163950.427500", "163951.917500", "163953.407500", "163954.897500", "163956.387500", "163957.877500", "163959.367500", "164000.857500", "164002.347500", "164003.837500", "164005.327500", "164006.817500", "164008.307500", "164009.797500", "164011.287500", "164012.777500", "164014.267500", "164015.757500", "164017.247500", "164018.737500", "164020.227500", "164021.717500", "164023.207500", "164024.697500", "164026.187500", "164027.677500", "164029.167500", "164030.657500", "164032.147500", "164033.637500", "164035.127500", "164036.617500", "164038.107500", "164039.597500", "164041.087500", "164042.577500", "164044.067500", "164045.557500", "164047.047500", "164048.537500", "164050.027500", "164051.517500", "164053.007500", "164054.497500", "164055.987500", "164057.477500", "164058.967500", "164100.457500", "164101.947500", "164103.437500", "164104.927500", "164106.417500", "164107.907500", "164109.397500", "164110.887500", "164112.377500", "164113.867500", "164115.357500", "164116.847500", "164118.337500", "164119.827500", "164121.317500", "164122.807500", "164124.297500", "164125.787500", "164127.277500", "164128.767500", "164130.257500", "164131.747500", "164133.237500", "164134.727500", "164136.217500", "164137.707500", "164139.197500", "164140.687500", "164142.177500", "164143.667500", "164145.157500", "164146.647500", "164148.137500", "164149.627500", "164151.117500", "164152.607500", "164154.097500", "164155.587500", "164157.077500", "164158.567500", "164200.057500", "164201.547500", "164203.037500", "164204.527500", "164206.017500", "164207.507500", "164208.997500", "164210.487500", "164211.977500", "164213.467500", "164214.957500", "164216.447500", "164217.937500", "164219.427500", "164220.917500", "164222.407500", "164223.897500", "164225.387500", "164226.877500", "164228.367500", "164229.857500", "164231.347500", "164232.837500", "164234.327500", "164235.817500", "164237.307500", "164238.797500", "164240.287500", "164241.777500", "164243.267500", "164244.757500", "164246.247500", "164247.737500", "164249.227500", "164250.717500", "164252.207500", "164253.697500", "164255.187500", "164256.677500", "164258.167500", "164259.657500", "164301.147500", "164302.637500", "164304.127500", "164305.617500", "164307.107500", "164308.597500", "164310.087500", "164311.577500", "164313.067500", "164314.557500", "164316.047500", "164317.537500", "164319.027500", "164320.517500", "164322.007500", "164323.497500", "164324.987500", "164326.477500", "164327.967500", "164329.457500", "164330.947500", "164332.437500", "164333.927500", "164335.417500", "164336.907500", "164338.397500", "164339.887500", "164341.377500", "164342.867500", "164344.357500", "164345.847500", "164347.337500", "164348.827500", "164350.317500", "164351.807500", "164353.297500", "164354.787500", "164356.277500", "164357.767500", "164359.257500", "164400.747500", "164402.237500", "164403.727500", "164405.217500", "164406.707500", "164408.197500", "164409.687500", "164411.177500", "164412.667500", "164414.157500", "164415.647500", "164417.137500", "164418.627500", "164420.117500", "164421.607500", "164423.097500", "164424.587500", "164426.077500", "164427.567500", "164429.057500", "164430.547500", "164432.037500", "164433.527500", "164435.017500", "164436.507500", "164437.997500", "164439.487500", "164440.977500", "164442.467500", "164443.957500", "164445.447500", "164446.937500", "164448.427500", "164449.917500", "164451.407500", "164452.897500", "164454.387500", "164455.877500", "164457.367500", "164458.857500", "164500.347500", "164501.837500", "164503.327500", "164504.817500", "164506.307500", "164507.797500", "164509.287500", "164510.777500", "164512.267500", "164513.757500", "164515.247500", "164516.737500", "164518.227500", "164519.717500", "164521.207500", "164522.697500", "164524.187500", "164525.677500", "164527.167500", "164528.657500", "164530.147500", "164531.637500", "164533.127500", "164534.617500", "164536.107500", "164537.597500", "164539.087500", "164540.577500", "164542.067500", "164543.557500", "164545.047500", "164546.537500", "164548.027500", "164549.517500", "164551.007500", "164552.497500", "164553.987500", "164555.477500", "164556.967500", "164558.457500", "164559.947500", "164601.437500", "164602.927500", "164604.417500", "164605.907500", "164607.397500", "164608.887500", "164610.377500", "164611.867500", "164613.357500", "164614.847500", "164616.337500", "164617.827500", "164619.317500", "164620.807500", "164622.297500", "164623.787500", "164625.277500", "164626.767500", "164628.257500", "164629.747500", "164631.237500", "164632.727500", "164634.217500", "164635.707500", "164637.197500", "164638.687500", "164640.177500", "164641.667500", "164643.157500", "164644.647500", "164646.137500", "164647.627500", "164649.117500", "164650.607500", "164652.097500", "164653.587500", "164655.077500", "164656.567500", "164658.057500", "164659.547500", "164701.037500", "164702.527500", "164704.017500", "164705.507500", "164706.997500", "164708.487500", "164709.977500", "164711.467500", "164712.957500", "164714.447500", "164715.937500", "164717.427500", "164718.917500", "164720.407500", "164721.897500", "164723.387500", "164724.877500", "164726.367500", "164727.857500", "164729.347500", "164730.837500", "164732.327500", "164733.817500", "164735.307500", "164736.797500", "164738.287500", "164739.777500", "164741.267500", "164742.757500", "164744.247500", "164745.737500", "164747.227500", "164748.717500", "164750.207500", "164751.697500", "164753.187500", "164754.677500", "164756.167500", "164757.657500", "164759.147500", "164800.637500", "164802.127500", "164803.617500", "164805.107500", "164806.597500", "164808.087500", "164809.577500", "164811.067500", "164812.557500", "164814.047500", "164815.537500", "164817.027500", "164818.517500", "164820.007500", "164821.497500", "164822.987500", "164824.477500", "164825.967500", "164827.457500", "164828.947500", "164830.437500", "164831.927500", "164833.417500", "164834.907500", "164836.397500", "164837.887500", "164839.377500", "164840.867500", "164842.357500", "164843.847500", "164845.337500", "164846.827500", "164848.317500", "164849.807500", "164851.297500", "164852.787500", "164854.277500", "164855.767500", "164857.257500", "164858.747500", "164900.237500", "164901.727500", "164903.217500", "164904.707500", "164906.197500", "164907.687500", "164909.177500", "164910.667500", "164912.157500", "164913.647500", "164915.137500", "164916.627500", "164918.117500", "164919.607500", "164921.097500", "164922.587500", "164924.077500", "164925.567500", "164927.057500"],
      "ContentTime": ["163946.417000", "163946.421000", "163946.424000", "163946.431000", "163946.434000", "163946.437000", "163946.440000", "163946.443000", "163946.446000", "163946.449000", "163946.452000", "163946.455000", "163946.458000", "163946.461000", "163946.464000", "163946.467000", "163946.475000", "163946.478000", "163946.481000", "163946.484000", "163946.487000", "163946.490000", "163946.492000", "163946.495000", "163946.498000", "163946.501000", "164006.383000", "164006.386000", "164006.389000", "164006.392000", "164006.395000", "164006.398000", "164006.401000", "164006.403000", "164006.406000", "164006.409000", "164006.412000", "164006.415000", "164006.418000", "164006.428000", "164006.431000", "164006.434000", "164006.436000", "164006.439000", "164006.442000", "164006.445000", "164026.382000", "164026.385000", "164026.388000", "164026.391000", "164026.394000", "164026.400000", "164026.403000", "164026.406000", "164026.408000", "164026.411000", "164026.414000", "164026.417000", "164026.420000", "164026.423000", "164026.426000", "164026.429000", "164026.432000", "164026.435000", "164026.438000", "164026.441000", "164046.382000", "164046.385000", "164046.388000", "164046.391000", "164046.394000", "164046.397000", "164046.400000", "164046.403000", "164046.405000", "164046.408000", "164046.411000", "164046.414000", "164046.417000", "164046.420000", "164046.423000", "164046.426000", "164046.429000", "164046.432000", "164046.435000", "164046.438000", "164106.382000", "164106.385000", "164106.388000", "164106.391000", "164106.394000", "164106.397000", "164106.400000", "164106.402000", "164106.405000", "164106.408000", "164106.411000", "164106.414000", "164106.417000", "164106.420000", "164106.423000", "164106.426000", "164106.429000", "164106.432000", "164106.434000", "164106.437000", "164146.382000", "164146.385000", "164146.388000", "164146.391000", "164146.394000", "164146.397000", "164146.401000", "164146.404000", "164146.407000", "164146.410000", "164146.413000", "164146.415000", "164146.418000", "164146.421000", "164146.424000", "164146.427000", "164146.437000", "164146.440000", "164146.442000", "164146.445000", "164146.448000", "164146.451000", "164146.454000", "164146.457000", "164146.460000", "164146.463000", "164146.466000", "164226.383000", "164226.386000", "164226.389000", "164226.392000", "164226.395000", "164226.398000", "164226.401000", "164226.404000", "164226.407000", "164226.410000", "164226.413000", "164226.416000", "164226.418000", "164226.421000", "164226.424000", "164226.427000", "164226.430000", "164226.433000", "164226.436000", "164226.439000", "164226.442000", "164226.445000", "164226.448000", "164226.451000", "164226.454000", "164226.456000", "164226.459000", "164306.382000", "164306.385000", "164306.388000", "164306.391000", "164306.394000", "164306.397000", "164306.400000", "164306.403000", "164306.406000", "164306.409000", "164306.412000", "164306.415000", "164306.418000", "164306.421000", "164306.424000", "164306.426000", "164306.429000", "164306.432000", "164306.435000", "164306.438000", "164306.441000", "164306.444000", "164306.457000", "164306.460000", "164306.463000", "164306.466000", "164306.469000", "164346.382000", "164346.385000", "164346.388000", "164346.391000", "164346.394000", "164346.397000", "164346.400000", "164346.403000", "164346.406000", "164346.409000", "164346.412000", "164346.415000", "164346.417000", "164346.420000", "164346.423000", "164346.426000", "164346.429000", "164346.432000", "164346.435000", "164346.438000", "164346.441000", "164346.444000", "164346.447000", "164346.450000", "164346.453000", "164346.456000", "164346.458000", "164426.383000", "164426.386000", "164426.389000", "164426.392000", "164426.395000", "164426.398000", "164426.401000", "164426.404000", "164426.407000", "164426.410000", "164426.413000", "164426.415000", "164426.418000", "164426.421000", "164426.424000", "164426.427000", "164426.430000", "164426.433000", "164426.436000", "164426.439000", "164426.442000", "164426.445000", "164426.448000", "164426.451000", "164426.454000", "164426.457000", "164426.460000", "164506.382000", "164506.385000", "164506.388000", "164506.391000", "164506.394000", "164506.397000", "164506.400000", "164506.404000", "164506.407000", "164506.410000", "164506.413000", "164506.416000", "164506.419000", "164506.422000", "164506.425000", "164506.428000", "164506.431000", "164506.434000", "164506.437000", "164506.440000", "164506.443000", "164506.446000", "164506.449000", "164506.452000", "164506.455000", "164506.458000", "164546.382000", "164546.385000", "164546.388000", "164546.391000", "164546.394000", "164546.397000", "164546.400000", "164546.403000", "164546.406000", "164546.409000", "164546.412000", "164546.414000", "164546.417000", "164546.420000", "164546.423000", "164546.426000", "164546.429000", "164546.432000", "164546.435000", "164546.438000", "164546.441000", "164546.444000", "164546.447000", "164546.450000", "164546.453000", "164546.455000", "164546.458000", "164626.383000", "164626.386000", "164626.398000", "164626.401000", "164626.404000", "164626.407000", "164626.410000", "164626.413000", "164626.416000", "164626.419000", "164626.422000", "164626.425000", "164626.428000", "164626.431000", "164626.434000", "164626.437000", "164626.440000", "164626.443000", "164626.446000", "164626.449000", "164626.452000", "164626.454000", "164626.457000", "164626.460000", "164626.463000", "164626.466000", "164626.469000", "164706.383000", "164706.386000", "164706.389000", "164706.392000", "164706.395000", "164706.398000", "164706.401000", "164706.404000", "164706.407000", "164706.410000", "164706.413000", "164706.416000", "164706.419000", "164706.421000", "164706.424000", "164706.427000", "164706.430000", "164706.433000", "164706.436000", "164706.439000", "164706.442000", "164706.445000", "164706.448000", "164706.451000", "164706.454000", "164706.457000", "164706.459000", "164746.382000", "164746.385000", "164746.388000", "164746.391000", "164746.394000", "164746.397000", "164746.400000", "164746.403000", "164746.406000", "164746.409000", "164746.412000", "164746.414000", "164746.417000", "164746.420000", "164746.423000", "164746.426000", "164746.429000", "164746.453000", "164746.456000", "164746.459000", "164746.462000", "164746.465000", "164746.468000", "164746.471000", "164746.474000", "164746.477000", "164746.480000", "164826.382000", "164826.385000", "164826.388000", "164826.391000", "164826.394000", "164826.397000", "164826.400000", "164826.403000", "164826.406000", "164826.409000", "164826.412000", "164826.415000", "164826.418000", "164826.420000", "164826.423000", "164826.426000", "164826.429000", "164826.432000", "164826.435000", "164826.438000", "164826.441000", "164826.444000", "164826.447000", "164826.450000", "164826.453000", "164826.456000", "164826.459000", "164906.383000", "164906.386000", "164906.389000", "164906.392000", "164906.395000", "164906.398000", "164906.401000", "164906.404000", "164906.407000", "164906.410000", "164906.413000", "164906.416000", "164906.419000", "164906.422000", "164906.425000", "164906.428000", "164906.431000", "164906.434000", "164906.437000", "164906.440000", "164906.443000", "164906.446000", "164906.448000", "164906.451000", "164906.454000", "164906.457000", "164928.811000", "164928.814000", "164928.817000", "164928.820000", "164928.823000", "164928.826000", "164928.829000", "164928.832000", "164928.835000", "164928.838000", "164928.841000", "164928.844000", "164928.848000", "164928.851000", "164928.854000", "164928.857000"],
