{
  "AcquisitionMatrixPE": 104,
  "AcquisitionNumber": 1,
  "AcquisitionTime": "17:13:56.095000",
  "BandwidthPerPixelPhaseEncode": 17.17,
  "BaseResolution": 104,
  "BodyPartExamined": "BRAIN",
  "CoilString": "HC1-7;NC1_2",
  "ConsistencyInfo": "N4_VE11C_LATEST_20160120",
  "ConversionSoftware": "dcm2niix",
  "ConversionSoftwareVersion": "v1.0.20190902",
  "DerivedVendorReportedEchoSpacing": 0.000560011,
  "DeviceSerialNumber": "167006",
  "DwellTime": 2.1e-06,
  "EchoTime": 0.037,
  "EchoTrainLength": 104,
  "EffectiveEchoSpacing": 0.000560011,
  "FlipAngle": 52,
  "ImageComments": "Unaliased_MB4_PE3_LB",
  "ImageOrientationPatientDICOM": [0.999206, -0.0387884, 0.00906986, 0.0396082, 0.943188, -0.329892],
  "ImageType": [
    "ORIGINAL",
    "PRIMARY",
    "M",
    "MB",
    "ND",
    "MOSAIC"
],
  "ImagingFrequency": 123.259,
  "InPlanePhaseEncodingDirectionDICOM": "COL",
  "InstitutionAddress": "Chemin_Queen-Mary_4565_Montreal_District_CA_H3W_1W5",
  "InstitutionName": "IUGM",
  "InstitutionalDepartmentName": "Department",
  "MRAcquisitionType": "2D",
  "MagneticFieldStrength": 3,
  "Manufacturer": "Siemens",
  "ManufacturersModelName": "Prisma_fit",
  "Modality": "MR",
  "MultibandAccelerationFactor": 4,
  "PartialFourier": 1,
  "PatientPosition": "HFS",
  "PercentPhaseFOV": 100,
  "PhaseEncodingDirection": "j",
  "PhaseEncodingSteps": 104,
  "PhaseResolution": 1,
  "PixelBandwidth": 2290,
  "ProcedureStepDescription": "video_friends",
  "ProtocolName": "func_task-friends-s04e16b",
  "PulseSequenceDetails": "%CustomerSeq%_cmrr_mbep2d_bold",
  "ReceiveCoilActiveElements": "HC1-7;NC1,2",
  "ReceiveCoilName": "HeadNeck_64",
  "ReconMatrixPE": 104,
  "RepetitionTime": 1.49,
  "SAR": 0.03059,
  "ScanOptions": "FS",
  "ScanningSequence": "EP",
  "SequenceName": "epfid2d1_104",
  "SequenceVariant": "SK_SS",
  "SeriesDescription": "func_task-friends-s04e16b",
  "SeriesNumber": 36,
  "ShimSetting": [635, -7264, -8825, 624, 39, -217, -53, 21],
  "SliceThickness": 2,
  "SliceTiming": [0, 0.7825, 0.0975, 0.88, 0.195, 0.98, 0.2925, 1.0775, 0.39, 1.175, 0.49, 1.2725, 0.5875, 1.37, 0.685, 0, 0.7825, 0.0975, 0.88, 0.195, 0.98, 0.2925, 1.0775, 0.39, 1.175, 0.49, 1.2725, 0.5875, 1.37, 0.685, 0, 0.7825, 0.0975, 0.88, 0.195, 0.98, 0.2925, 1.0775, 0.39, 1.175, 0.49, 1.2725, 0.5875, 1.37, 0.685, 0, 0.7825, 0.0975, 0.88, 0.195, 0.98, 0.2925, 1.0775, 0.39, 1.175, 0.49, 1.2725, 0.5875, 1.37, 0.685],
  "SoftwareVersions": "syngo_MR_E11",
  "SpacingBetweenSlices": 2,
  "StationName": "MRC35049",
  "TaskName": "s04e16b",
  "TotalReadoutTime": 0.0576811,
  "TxRefAmp": 218.273,
  "WipMemBlock": "e7ed8be8-644c-4735-b400-16bbaa942c6a||Sequence: R016 ve11c/master r/e634e98; Dec 19 2017 11:00:25 by eja",
  "dcmmeta_affine": [
    [-1.9984126091003418, 0.07921648025512695, -0.008482769131660461, 99.63294219970703],
    [0.07757679373025894, 1.886375069618225, -0.6599780917167664, -77.70594787597656],
    [0.018139729276299477, 0.6597832441329956, 1.8879504203796387, -66.81990814208984],
    [0.0, 0.0, 0.0, 1.0]
],
  "dcmmeta_reorient_transform": [
    [0.0, -1.0, 0.0, 103.0],
    [1.0, 0.0, 0.0, 0.0],
    [0.0, 0.0, 1.0, 0.0],
    [0.0, 0.0, 0.0, 1.0]
],
  "dcmmeta_shape": [104, 104, 60, 487],
  "dcmmeta_slice_dim": 2,
  "dcmmeta_version": 0.6,
  "global": {
    "const": {
      "AcquisitionMatrix": [104, 0, 0, 104],
      "AngioFlag": "N",
      "BitsAllocated": 16,
      "BitsStored": 16,
      "BodyPartExamined": "BRAIN",
      "Columns": 832,
      "EchoNumbers": 1,
      "EchoTime": 37.0,
      "EchoTrainLength": 104,
      "FlipAngle": 52.0,
      "HighBit": 15,
      "ImageOrientationPatient": [0.99920628397416, -0.0387883955521, 0.0090698642243, 0.03960824060343, 0.94318751877729, -0.3298916362975],
      "ImagePositionPatient": [-864.04921477611, -774.99324503811, 234.69602271452],
      "ImageType": [
        "ORIGINAL",
        "PRIMARY",
        "M",
        "MB",
        "ND",
        "MOSAIC"
],
      "ImagedNucleus": "1H",
      "ImagingFrequency": 123.259038,
      "InPlanePhaseEncodingDirection": "COL",
      "MRAcquisitionType": "2D",
      "MagneticFieldStrength": 3.0,
      "Manufacturer": "SIEMENS",
      "ManufacturerModelName": "Prisma_fit",
      "Modality": "MR",
      "NumberOfAverages": 1.0,
      "NumberOfPhaseEncodingSteps": 104,
      "PercentPhaseFieldOfView": 100.0,
      "PercentSampling": 100.0,
      "PerformedProcedureStepStartTime": "142222.043000",
      "PhotometricInterpretation": "MONOCHROME2",
      "PixelBandwidth": 2290.0,
      "PixelRepresentation": 0,
      "PixelSpacing": [2.0, 2.0],
      "ProtocolName": "func_task-friends-s04e16b",
      "RepetitionTime": 1490.0,
      "Rows": 832,
      "SAR": 0.03058999446804,
      "SamplesPerPixel": 1,
      "ScanOptions": "FS",
      "ScanningSequence": "EP",
      "SequenceName": "epfid2d1_104",
      "SequenceVariant": [
        "SK",
        "SS"
],
      "SeriesDescription": "func_task-friends-s04e16b",
      "SeriesNumber": 36,
      "SeriesTime": "171526.410000",
      "SliceLocation": -37.856806503427,
      "SliceThickness": 2.0,
      "SmallestImagePixelValue": 0,
      "SoftwareVersions": "syngo MR E11",
      "SpacingBetweenSlices": 1.9999999797442,
      "SpecificCharacterSet": "ISO_IR 100",
      "StudyID": "1",
      "StudyTime": "142221.863000",
      "TransmitCoilName": "Body",
      "VariableFlipAngleFlag": "N",
      "WindowCenterWidthExplanation": "Algo1",
      "dBdt": 0.0},
    "slices": {}
  },
  "time": {
    "samples": {
      "AcquisitionNumber": [1, 2, 3, 4, 5, 6, 7, 8, 9, 10, 11, 12, 13, 14, 15, 16, 17, 18, 19, 20, 21, 22, 23, 24, 25, 26, 27, 28, 29, 30, 31, 32, 33, 34, 35, 36, 37, 38, 39, 40, 41, 42, 43, 44, 45, 46, 47, 48, 49, 50, 51, 52, 53, 54, 55, 56, 57, 58, 59, 60, 61, 62, 63, 64, 65, 66, 67, 68, 69, 70, 71, 72, 73, 74, 75, 76, 77, 78, 79, 80, 81, 82, 83, 84, 85, 86, 87, 88, 89, 90, 91, 92, 93, 94, 95, 96, 97, 98, 99, 100, 101, 102, 103, 104, 105, 106, 107, 108, 109, 110, 111, 112, 113, 114, 115, 116, 117, 118, 119, 120, 121, 122, 123, 124, 125, 126, 127, 128, 129, 130, 131, 132, 133, 134, 135, 136, 137, 138, 139, 140, 141, 142, 143, 144, 145, 146, 147, 148, 149, 150, 151, 152, 153, 154, 155, 156, 157, 158, 159, 160, 161, 162, 163, 164, 165, 166, 167, 168, 169, 170, 171, 172, 173, 174, 175, 176, 177, 178, 179, 180, 181, 182, 183, 184, 185, 186, 187, 188, 189, 190, 191, 192, 193, 194, 195, 196, 197, 198, 199, 200, 201, 202, 203, 204, 205, 206, 207, 208, 209, 210, 211, 212, 213, 214, 215, 216, 217, 218, 219, 220, 221, 222, 223, 224, 225, 226, 227, 228, 229, 230, 231, 232, 233, 234, 235, 236, 237, 238, 239, 240, 241, 242, 243, 244, 245, 246, 247, 248, 249, 250, 251, 252, 253, 254, 255, 256, 257, 258, 259, 260, 261, 262, 263, 264, 265, 266, 267, 268, 269, 270, 271, 272, 273, 274, 275, 276, 277, 278, 279, 280, 281, 282, 283, 284, 285, 286, 287, 288, 289, 290, 291, 292, 293, 294, 295, 296, 297, 298, 299, 300, 301, 302, 303, 304, 305, 306, 307, 308, 309, 310, 311, 312, 313, 314, 315, 316, 317, 318, 319, 320, 321, 322, 323, 324, 325, 326, 327, 328, 329, 330, 331, 332, 333, 334, 335, 336, 337, 338, 339, 340, 341, 342, 343, 344, 345, 346, 347, 348, 349, 350, 351, 352, 353, 354, 355, 356, 357, 358, 359, 360, 361, 362, 363, 364, 365, 366, 367, 368, 369, 370, 371, 372, 373, 374, 375, 376, 377, 378, 379, 380, 381, 382, 383, 384, 385, 386, 387, 388, 389, 390, 391, 392, 393, 394, 395, 396, 397, 398, 399, 400, 401, 402, 403, 404, 405, 406, 407, 408, 409, 410, 411, 412, 413, 414, 415, 416, 417, 418, 419, 420, 421, 422, 423, 424, 425, 426, 427, 428, 429, 430, 431, 432, 433, 434, 435, 436, 437, 438, 439, 440, 441, 442, 443, 444, 445, 446, 447, 448, 449, 450, 451, 452, 453, 454, 455, 456, 457, 458, 459, 460, 461, 462, 463, 464, 465, 466, 467, 468, 469, 470, 471, 472, 473, 474, 475, 476, 477, 478, 479, 480, 481, 482, 483, 484, 485, 486, 487],
      "AcquisitionTime": ["171356.095000", "171357.585000", "171359.075000", "171400.565000", "171402.055000", "171403.545000", "171405.035000", "171406.525000", "171408.015000", "171409.505000", "171410.995000", "171412.485000", "171413.975000", "171415.465000", "171416.955000", "171418.445000", "171419.935000", "171421.425000", "171422.915000", "171424.405000", "171425.895000", "171427.385000", "171428.875000", "171430.365000", "171431.855000", "171433.345000", "171434.835000", "171436.325000", "171437.815000", "171439.305000", "171440.795000", "171442.285000", "171443.775000", "171445.265000", "171446.755000", "171448.245000", "171449.735000", "171451.225000", "171452.715000", "171454.205000", "171455.695000", "171457.185000", "171458.675000", "171500.165000", "171501.655000", "171503.145000", "171504.635000", "171506.125000", "171507.615000", "171509.105000", "171510.595000", "171512.085000", "171513.575000", "171515.065000", "171516.555000", "171518.045000", "171519.535000", "171521.025000", "171522.515000", "171524.005000", "171525.495000", "171526.985000", "171528.475000", "171529.965000", "171531.455000", "171532.945000", "171534.435000", "171535.925000", "171537.415000", "171538.905000", "171540.395000", "171541.885000", "171543.375000", "171544.865000", "171546.355000", "171547.845000", "171549.335000", "171550.825000", "171552.315000", "171553.805000", "171555.295000", "171556.785000", "171558.275000", "171559.765000", "171601.255000", "171602.745000", "171604.235000", "171605.725000", "171607.215000", "171608.705000", "171610.195000", "171611.685000", "171613.175000", "171614.665000", "171616.155000", "171617.645000", "171619.135000", "171620.625000", "171622.115000", "171623.605000", "171625.095000", "171626.585000", "171628.075000", "171629.565000", "171631.055000", "171632.545000", "171634.035000", "171635.525000", "171637.015000", "171638.505000", "171639.995000", "171641.485000", "171642.975000", "171644.465000", "171645.955000", "171647.445000", "171648.935000", "171650.425000", "171651.915000", "171653.405000", "171654.895000", "171656.385000", "171657.875000", "171659.365000", "171700.855000", "171702.345000", "171703.835000", "171705.325000", "171706.815000", "171708.305000", "171709.795000", "171711.285000", "171712.775000", "171714.265000", "171715.755000", "171717.245000", "171718.735000", "171720.225000", "171721.715000", "171723.205000", "171724.695000", "171726.185000", "171727.675000", "171729.165000", "171730.655000", "171732.145000", "171733.635000", "171735.125000", "171736.615000", "171738.105000", "171739.595000", "171741.085000", "171742.575000", "171744.065000", "171745.555000", "171747.045000", "171748.535000", "171750.025000", "171751.515000", "171753.005000", "171754.495000", "171755.985000", "171757.475000", "171758.965000", "171800.455000", "171801.945000", "171803.435000", "171804.925000", "171806.415000", "171807.905000", "171809.395000", "171810.885000", "171812.375000", "171813.865000", "171815.355000", "171816.845000", "171818.335000", "171819.825000", "171821.315000", "171822.805000", "171824.295000", "171825.785000", "171827.275000", "171828.765000", "171830.255000", "171831.745000", "171833.235000", "171834.725000", "171836.215000", "171837.705000", "171839.195000", "171840.685000", "171842.175000", "171843.665000", "171845.155000", "171846.645000", "171848.135000", "171849.625000", "171851.115000", "171852.605000", "171854.095000", "171855.585000", "171857.075000", "171858.565000", "171900.055000", "171901.545000", "171903.035000", "171904.525000", "171906.015000", "171907.505000", "171908.995000", "171910.485000", "171911.975000", "171913.465000", "171914.955000", "171916.445000", "171917.935000", "171919.425000", "171920.915000", "171922.405000", "171923.895000", "171925.385000", "171926.875000", "171928.365000", "171929.855000", "171931.345000", "171932.835000", "171934.325000", "171935.815000", "171937.305000", "171938.795000", "171940.285000", "171941.775000", "171943.265000", "171944.755000", "171946.245000", "171947.735000", "171949.225000", "171950.715000", "171952.205000", "171953.695000", "171955.185000", "171956.675000", "171958.165000", "171959.655000", "172001.145000", "172002.635000", "172004.125000", "172005.615000", "172007.105000", "172008.595000", "172010.085000", "172011.575000", "172013.065000", "172014.555000", "172016.045000", "172017.535000", "172019.025000", "172020.515000", "172022.005000", "172023.495000", "172024.985000", "172026.475000", "172027.965000", "172029.455000", "172030.945000", "172032.435000", "172033.925000", "172035.415000", "172036.905000", "172038.395000", "172039.885000", "172041.375000", "172042.865000", "172044.355000", "172045.845000", "172047.335000", "172048.825000", "172050.315000", "172051.805000", "172053.295000", "172054.785000", "172056.275000", "172057.765000", "172059.255000", "172100.745000", "172102.235000", "172103.725000", "172105.215000", "172106.705000", "172108.195000", "172109.685000", "172111.175000", "172112.665000", "172114.155000", "172115.645000", "172117.135000", "172118.625000", "172120.115000", "172121.605000", "172123.095000", "172124.585000", "172126.075000", "172127.565000", "172129.055000", "172130.545000", "172132.035000", "172133.525000", "172135.015000", "172136.505000", "172137.995000", "172139.485000", "172140.975000", "172142.465000", "172143.955000", "172145.445000", "172146.935000", "172148.425000", "172149.915000", "172151.405000", "172152.895000", "172154.385000", "172155.875000", "172157.365000", "172158.855000", "172200.345000", "172201.835000", "172203.325000", "172204.815000", "172206.305000", "172207.795000", "172209.285000", "172210.775000", "172212.265000", "172213.755000", "172215.245000", "172216.735000", "172218.225000", "172219.715000", "172221.205000", "172222.695000", "172224.185000", "172225.675000", "172227.165000", "172228.655000", "172230.145000", "172231.635000", "172233.125000", "172234.615000", "172236.105000", "172237.595000", "172239.085000", "172240.575000", "172242.065000", "172243.555000", "172245.045000", "172246.535000", "172248.025000", "172249.515000", "172251.005000", "172252.495000", "172253.985000", "172255.475000", "172256.965000", "172258.455000", "172259.945000", "172301.435000", "172302.925000", "172304.415000", "172305.905000", "172307.395000", "172308.885000", "172310.375000", "172311.865000", "172313.355000", "172314.845000", "172316.335000", "172317.825000", "172319.315000", "172320.805000", "172322.295000", "172323.785000", "172325.275000", "172326.765000", "172328.255000", "172329.745000", "172331.235000", "172332.725000", "172334.215000", "172335.705000", "172337.195000", "172338.685000", "172340.175000", "172341.665000", "172343.155000", "172344.645000", "172346.135000", "172347.625000", "172349.115000", "172350.605000", "172352.095000", "172353.585000", "172355.075000", "172356.565000", "172358.055000", "172359.545000", "172401.035000", "172402.525000", "172404.015000", "172405.505000", "172406.995000", "172408.485000", "172409.975000", "172411.465000", "172412.955000", "172414.445000", "172415.935000", "172417.425000", "172418.915000", "172420.405000", "172421.895000", "172423.385000", "172424.875000", "172426.365000", "172427.855000", "172429.345000", "172430.835000", "172432.325000", "172433.815000", "172435.305000", "172436.795000", "172438.285000", "172439.775000", "172441.265000", "172442.755000", "172444.245000", "172445.735000", "172447.225000", "172448.715000", "172450.205000", "172451.695000", "172453.185000", "172454.675000", "172456.165000", "172457.655000", "172459.145000", "172500.635000", "172502.125000", "172503.615000", "172505.105000", "172506.595000", "172508.085000", "172509.575000", "172511.065000", "172512.555000", "172514.045000", "172515.535000", "172517.025000", "172518.515000", "172520.005000", "172521.495000", "172522.985000", "172524.475000", "172525.965000", "172527.455000", "172528.945000", "172530.435000", "172531.925000", "172533.415000", "172534.905000", "172536.395000", "172537.885000", "172539.375000", "172540.865000", "172542.355000", "172543.845000", "172545.335000", "172546.825000", "172548.315000", "172549.805000", "172551.295000", "172552.785000", "172554.275000", "172555.765000", "172557.255000", "172558.745000", "172600.235000"],
      "ContentTime": ["171526.412000", "171526.416000", "171526.419000", "171526.422000", "171526.425000", "171526.428000", "171526.437000", "171526.440000", "171526.443000", "171526.446000", "171526.449000", "171526.452000", "171526.455000", "171526.458000", "171526.460000", "171526.463000", "171526.466000", "171526.469000", "171526.472000", "171526.475000", "171526.478000", "171526.481000", "171526.484000", "171526.487000", "171526.490000", "171526.493000", "171526.496000", "171526.499000", "171526.502000", "171526.505000", "171526.508000", "171526.511000", "171526.514000", "171526.517000", "171526.519000", "171546.382000", "171546.385000", "171546.388000", "171546.391000", "171546.394000", "171546.397000", "171546.400000", "171546.403000", "171546.406000", "171546.408000", "171546.417000", "171546.420000", "171546.423000", "171546.426000", "171546.429000", "171546.432000", "171546.435000", "171546.438000", "171546.440000", "171546.443000", "171606.382000", "171606.385000", "171606.388000", "171606.391000", "171606.394000", "171606.397000", "171606.400000", "171606.403000", "171606.405000", "171606.408000", "171606.411000", "171606.414000", "171606.417000", "171606.420000", "171606.423000", "171606.426000", "171606.429000", "171606.432000", "171606.434000", "171606.437000", "171626.382000", "171626.385000", "171626.394000", "171626.397000", "171626.400000", "171626.403000", "171626.406000", "171626.409000", "171626.412000", "171626.414000", "171626.417000", "171626.420000", "171626.423000", "171626.426000", "171626.429000", "171626.432000", "171626.435000", "171626.438000", "171626.441000", "171626.444000", "171706.383000", "171706.386000", "171706.389000", "171706.392000", "171706.395000", "171706.398000", "171706.401000", "171706.404000", "171706.407000", "171706.410000", "171706.412000", "171706.415000", "171706.418000", "171706.421000", "171706.424000", "171706.427000", "171706.430000", "171706.433000", "171706.436000", "171706.439000", "171706.442000", "171706.445000", "171706.448000", "171706.450000", "171706.453000", "171706.456000", "171706.459000", "171706.462000", "171706.465000", "171706.468000", "171706.471000", "171706.474000", "171746.382000", "171746.385000", "171746.388000", "171746.391000", "171746.394000", "171746.397000", "171746.400000", "171746.403000", "171746.406000", "171746.409000", "171746.412000", "171746.414000", "171746.417000", "171746.420000", "171746.423000", "171746.426000", "171746.429000", "171746.432000", "171746.436000", "171746.439000", "171746.442000", "171746.445000", "171746.448000", "171746.451000", "171746.454000", "171746.457000", "171826.382000", "171826.385000", "171826.388000", "171826.391000", "171826.394000", "171826.397000", "171826.400000", "171826.403000", "171826.406000", "171826.409000", "171826.411000", "171826.422000", "171826.425000", "171826.428000", "171826.431000", "171826.434000", "171826.451000", "171826.454000", "171826.457000", "171826.460000", "171826.463000", "171826.466000", "171826.468000", "171826.471000", "171826.474000", "171826.477000", "171826.480000", "171906.383000", "171906.386000", "171906.389000", "171906.392000", "171906.395000", "171906.398000", "171906.401000", "171906.404000", "171906.407000", "171906.409000", "171906.412000", "171906.415000", "171906.418000", "171906.421000", "171906.424000", "171906.427000", "171906.430000", "171906.433000", "171906.436000", "171906.439000", "171906.442000", "171906.445000", "171906.447000", "171906.450000", "171906.453000", "171906.456000", "171906.460000", "171946.382000", "171946.385000", "171946.388000", "171946.391000", "171946.394000", "171946.397000", "171946.400000", "171946.403000", "171946.405000", "171946.408000", "171946.411000", "171946.414000", "171946.417000", "171946.420000", "171946.423000", "171946.426000", "171946.429000", "171946.432000", "171946.435000", "171946.438000", "171946.441000", "171946.444000", "171946.446000", "171946.449000", "171946.452000", "171946.455000", "171946.458000", "172026.382000", "172026.385000", "172026.388000", "172026.391000", "172026.394000", "172026.397000", "172026.400000", "172026.403000", "172026.406000", "172026.409000", "172026.412000", "172026.415000", "172026.417000", "172026.420000", "172026.423000", "172026.426000", "172026.429000", "172026.432000", "172026.435000", "172026.438000", "172026.441000", "172026.444000", "172026.447000", "172026.450000", "172026.452000", "172026.455000", "172026.458000", "172106.382000", "172106.385000", "172106.388000", "172106.391000", "172106.394000", "172106.397000", "172106.400000", "172106.403000", "172106.406000", "172106.409000", "172106.412000", "172106.414000", "172106.417000", "172106.420000", "172106.423000", "172106.426000", "172106.429000", "172106.432000", "172106.435000", "172106.438000", "172106.441000", "172106.444000", "172106.446000", "172106.449000", "172106.452000", "172106.455000", "172106.458000", "172146.383000", "172146.386000", "172146.389000", "172146.392000", "172146.395000", "172146.398000", "172146.401000", "172146.404000", "172146.407000", "172146.410000", "172146.413000", "172146.416000", "172146.419000", "172146.421000", "172146.424000", "172146.427000", "172146.430000", "172146.433000", "172146.436000", "172146.440000", "172146.443000", "172146.446000", "172146.449000", "172146.452000", "172146.455000", "172146.458000", "172226.382000", "172226.385000", "172226.388000", "172226.391000", "172226.394000", "172226.397000", "172226.400000", "172226.403000", "172226.406000", "172226.409000", "172226.412000", "172226.414000", "172226.417000", "172226.420000", "172226.423000", "172226.426000", "172226.429000", "172226.432000", "172226.435000", "172226.438000", "172226.441000", "172226.443000", "172226.446000", "172226.449000", "172226.452000", "172226.455000", "172226.458000", "172306.382000", "172306.385000", "172306.388000", "172306.391000", "172306.394000", "172306.397000", "172306.400000", "172306.403000", "172306.406000", "172306.408000", "172306.411000", "172306.422000", "172306.424000", "172306.427000", "172306.430000", "172306.433000", "172306.436000", "172306.439000", "172306.442000", "172306.445000", "172306.448000", "172306.451000", "172306.454000", "172306.457000", "172306.460000", "172306.463000", "172306.465000", "172346.383000", "172346.386000", "172346.389000", "172346.392000", "172346.395000", "172346.398000", "172346.401000", "172346.404000", "172346.407000", "172346.410000", "172346.413000", "172346.415000", "172346.419000", "172346.421000", "172346.424000", "172346.427000", "172346.430000", "172346.433000", "172346.436000", "172346.439000", "172346.442000", "172346.445000", "172346.448000", "172346.450000", "172346.453000", "172346.456000", "172346.459000", "172426.382000", "172426.385000", "172426.388000", "172426.391000", "172426.394000", "172426.397000", "172426.400000", "172426.403000", "172426.406000", "172426.409000", "172426.412000", "172426.414000", "172426.417000", "172426.420000", "172426.423000", "172426.426000", "172426.429000", "172426.432000", "172426.435000", "172426.437000", "172426.440000", "172426.443000", "172426.446000", "172426.449000", "172426.452000", "172426.455000", "172426.458000", "172506.382000", "172506.385000", "172506.388000", "172506.391000", "172506.394000", "172506.397000", "172506.400000", "172506.403000", "172506.406000", "172506.409000", "172506.412000", "172506.414000", "172506.417000", "172506.420000", "172506.423000", "172506.426000", "172506.429000", "172506.432000", "172506.435000", "172506.438000", "172506.441000", "172506.444000", "172506.447000", "172506.450000", "172506.453000", "172506.455000", "172506.458000", "172546.382000", "172546.385000", "172546.388000", "172546.391000", "172546.394000", "172546.397000", "172546.400000", "172546.403000", "172546.406000", "172546.409000", "172546.413000", "172546.415000", "172546.418000", "172546.421000", "172546.424000", "172546.427000", "172546.430000", "172546.433000", "172546.436000", "172546.439000", "172546.442000", "172546.445000", "172546.448000", "172546.451000", "172546.453000", "172546.456000", "172546.459000", "172602.768000", "172602.771000", "172602.774000", "172602.777000", "172602.780000", "172602.783000", "172602.786000", "172602.789000", "172602.792000", "172602.795000", "172602.798000"],
