{
  "AcquisitionMatrixPE": 104,
  "AcquisitionNumber": 1,
  "AcquisitionTime": "16:10:4.207500",
  "BandwidthPerPixelPhaseEncode": 17.17,
  "BaseResolution": 104,
  "BodyPartExamined": "BRAIN",
  "CoilString": "HC1-7;NC1_2",
  "ConsistencyInfo": "N4_VE11C_LATEST_20160120",
  "ConversionSoftware": "dcm2niix",
  "ConversionSoftwareVersion": "v1.0.20190902",
  "DerivedVendorReportedEchoSpacing": 0.000560011,
  "DeviceSerialNumber": "167006",
  "DwellTime": 2.1e-06,
  "EchoTime": 0.037,
  "EchoTrainLength": 104,
  "EffectiveEchoSpacing": 0.000560011,
  "FlipAngle": 52,
  "ImageComments": "Unaliased_MB4_PE3_LB",
  "ImageOrientationPatientDICOM": [0.997809, -0.0656436, -0.00825516, 0.0592808, 0.942466, -0.329004],
  "ImageType": [
    "ORIGINAL",
    "PRIMARY",
    "M",
    "MB",
    "ND",
    "MOSAIC"
],
  "ImagingFrequency": 123.259,
  "InPlanePhaseEncodingDirectionDICOM": "COL",
  "InstitutionAddress": "Chemin_Queen-Mary_4565_Montreal_District_CA_H3W_1W5",
  "InstitutionName": "IUGM",
  "InstitutionalDepartmentName": "Department",
  "MRAcquisitionType": "2D",
  "MagneticFieldStrength": 3,
  "Manufacturer": "Siemens",
  "ManufacturersModelName": "Prisma_fit",
  "Modality": "MR",
  "MultibandAccelerationFactor": 4,
  "PartialFourier": 1,
  "PatientPosition": "HFS",
  "PercentPhaseFOV": 100,
  "PhaseEncodingDirection": "j",
  "PhaseEncodingSteps": 104,
  "PhaseResolution": 1,
  "PixelBandwidth": 2290,
  "ProcedureStepDescription": "video_friends",
  "ProtocolName": "func_task-friends-s04e14b",
  "PulseSequenceDetails": "%CustomerSeq%_cmrr_mbep2d_bold",
  "ReceiveCoilActiveElements": "HC1-7;NC1,2",
  "ReceiveCoilName": "HeadNeck_64",
  "ReconMatrixPE": 104,
  "RepetitionTime": 1.49,
  "SAR": 0.0308535,
  "ScanOptions": "FS",
  "ScanningSequence": "EP",
  "SequenceName": "epfid2d1_104",
  "SequenceVariant": "SK_SS",
  "SeriesDescription": "func_task-friends-s04e14b",
  "SeriesNumber": 21,
  "ShimSetting": [626, -7269, -8815, 611, -13, -231, -56, 8],
  "SliceThickness": 2,
  "SliceTiming": [0, 0.785, 0.0975, 0.8825, 0.1975, 0.98, 0.295, 1.0775, 0.3925, 1.175, 0.49, 1.275, 0.5875, 1.3725, 0.685, 0, 0.785, 0.0975, 0.8825, 0.1975, 0.98, 0.295, 1.0775, 0.3925, 1.175, 0.49, 1.275, 0.5875, 1.3725, 0.685, 0, 0.785, 0.0975, 0.8825, 0.1975, 0.98, 0.295, 1.0775, 0.3925, 1.175, 0.49, 1.275, 0.5875, 1.3725, 0.685, 0, 0.785, 0.0975, 0.8825, 0.1975, 0.98, 0.295, 1.0775, 0.3925, 1.175, 0.49, 1.275, 0.5875, 1.3725, 0.685],
  "SoftwareVersions": "syngo_MR_E11",
  "SpacingBetweenSlices": 2,
  "StationName": "MRC35049",
  "TaskName": "s04e14b",
  "TotalReadoutTime": 0.0576811,
  "TxRefAmp": 218.396,
  "WipMemBlock": "deec5689-41c3-4c35-8f6c-204e2ccdf503||Sequence: R016 ve11c/master r/e634e98; Dec 19 2017 11:00:25 by eja",
  "dcmmeta_affine": [
    [-1.9956179857254028, 0.11856158077716827, -0.058754436671733856, 97.53740692138672],
    [0.13128724694252014, 1.884932041168213, -0.6555873155593872, -80.0335693359375],
    [-0.01651032827794552, 0.658007800579071, 1.8885849714279175, -59.15044403076172],
    [0.0, 0.0, 0.0, 1.0]
],
  "dcmmeta_reorient_transform": [
    [0.0, -1.0, 0.0, 103.0],
    [1.0, 0.0, 0.0, 0.0],
    [0.0, 0.0, 1.0, 0.0],
    [0.0, 0.0, 0.0, 1.0]
],
  "dcmmeta_shape": [104, 104, 60, 447],
  "dcmmeta_slice_dim": 2,
  "dcmmeta_version": 0.6,
  "global": {
    "const": {
      "AcquisitionMatrix": [104, 0, 0, 104],
      "AngioFlag": "N",
      "BitsAllocated": 16,
      "BitsStored": 16,
      "BodyPartExamined": "BRAIN",
      "Columns": 832,
      "EchoNumbers": 1,
      "EchoTime": 37.0,
      "EchoTrainLength": 104,
      "FlipAngle": 52.0,
      "HighBit": 15,
      "ImageOrientationPatient": [0.99780898320261, -0.0656436234699, -0.0082551643179, 0.05928078961625, 0.94246603571901, -0.3290038897925],
      "ImagePositionPatient": [-879.31060067579, -752.44115276824, 254.14895051557],
      "ImageType": [
        "ORIGINAL",
        "PRIMARY",
        "M",
        "MB",
        "ND",
        "MOSAIC"
],
      "ImagedNucleus": "1H",
      "ImagingFrequency": 123.259029,
      "InPlanePhaseEncodingDirection": "COL",
      "MRAcquisitionType": "2D",
      "MagneticFieldStrength": 3.0,
      "Manufacturer": "SIEMENS",
      "ManufacturerModelName": "Prisma_fit",
      "Modality": "MR",
      "NumberOfAverages": 1.0,
      "NumberOfPhaseEncodingSteps": 104,
      "PercentPhaseFieldOfView": 100.0,
      "PercentSampling": 100.0,
      "PerformedProcedureStepStartTime": "142222.043000",
      "PhotometricInterpretation": "MONOCHROME2",
      "PixelBandwidth": 2290.0,
      "PixelRepresentation": 0,
      "PixelSpacing": [2.0, 2.0],
      "ProtocolName": "func_task-friends-s04e14b",
      "RepetitionTime": 1490.0,
      "Rows": 832,
      "SAR": 0.0308535174894,
      "SamplesPerPixel": 1,
      "ScanOptions": "FS",
      "ScanningSequence": "EP",
      "SequenceName": "epfid2d1_104",
      "SequenceVariant": [
        "SK",
        "SS"
],
      "SeriesDescription": "func_task-friends-s04e14b",
      "SeriesNumber": 21,
      "SeriesTime": "161126.548000",
      "SliceLocation": -32.486199513262,
      "SliceThickness": 2.0,
      "SmallestImagePixelValue": 0,
      "SoftwareVersions": "syngo MR E11",
      "SpacingBetweenSlices": 1.9999999854092,
      "SpecificCharacterSet": "ISO_IR 100",
      "StudyID": "1",
      "StudyTime": "142221.863000",
      "TransmitCoilName": "Body",
      "VariableFlipAngleFlag": "N",
      "WindowCenterWidthExplanation": "Algo1",
      "dBdt": 0.0},
    "slices": {}
  },
  "time": {
    "samples": {
      "AcquisitionNumber": [1, 2, 3, 4, 5, 6, 7, 8, 9, 10, 11, 12, 13, 14, 15, 16, 17, 18, 19, 20, 21, 22, 23, 24, 25, 26, 27, 28, 29, 30, 31, 32, 33, 34, 35, 36, 37, 38, 39, 40, 41, 42, 43, 44, 45, 46, 47, 48, 49, 50, 51, 52, 53, 54, 55, 56, 57, 58, 59, 60, 61, 62, 63, 64, 65, 66, 67, 68, 69, 70, 71, 72, 73, 74, 75, 76, 77, 78, 79, 80, 81, 82, 83, 84, 85, 86, 87, 88, 89, 90, 91, 92, 93, 94, 95, 96, 97, 98, 99, 100, 101, 102, 103, 104, 105, 106, 107, 108, 109, 110, 111, 112, 113, 114, 115, 116, 117, 118, 119, 120, 121, 122, 123, 124, 125, 126, 127, 128, 129, 130, 131, 132, 133, 134, 135, 136, 137, 138, 139, 140, 141, 142, 143, 144, 145, 146, 147, 148, 149, 150, 151, 152, 153, 154, 155, 156, 157, 158, 159, 160, 161, 162, 163, 164, 165, 166, 167, 168, 169, 170, 171, 172, 173, 174, 175, 176, 177, 178, 179, 180, 181, 182, 183, 184, 185, 186, 187, 188, 189, 190, 191, 192, 193, 194, 195, 196, 197, 198, 199, 200, 201, 202, 203, 204, 205, 206, 207, 208, 209, 210, 211, 212, 213, 214, 215, 216, 217, 218, 219, 220, 221, 222, 223, 224, 225, 226, 227, 228, 229, 230, 231, 232, 233, 234, 235, 236, 237, 238, 239, 240, 241, 242, 243, 244, 245, 246, 247, 248, 249, 250, 251, 252, 253, 254, 255, 256, 257, 258, 259, 260, 261, 262, 263, 264, 265, 266, 267, 268, 269, 270, 271, 272, 273, 274, 275, 276, 277, 278, 279, 280, 281, 282, 283, 284, 285, 286, 287, 288, 289, 290, 291, 292, 293, 294, 295, 296, 297, 298, 299, 300, 301, 302, 303, 304, 305, 306, 307, 308, 309, 310, 311, 312, 313, 314, 315, 316, 317, 318, 319, 320, 321, 322, 323, 324, 325, 326, 327, 328, 329, 330, 331, 332, 333, 334, 335, 336, 337, 338, 339, 340, 341, 342, 343, 344, 345, 346, 347, 348, 349, 350, 351, 352, 353, 354, 355, 356, 357, 358, 359, 360, 361, 362, 363, 364, 365, 366, 367, 368, 369, 370, 371, 372, 373, 374, 375, 376, 377, 378, 379, 380, 381, 382, 383, 384, 385, 386, 387, 388, 389, 390, 391, 392, 393, 394, 395, 396, 397, 398, 399, 400, 401, 402, 403, 404, 405, 406, 407, 408, 409, 410, 411, 412, 413, 414, 415, 416, 417, 418, 419, 420, 421, 422, 423, 424, 425, 426, 427, 428, 429, 430, 431, 432, 433, 434, 435, 436, 437, 438, 439, 440, 441, 442, 443, 444, 445, 446, 447],
      "AcquisitionTime": ["161004.207500", "161005.697500", "161007.187500", "161008.677500", "161010.167500", "161011.657500", "161013.147500", "161014.637500", "161016.127500", "161017.617500", "161019.107500", "161020.597500", "161022.087500", "161023.577500", "161025.067500", "161026.557500", "161028.047500", "161029.537500", "161031.027500", "161032.517500", "161034.007500", "161035.497500", "161036.987500", "161038.477500", "161039.967500", "161041.457500", "161042.947500", "161044.437500", "161045.927500", "161047.417500", "161048.907500", "161050.397500", "161051.887500", "161053.377500", "161054.867500", "161056.357500", "161057.847500", "161059.337500", "161100.827500", "161102.317500", "161103.807500", "161105.297500", "161106.787500", "161108.277500", "161109.767500", "161111.257500", "161112.747500", "161114.237500", "161115.727500", "161117.217500", "161118.707500", "161120.197500", "161121.687500", "161123.177500", "161124.667500", "161126.157500", "161127.647500", "161129.137500", "161130.627500", "161132.117500", "161133.607500", "161135.097500", "161136.587500", "161138.077500", "161139.567500", "161141.057500", "161142.547500", "161144.037500", "161145.527500", "161147.017500", "161148.507500", "161149.997500", "161151.487500", "161152.977500", "161154.467500", "161155.957500", "161157.447500", "161158.937500", "161200.427500", "161201.917500", "161203.407500", "161204.897500", "161206.387500", "161207.877500", "161209.367500", "161210.857500", "161212.347500", "161213.837500", "161215.327500", "161216.817500", "161218.307500", "161219.797500", "161221.287500", "161222.777500", "161224.267500", "161225.757500", "161227.247500", "161228.737500", "161230.227500", "161231.717500", "161233.207500", "161234.697500", "161236.187500", "161237.677500", "161239.167500", "161240.657500", "161242.147500", "161243.637500", "161245.127500", "161246.617500", "161248.107500", "161249.597500", "161251.087500", "161252.577500", "161254.067500", "161255.557500", "161257.047500", "161258.537500", "161300.027500", "161301.517500", "161303.007500", "161304.497500", "161305.987500", "161307.477500", "161308.967500", "161310.457500", "161311.947500", "161313.437500", "161314.927500", "161316.417500", "161317.907500", "161319.397500", "161320.887500", "161322.377500", "161323.867500", "161325.357500", "161326.847500", "161328.337500", "161329.827500", "161331.317500", "161332.807500", "161334.297500", "161335.787500", "161337.277500", "161338.767500", "161340.257500", "161341.747500", "161343.237500", "161344.727500", "161346.217500", "161347.707500", "161349.197500", "161350.687500", "161352.177500", "161353.667500", "161355.157500", "161356.647500", "161358.137500", "161359.627500", "161401.117500", "161402.607500", "161404.097500", "161405.587500", "161407.077500", "161408.567500", "161410.057500", "161411.547500", "161413.037500", "161414.527500", "161416.017500", "161417.507500", "161418.997500", "161420.487500", "161421.977500", "161423.467500", "161424.957500", "161426.447500", "161427.937500", "161429.427500", "161430.917500", "161432.407500", "161433.897500", "161435.387500", "161436.877500", "161438.367500", "161439.857500", "161441.347500", "161442.837500", "161444.327500", "161445.817500", "161447.307500", "161448.797500", "161450.287500", "161451.777500", "161453.267500", "161454.757500", "161456.247500", "161457.737500", "161459.227500", "161500.717500", "161502.207500", "161503.697500", "161505.187500", "161506.677500", "161508.167500", "161509.657500", "161511.147500", "161512.637500", "161514.127500", "161515.617500", "161517.107500", "161518.597500", "161520.087500", "161521.577500", "161523.067500", "161524.557500", "161526.047500", "161527.537500", "161529.027500", "161530.517500", "161532.007500", "161533.497500", "161534.987500", "161536.477500", "161537.967500", "161539.457500", "161540.947500", "161542.437500", "161543.927500", "161545.417500", "161546.907500", "161548.397500", "161549.887500", "161551.377500", "161552.867500", "161554.357500", "161555.847500", "161557.337500", "161558.827500", "161600.317500", "161601.807500", "161603.297500", "161604.787500", "161606.277500", "161607.767500", "161609.257500", "161610.747500", "161612.237500", "161613.727500", "161615.217500", "161616.707500", "161618.197500", "161619.687500", "161621.177500", "161622.667500", "161624.157500", "161625.647500", "161627.137500", "161628.627500", "161630.117500", "161631.607500", "161633.097500", "161634.587500", "161636.077500", "161637.567500", "161639.057500", "161640.547500", "161642.037500", "161643.527500", "161645.017500", "161646.507500", "161647.997500", "161649.487500", "161650.977500", "161652.467500", "161653.957500", "161655.447500", "161656.937500", "161658.427500", "161659.917500", "161701.407500", "161702.897500", "161704.387500", "161705.877500", "161707.367500", "161708.857500", "161710.347500", "161711.837500", "161713.327500", "161714.817500", "161716.307500", "161717.797500", "161719.287500", "161720.777500", "161722.267500", "161723.757500", "161725.247500", "161726.737500", "161728.227500", "161729.717500", "161731.207500", "161732.697500", "161734.187500", "161735.677500", "161737.167500", "161738.657500", "161740.147500", "161741.637500", "161743.127500", "161744.617500", "161746.107500", "161747.597500", "161749.087500", "161750.577500", "161752.067500", "161753.557500", "161755.047500", "161756.537500", "161758.027500", "161759.517500", "161801.007500", "161802.497500", "161803.987500", "161805.477500", "161806.967500", "161808.457500", "161809.947500", "161811.437500", "161812.927500", "161814.417500", "161815.907500", "161817.397500", "161818.887500", "161820.377500", "161821.867500", "161823.357500", "161824.847500", "161826.337500", "161827.827500", "161829.317500", "161830.807500", "161832.297500", "161833.787500", "161835.277500", "161836.767500", "161838.257500", "161839.747500", "161841.237500", "161842.727500", "161844.217500", "161845.707500", "161847.197500", "161848.687500", "161850.177500", "161851.667500", "161853.157500", "161854.647500", "161856.137500", "161857.627500", "161859.117500", "161900.607500", "161902.097500", "161903.587500", "161905.077500", "161906.567500", "161908.057500", "161909.547500", "161911.037500", "161912.527500", "161914.017500", "161915.507500", "161916.997500", "161918.487500", "161919.977500", "161921.467500", "161922.957500", "161924.447500", "161925.937500", "161927.427500", "161928.917500", "161930.407500", "161931.897500", "161933.387500", "161934.877500", "161936.367500", "161937.857500", "161939.347500", "161940.837500", "161942.327500", "161943.817500", "161945.307500", "161946.797500", "161948.287500", "161949.777500", "161951.267500", "161952.757500", "161954.247500", "161955.737500", "161957.227500", "161958.717500", "162000.207500", "162001.697500", "162003.187500", "162004.677500", "162006.167500", "162007.657500", "162009.147500", "162010.637500", "162012.127500", "162013.617500", "162015.107500", "162016.597500", "162018.087500", "162019.577500", "162021.067500", "162022.557500", "162024.047500", "162025.537500", "162027.027500", "162028.517500", "162030.007500", "162031.497500", "162032.987500", "162034.477500", "162035.967500", "162037.457500", "162038.947500", "162040.437500", "162041.927500", "162043.417500", "162044.907500", "162046.397500", "162047.887500", "162049.377500", "162050.867500", "162052.357500", "162053.847500", "162055.337500", "162056.827500", "162058.317500", "162059.807500", "162101.297500", "162102.787500", "162104.277500", "162105.767500", "162107.257500", "162108.747500"],
      "ContentTime": ["161126.550000", "161126.554000", "161126.557000", "161126.560000", "161126.563000", "161126.566000", "161126.569000", "161126.572000", "161126.575000", "161126.583000", "161126.586000", "161126.589000", "161126.592000", "161126.595000", "161126.598000", "161126.601000", "161126.603000", "161126.606000", "161126.609000", "161126.612000", "161126.615000", "161126.618000", "161126.621000", "161126.624000", "161126.627000", "161126.630000", "161126.633000", "161126.636000", "161146.521000", "161146.524000", "161146.527000", "161146.530000", "161146.533000", "161146.536000", "161146.538000", "161146.541000", "161146.547000", "161146.550000", "161146.553000", "161146.556000", "161146.559000", "161146.562000", "161146.565000", "161146.568000", "161146.571000", "161146.573000", "161146.576000", "161146.579000", "161206.521000", "161206.524000", "161206.527000", "161206.530000", "161206.535000", "161206.538000", "161206.541000", "161206.543000", "161206.546000", "161206.549000", "161206.552000", "161206.555000", "161206.558000", "161206.561000", "161206.564000", "161206.566000", "161206.570000", "161206.572000", "161206.575000", "161206.578000", "161226.521000", "161226.524000", "161226.527000", "161226.530000", "161226.533000", "161226.536000", "161226.539000", "161226.541000", "161226.544000", "161226.555000", "161226.558000", "161226.561000", "161226.564000", "161226.567000", "161226.570000", "161226.572000", "161226.575000", "161226.578000", "161226.581000", "161226.584000", "161246.520000", "161246.523000", "161246.526000", "161246.529000", "161246.532000", "161246.534000", "161246.537000", "161246.540000", "161246.543000", "161246.546000", "161246.549000", "161246.552000", "161246.555000", "161246.563000", "161246.566000", "161246.569000", "161246.572000", "161246.575000", "161246.578000", "161246.581000", "161326.520000", "161326.523000", "161326.526000", "161326.529000", "161326.532000", "161326.535000", "161326.538000", "161326.541000", "161326.544000", "161326.546000", "161326.549000", "161326.552000", "161326.555000", "161326.558000", "161326.561000", "161326.564000", "161326.567000", "161326.570000", "161326.573000", "161326.575000", "161326.578000", "161326.581000", "161326.584000", "161326.587000", "161326.590000", "161326.593000", "161326.604000", "161406.521000", "161406.524000", "161406.527000", "161406.530000", "161406.533000", "161406.536000", "161406.539000", "161406.542000", "161406.544000", "161406.547000", "161406.550000", "161406.553000", "161406.556000", "161406.559000", "161406.562000", "161406.565000", "161406.568000", "161406.571000", "161406.573000", "161406.576000", "161406.579000", "161406.582000", "161406.585000", "161406.588000", "161406.591000", "161406.594000", "161406.597000", "161446.521000", "161446.524000", "161446.527000", "161446.530000", "161446.533000", "161446.536000", "161446.539000", "161446.542000", "161446.545000", "161446.548000", "161446.551000", "161446.554000", "161446.556000", "161446.559000", "161446.562000", "161446.565000", "161446.568000", "161446.571000", "161446.574000", "161446.577000", "161446.580000", "161446.583000", "161446.586000", "161446.589000", "161446.592000", "161446.609000", "161446.612000", "161526.520000", "161526.523000", "161526.526000", "161526.529000", "161526.532000", "161526.535000", "161526.538000", "161526.541000", "161526.544000", "161526.547000", "161526.550000", "161526.553000", "161526.556000", "161526.559000", "161526.561000", "161526.564000", "161526.568000", "161526.570000", "161526.573000", "161526.576000", "161526.579000", "161526.582000", "161526.585000", "161526.588000", "161526.591000", "161526.594000", "161606.520000", "161606.523000", "161606.526000", "161606.529000", "161606.532000", "161606.535000", "161606.538000", "161606.540000", "161606.543000", "161606.546000", "161606.549000", "161606.552000", "161606.555000", "161606.558000", "161606.561000", "161606.564000", "161606.567000", "161606.570000", "161606.573000", "161606.576000", "161606.579000", "161606.582000", "161606.585000", "161606.588000", "161606.590000", "161606.593000", "161606.596000", "161646.521000", "161646.524000", "161646.527000", "161646.530000", "161646.533000", "161646.536000", "161646.539000", "161646.542000", "161646.545000", "161646.547000", "161646.558000", "161646.561000", "161646.564000", "161646.567000", "161646.570000", "161646.573000", "161646.576000", "161646.579000", "161646.582000", "161646.585000", "161646.588000", "161646.590000", "161646.593000", "161646.596000", "161646.599000", "161646.602000", "161646.605000", "161726.520000", "161726.523000", "161726.526000", "161726.529000", "161726.532000", "161726.535000", "161726.538000", "161726.541000", "161726.544000", "161726.547000", "161726.550000", "161726.552000", "161726.555000", "161726.558000", "161726.561000", "161726.564000", "161726.567000", "161726.570000", "161726.573000", "161726.576000", "161726.579000", "161726.582000", "161726.585000", "161726.587000", "161726.590000", "161726.593000", "161726.596000", "161806.520000", "161806.523000", "161806.526000", "161806.529000", "161806.532000", "161806.535000", "161806.538000", "161806.541000", "161806.544000", "161806.546000", "161806.549000", "161806.552000", "161806.555000", "161806.558000", "161806.561000", "161806.564000", "161806.567000", "161806.570000", "161806.573000", "161806.576000", "161806.579000", "161806.582000", "161806.584000", "161806.587000", "161806.590000", "161806.593000", "161806.596000", "161846.521000", "161846.524000", "161846.527000", "161846.530000", "161846.533000", "161846.536000", "161846.539000", "161846.542000", "161846.545000", "161846.547000", "161846.550000", "161846.553000", "161846.556000", "161846.559000", "161846.562000", "161846.565000", "161846.568000", "161846.571000", "161846.574000", "161846.577000", "161846.580000", "161846.583000", "161846.586000", "161846.588000", "161846.591000", "161846.594000", "161846.597000", "161926.521000", "161926.524000", "161926.527000", "161926.530000", "161926.533000", "161926.536000", "161926.539000", "161926.542000", "161926.545000", "161926.547000", "161926.550000", "161926.553000", "161926.556000", "161926.559000", "161926.562000", "161926.565000", "161926.568000", "161926.571000", "161926.574000", "161926.577000", "161926.580000", "161926.583000", "161926.586000", "161926.589000", "161926.592000", "161926.608000", "161926.611000", "162006.520000", "162006.523000", "162006.526000", "162006.529000", "162006.532000", "162006.535000", "162006.538000", "162006.541000", "162006.543000", "162006.546000", "162006.550000", "162006.554000", "162006.557000", "162006.560000", "162006.562000", "162006.565000", "162006.568000", "162006.571000", "162006.574000", "162006.577000", "162006.580000", "162006.583000", "162006.586000", "162006.589000", "162006.592000", "162006.595000", "162046.520000", "162046.523000", "162046.526000", "162046.529000", "162046.532000", "162046.535000", "162046.538000", "162046.541000", "162046.543000", "162046.546000", "162046.549000", "162046.552000", "162046.555000", "162046.558000", "162046.561000", "162046.564000", "162046.567000", "162046.570000", "162046.573000", "162046.576000", "162046.579000", "162046.582000", "162046.585000", "162046.587000", "162046.590000", "162046.593000", "162046.596000", "162110.802000", "162110.805000", "162110.808000", "162110.811000", "162110.814000", "162110.817000", "162110.820000", "162110.823000", "162110.826000", "162110.829000", "162110.833000", "162110.836000", "162110.839000", "162110.842000", "162110.845000", "162110.848000", "162110.851000"],
