{
  "AcquisitionMatrixPE": 104,
  "AcquisitionNumber": 1,
  "AcquisitionTime": "15:23:0.027500",
  "BandwidthPerPixelPhaseEncode": 17.17,
  "BaseResolution": 104,
  "BodyPartExamined": "BRAIN",
  "CoilString": "HC1-7;NC1_2",
  "ConsistencyInfo": "N4_VE11C_LATEST_20160120",
  "ConversionSoftware": "dcm2niix",
  "ConversionSoftwareVersion": "v1.0.20190902",
  "DerivedVendorReportedEchoSpacing": 0.000560011,
  "DeviceSerialNumber": "167006",
  "DwellTime": 2.1e-06,
  "EchoTime": 0.037,
  "EchoTrainLength": 104,
  "EffectiveEchoSpacing": 0.000560011,
  "FlipAngle": 52,
  "ImageComments": "Unaliased_MB4_PE3_LB",
  "ImageOrientationPatientDICOM": [0.997809, -0.0656436, -0.00825516, 0.0592808, 0.942466, -0.329004],
  "ImageType": [
    "ORIGINAL",
    "PRIMARY",
    "M",
    "MB",
    "ND",
    "MOSAIC"
],
  "ImagingFrequency": 123.259,
  "InPlanePhaseEncodingDirectionDICOM": "COL",
  "InstitutionAddress": "Chemin_Queen-Mary_4565_Montreal_District_CA_H3W_1W5",
  "InstitutionName": "IUGM",
  "InstitutionalDepartmentName": "Department",
  "MRAcquisitionType": "2D",
  "MagneticFieldStrength": 3,
  "Manufacturer": "Siemens",
  "ManufacturersModelName": "Prisma_fit",
  "Modality": "MR",
  "MultibandAccelerationFactor": 4,
  "PartialFourier": 1,
  "PatientPosition": "HFS",
  "PercentPhaseFOV": 100,
  "PhaseEncodingDirection": "j",
  "PhaseEncodingSteps": 104,
  "PhaseResolution": 1,
  "PixelBandwidth": 2290,
  "ProcedureStepDescription": "video_friends",
  "ProtocolName": "func_task-friends-s04e12b",
  "PulseSequenceDetails": "%CustomerSeq%_cmrr_mbep2d_bold",
  "ReceiveCoilActiveElements": "HC1-7;NC1,2",
  "ReceiveCoilName": "HeadNeck_64",
  "ReconMatrixPE": 104,
  "RepetitionTime": 1.49,
  "SAR": 0.0308591,
  "ScanOptions": "FS",
  "ScanningSequence": "EP",
  "SequenceName": "epfid2d1_104",
  "SequenceVariant": "SK_SS",
  "SeriesDescription": "func_task-friends-s04e12b",
  "SeriesNumber": 13,
  "ShimSetting": [626, -7269, -8815, 611, -13, -231, -56, 8],
  "SliceThickness": 2,
  "SliceTiming": [0, 0.7825, 0.0975, 0.8825, 0.195, 0.98, 0.2925, 1.0775, 0.3925, 1.175, 0.49, 1.2725, 0.5875, 1.3725, 0.685, 0, 0.7825, 0.0975, 0.8825, 0.195, 0.98, 0.2925, 1.0775, 0.3925, 1.175, 0.49, 1.2725, 0.5875, 1.3725, 0.685, 0, 0.7825, 0.0975, 0.8825, 0.195, 0.98, 0.2925, 1.0775, 0.3925, 1.175, 0.49, 1.2725, 0.5875, 1.3725, 0.685, 0, 0.7825, 0.0975, 0.8825, 0.195, 0.98, 0.2925, 1.0775, 0.3925, 1.175, 0.49, 1.2725, 0.5875, 1.3725, 0.685],
  "SoftwareVersions": "syngo_MR_E11",
  "SpacingBetweenSlices": 2,
  "StationName": "MRC35049",
  "TaskName": "s04e12b",
  "TotalReadoutTime": 0.0576811,
  "TxRefAmp": 218.396,
  "WipMemBlock": "4edb4dc3-705a-49ee-bfa3-ddcf64932705||Sequence: R016 ve11c/master r/e634e98; Dec 19 2017 11:00:25 by eja",
  "dcmmeta_affine": [
    [-1.9956179857254028, 0.11856158077716827, -0.058754436671733856, 97.53740692138672],
    [0.13128724694252014, 1.884932041168213, -0.6555873155593872, -80.0335693359375],
    [-0.01651032827794552, 0.658007800579071, 1.8885849714279175, -59.15044403076172],
    [0.0, 0.0, 0.0, 1.0]
],
  "dcmmeta_reorient_transform": [
    [0.0, -1.0, 0.0, 103.0],
    [1.0, 0.0, 0.0, 0.0],
    [0.0, 0.0, 1.0, 0.0],
    [0.0, 0.0, 0.0, 1.0]
],
  "dcmmeta_shape": [104, 104, 60, 466],
  "dcmmeta_slice_dim": 2,
  "dcmmeta_version": 0.6,
  "global": {
    "const": {
      "AcquisitionMatrix": [104, 0, 0, 104],
      "AngioFlag": "N",
      "BitsAllocated": 16,
      "BitsStored": 16,
      "BodyPartExamined": "BRAIN",
      "Columns": 832,
      "EchoNumbers": 1,
      "EchoTime": 37.0,
      "EchoTrainLength": 104,
      "FlipAngle": 52.0,
      "HighBit": 15,
      "ImageOrientationPatient": [0.99780898320261, -0.0656436234699, -0.0082551643179, 0.05928078961625, 0.94246603571901, -0.3290038897925],
      "ImagePositionPatient": [-879.31060067579, -752.44115276824, 254.14895051557],
      "ImageType": [
        "ORIGINAL",
        "PRIMARY",
        "M",
        "MB",
        "ND",
        "MOSAIC"
],
      "ImagedNucleus": "1H",
      "ImagingFrequency": 123.259004,
      "InPlanePhaseEncodingDirection": "COL",
      "MRAcquisitionType": "2D",
      "MagneticFieldStrength": 3.0,
      "Manufacturer": "SIEMENS",
      "ManufacturerModelName": "Prisma_fit",
      "Modality": "MR",
      "NumberOfAverages": 1.0,
      "NumberOfPhaseEncodingSteps": 104,
      "PercentPhaseFieldOfView": 100.0,
      "PercentSampling": 100.0,
      "PerformedProcedureStepStartTime": "142222.043000",
      "PhotometricInterpretation": "MONOCHROME2",
      "PixelBandwidth": 2290.0,
      "PixelRepresentation": 0,
      "PixelSpacing": [2.0, 2.0],
      "ProtocolName": "func_task-friends-s04e12b",
      "RepetitionTime": 1490.0,
      "Rows": 832,
      "SAR": 0.03085907414009,
      "SamplesPerPixel": 1,
      "ScanOptions": "FS",
      "ScanningSequence": "EP",
      "SequenceName": "epfid2d1_104",
      "SequenceVariant": [
        "SK",
        "SS"
],
      "SeriesDescription": "func_task-friends-s04e12b",
      "SeriesNumber": 13,
      "SeriesTime": "152406.408000",
      "SliceLocation": -32.486199513262,
      "SliceThickness": 2.0,
      "SmallestImagePixelValue": 0,
      "SoftwareVersions": "syngo MR E11",
      "SpacingBetweenSlices": 1.9999999854092,
      "SpecificCharacterSet": "ISO_IR 100",
      "StudyID": "1",
      "StudyTime": "142221.863000",
      "TransmitCoilName": "Body",
      "VariableFlipAngleFlag": "N",
      "WindowCenterWidthExplanation": "Algo1",
      "dBdt": 0.0},
    "slices": {}
  },
  "time": {
    "samples": {
      "AcquisitionNumber": [1, 2, 3, 4, 5, 6, 7, 8, 9, 10, 11, 12, 13, 14, 15, 16, 17, 18, 19, 20, 21, 22, 23, 24, 25, 26, 27, 28, 29, 30, 31, 32, 33, 34, 35, 36, 37, 38, 39, 40, 41, 42, 43, 44, 45, 46, 47, 48, 49, 50, 51, 52, 53, 54, 55, 56, 57, 58, 59, 60, 61, 62, 63, 64, 65, 66, 67, 68, 69, 70, 71, 72, 73, 74, 75, 76, 77, 78, 79, 80, 81, 82, 83, 84, 85, 86, 87, 88, 89, 90, 91, 92, 93, 94, 95, 96, 97, 98, 99, 100, 101, 102, 103, 104, 105, 106, 107, 108, 109, 110, 111, 112, 113, 114, 115, 116, 117, 118, 119, 120, 121, 122, 123, 124, 125, 126, 127, 128, 129, 130, 131, 132, 133, 134, 135, 136, 137, 138, 139, 140, 141, 142, 143, 144, 145, 146, 147, 148, 149, 150, 151, 152, 153, 154, 155, 156, 157, 158, 159, 160, 161, 162, 163, 164, 165, 166, 167, 168, 169, 170, 171, 172, 173, 174, 175, 176, 177, 178, 179, 180, 181, 182, 183, 184, 185, 186, 187, 188, 189, 190, 191, 192, 193, 194, 195, 196, 197, 198, 199, 200, 201, 202, 203, 204, 205, 206, 207, 208, 209, 210, 211, 212, 213, 214, 215, 216, 217, 218, 219, 220, 221, 222, 223, 224, 225, 226, 227, 228, 229, 230, 231, 232, 233, 234, 235, 236, 237, 238, 239, 240, 241, 242, 243, 244, 245, 246, 247, 248, 249, 250, 251, 252, 253, 254, 255, 256, 257, 258, 259, 260, 261, 262, 263, 264, 265, 266, 267, 268, 269, 270, 271, 272, 273, 274, 275, 276, 277, 278, 279, 280, 281, 282, 283, 284, 285, 286, 287, 288, 289, 290, 291, 292, 293, 294, 295, 296, 297, 298, 299, 300, 301, 302, 303, 304, 305, 306, 307, 308, 309, 310, 311, 312, 313, 314, 315, 316, 317, 318, 319, 320, 321, 322, 323, 324, 325, 326, 327, 328, 329, 330, 331, 332, 333, 334, 335, 336, 337, 338, 339, 340, 341, 342, 343, 344, 345, 346, 347, 348, 349, 350, 351, 352, 353, 354, 355, 356, 357, 358, 359, 360, 361, 362, 363, 364, 365, 366, 367, 368, 369, 370, 371, 372, 373, 374, 375, 376, 377, 378, 379, 380, 381, 382, 383, 384, 385, 386, 387, 388, 389, 390, 391, 392, 393, 394, 395, 396, 397, 398, 399, 400, 401, 402, 403, 404, 405, 406, 407, 408, 409, 410, 411, 412, 413, 414, 415, 416, 417, 418, 419, 420, 421, 422, 423, 424, 425, 426, 427, 428, 429, 430, 431, 432, 433, 434, 435, 436, 437, 438, 439, 440, 441, 442, 443, 444, 445, 446, 447, 448, 449, 450, 451, 452, 453, 454, 455, 456, 457, 458, 459, 460, 461, 462, 463, 464, 465, 466],
      "AcquisitionTime": ["152300.027500", "152301.517500", "152303.007500", "152304.497500", "152305.987500", "152307.477500", "152308.967500", "152310.457500", "152311.947500", "152313.437500", "152314.927500", "152316.417500", "152317.907500", "152319.397500", "152320.887500", "152322.377500", "152323.867500", "152325.357500", "152326.847500", "152328.337500", "152329.827500", "152331.317500", "152332.807500", "152334.297500", "152335.787500", "152337.277500", "152338.767500", "152340.257500", "152341.747500", "152343.237500", "152344.727500", "152346.217500", "152347.707500", "152349.197500", "152350.687500", "152352.177500", "152353.667500", "152355.157500", "152356.647500", "152358.137500", "152359.627500", "152401.117500", "152402.607500", "152404.097500", "152405.587500", "152407.077500", "152408.567500", "152410.057500", "152411.547500", "152413.037500", "152414.527500", "152416.017500", "152417.507500", "152418.997500", "152420.487500", "152421.977500", "152423.467500", "152424.957500", "152426.447500", "152427.937500", "152429.427500", "152430.917500", "152432.407500", "152433.897500", "152435.387500", "152436.877500", "152438.367500", "152439.857500", "152441.347500", "152442.837500", "152444.327500", "152445.817500", "152447.307500", "152448.797500", "152450.287500", "152451.777500", "152453.267500", "152454.757500", "152456.247500", "152457.737500", "152459.227500", "152500.717500", "152502.207500", "152503.697500", "152505.187500", "152506.677500", "152508.167500", "152509.657500", "152511.147500", "152512.637500", "152514.127500", "152515.617500", "152517.107500", "152518.597500", "152520.087500", "152521.577500", "152523.067500", "152524.557500", "152526.047500", "152527.537500", "152529.027500", "152530.517500", "152532.007500", "152533.497500", "152534.987500", "152536.477500", "152537.967500", "152539.457500", "152540.947500", "152542.437500", "152543.927500", "152545.417500", "152546.907500", "152548.397500", "152549.887500", "152551.377500", "152552.867500", "152554.357500", "152555.847500", "152557.337500", "152558.827500", "152600.317500", "152601.807500", "152603.297500", "152604.787500", "152606.277500", "152607.767500", "152609.257500", "152610.747500", "152612.237500", "152613.727500", "152615.217500", "152616.707500", "152618.197500", "152619.687500", "152621.177500", "152622.667500", "152624.157500", "152625.647500", "152627.137500", "152628.627500", "152630.117500", "152631.607500", "152633.097500", "152634.587500", "152636.077500", "152637.567500", "152639.057500", "152640.547500", "152642.037500", "152643.527500", "152645.017500", "152646.507500", "152647.997500", "152649.487500", "152650.977500", "152652.467500", "152653.957500", "152655.447500", "152656.937500", "152658.427500", "152659.917500", "152701.407500", "152702.897500", "152704.387500", "152705.877500", "152707.367500", "152708.857500", "152710.347500", "152711.837500", "152713.327500", "152714.817500", "152716.307500", "152717.797500", "152719.287500", "152720.777500", "152722.267500", "152723.757500", "152725.247500", "152726.737500", "152728.227500", "152729.717500", "152731.207500", "152732.697500", "152734.187500", "152735.677500", "152737.167500", "152738.657500", "152740.147500", "152741.637500", "152743.127500", "152744.617500", "152746.107500", "152747.597500", "152749.087500", "152750.577500", "152752.067500", "152753.557500", "152755.047500", "152756.537500", "152758.027500", "152759.517500", "152801.007500", "152802.497500", "152803.987500", "152805.477500", "152806.967500", "152808.457500", "152809.947500", "152811.437500", "152812.927500", "152814.417500", "152815.907500", "152817.397500", "152818.887500", "152820.377500", "152821.867500", "152823.357500", "152824.847500", "152826.337500", "152827.827500", "152829.317500", "152830.807500", "152832.297500", "152833.787500", "152835.277500", "152836.767500", "152838.257500", "152839.747500", "152841.237500", "152842.727500", "152844.217500", "152845.707500", "152847.197500", "152848.687500", "152850.177500", "152851.667500", "152853.157500", "152854.647500", "152856.137500", "152857.627500", "152859.117500", "152900.607500", "152902.097500", "152903.587500", "152905.077500", "152906.567500", "152908.057500", "152909.547500", "152911.037500", "152912.527500", "152914.017500", "152915.507500", "152916.997500", "152918.487500", "152919.977500", "152921.467500", "152922.957500", "152924.447500", "152925.937500", "152927.427500", "152928.917500", "152930.407500", "152931.897500", "152933.387500", "152934.877500", "152936.367500", "152937.857500", "152939.347500", "152940.837500", "152942.327500", "152943.817500", "152945.307500", "152946.797500", "152948.287500", "152949.777500", "152951.267500", "152952.757500", "152954.247500", "152955.737500", "152957.227500", "152958.717500", "153000.207500", "153001.697500", "153003.187500", "153004.677500", "153006.167500", "153007.657500", "153009.147500", "153010.637500", "153012.127500", "153013.617500", "153015.107500", "153016.597500", "153018.087500", "153019.577500", "153021.067500", "153022.557500", "153024.047500", "153025.537500", "153027.027500", "153028.517500", "153030.007500", "153031.497500", "153032.987500", "153034.477500", "153035.967500", "153037.457500", "153038.947500", "153040.437500", "153041.927500", "153043.417500", "153044.907500", "153046.397500", "153047.887500", "153049.377500", "153050.867500", "153052.357500", "153053.847500", "153055.337500", "153056.827500", "153058.317500", "153059.807500", "153101.297500", "153102.787500", "153104.277500", "153105.767500", "153107.257500", "153108.747500", "153110.237500", "153111.727500", "153113.217500", "153114.707500", "153116.197500", "153117.687500", "153119.177500", "153120.667500", "153122.157500", "153123.647500", "153125.137500", "153126.627500", "153128.117500", "153129.607500", "153131.097500", "153132.587500", "153134.077500", "153135.567500", "153137.057500", "153138.547500", "153140.037500", "153141.527500", "153143.017500", "153144.507500", "153145.997500", "153147.487500", "153148.977500", "153150.467500", "153151.957500", "153153.447500", "153154.937500", "153156.427500", "153157.917500", "153159.407500", "153200.897500", "153202.387500", "153203.877500", "153205.367500", "153206.857500", "153208.347500", "153209.837500", "153211.327500", "153212.817500", "153214.307500", "153215.797500", "153217.287500", "153218.777500", "153220.267500", "153221.757500", "153223.247500", "153224.737500", "153226.227500", "153227.717500", "153229.207500", "153230.697500", "153232.187500", "153233.677500", "153235.167500", "153236.657500", "153238.147500", "153239.637500", "153241.127500", "153242.617500", "153244.107500", "153245.597500", "153247.087500", "153248.577500", "153250.067500", "153251.557500", "153253.047500", "153254.537500", "153256.027500", "153257.517500", "153259.007500", "153300.497500", "153301.987500", "153303.477500", "153304.967500", "153306.457500", "153307.947500", "153309.437500", "153310.927500", "153312.417500", "153313.907500", "153315.397500", "153316.887500", "153318.377500", "153319.867500", "153321.357500", "153322.847500", "153324.337500", "153325.827500", "153327.317500", "153328.807500", "153330.297500", "153331.787500", "153333.277500", "153334.767500", "153336.257500", "153337.747500", "153339.237500", "153340.727500", "153342.217500", "153343.707500", "153345.197500", "153346.687500", "153348.177500", "153349.667500", "153351.157500", "153352.647500", "153354.137500", "153355.627500", "153357.117500", "153358.607500", "153400.097500", "153401.587500", "153403.077500", "153404.567500", "153406.057500", "153407.547500", "153409.037500", "153410.527500", "153412.017500", "153413.507500", "153414.997500", "153416.487500", "153417.977500", "153419.467500", "153420.957500", "153422.447500", "153423.937500", "153425.427500", "153426.917500", "153428.407500", "153429.897500", "153431.387500", "153432.877500"],
      "ContentTime": ["152406.411000", "152406.414000", "152406.417000", "152406.420000", "152406.423000", "152406.426000", "152406.429000", "152406.432000", "152406.435000", "152406.438000", "152406.440000", "152406.454000", "152406.457000", "152406.460000", "152426.382000", "152426.385000", "152426.388000", "152426.391000", "152426.394000", "152426.405000", "152426.408000", "152426.411000", "152426.414000", "152426.417000", "152426.420000", "152426.422000", "152426.425000", "152426.428000", "152426.431000", "152426.434000", "152426.437000", "152426.440000", "152426.443000", "152426.446000", "152446.382000", "152446.385000", "152446.395000", "152446.398000", "152446.401000", "152446.403000", "152446.406000", "152446.409000", "152446.412000", "152446.415000", "152446.418000", "152446.421000", "152446.424000", "152446.427000", "152446.429000", "152446.432000", "152446.435000", "152446.438000", "152446.441000", "152446.444000", "152506.382000", "152506.385000", "152506.388000", "152506.391000", "152506.394000", "152506.397000", "152506.399000", "152506.402000", "152506.405000", "152506.408000", "152506.411000", "152506.414000", "152506.417000", "152506.420000", "152506.422000", "152506.425000", "152506.428000", "152506.431000", "152506.434000", "152506.437000", "152506.440000", "152526.383000", "152526.386000", "152526.389000", "152526.392000", "152526.395000", "152526.398000", "152526.400000", "152526.403000", "152526.406000", "152526.409000", "152526.412000", "152526.415000", "152526.418000", "152526.420000", "152526.423000", "152526.426000", "152526.429000", "152526.439000", "152526.442000", "152526.445000", "152606.383000", "152606.386000", "152606.389000", "152606.392000", "152606.395000", "152606.398000", "152606.401000", "152606.403000", "152606.406000", "152606.409000", "152606.412000", "152606.415000", "152606.418000", "152606.421000", "152606.424000", "152606.427000", "152606.430000", "152606.433000", "152606.436000", "152606.439000", "152606.442000", "152606.444000", "152606.447000", "152606.450000", "152606.453000", "152606.456000", "152606.459000", "152606.462000", "152606.465000", "152646.382000", "152646.385000", "152646.388000", "152646.391000", "152646.394000", "152646.397000", "152646.400000", "152646.402000", "152646.405000", "152646.408000", "152646.411000", "152646.414000", "152646.417000", "152646.420000", "152646.423000", "152646.426000", "152646.429000", "152646.432000", "152646.434000", "152646.437000", "152646.440000", "152646.443000", "152646.446000", "152646.449000", "152646.452000", "152646.455000", "152646.458000", "152726.382000", "152726.385000", "152726.388000", "152726.391000", "152726.394000", "152726.397000", "152726.400000", "152726.403000", "152726.406000", "152726.409000", "152726.412000", "152726.415000", "152726.418000", "152726.421000", "152726.424000", "152726.426000", "152726.429000", "152726.432000", "152726.435000", "152726.438000", "152726.441000", "152726.444000", "152726.447000", "152726.450000", "152726.452000", "152726.455000", "152726.458000", "152806.383000", "152806.386000", "152806.389000", "152806.392000", "152806.395000", "152806.398000", "152806.401000", "152806.404000", "152806.406000", "152806.409000", "152806.412000", "152806.415000", "152806.418000", "152806.421000", "152806.424000", "152806.427000", "152806.430000", "152806.433000", "152806.436000", "152806.439000", "152806.442000", "152806.444000", "152806.447000", "152806.450000", "152806.453000", "152806.456000", "152806.459000", "152846.382000", "152846.385000", "152846.388000", "152846.391000", "152846.394000", "152846.397000", "152846.406000", "152846.409000", "152846.412000", "152846.415000", "152846.418000", "152846.421000", "152846.424000", "152846.427000", "152846.430000", "152846.439000", "152846.442000", "152846.445000", "152846.448000", "152846.451000", "152846.454000", "152846.457000", "152846.460000", "152846.463000", "152846.466000", "152846.468000", "152846.471000", "152926.382000", "152926.385000", "152926.388000", "152926.391000", "152926.394000", "152926.397000", "152926.400000", "152926.403000", "152926.406000", "152926.409000", "152926.412000", "152926.415000", "152926.417000", "152926.438000", "152926.441000", "152926.444000", "152926.446000", "152926.449000", "152926.452000", "152926.455000", "152926.458000", "152926.461000", "152926.464000", "152926.467000", "152926.470000", "152926.473000", "152926.476000", "153006.383000", "153006.386000", "153006.389000", "153006.392000", "153006.395000", "153006.398000", "153006.401000", "153006.404000", "153006.407000", "153006.410000", "153006.413000", "153006.415000", "153006.418000", "153006.421000", "153006.424000", "153006.427000", "153006.430000", "153006.433000", "153006.436000", "153006.439000", "153006.442000", "153006.444000", "153006.447000", "153006.450000", "153006.453000", "153006.456000", "153046.383000", "153046.386000", "153046.389000", "153046.392000", "153046.395000", "153046.398000", "153046.401000", "153046.404000", "153046.407000", "153046.421000", "153046.424000", "153046.426000", "153046.429000", "153046.432000", "153046.435000", "153046.438000", "153046.441000", "153046.444000", "153046.447000", "153046.450000", "153046.453000", "153046.456000", "153046.458000", "153046.461000", "153046.464000", "153046.467000", "153046.470000", "153126.382000", "153126.385000", "153126.388000", "153126.391000", "153126.394000", "153126.397000", "153126.400000", "153126.403000", "153126.405000", "153126.408000", "153126.411000", "153126.414000", "153126.417000", "153126.420000", "153126.423000", "153126.426000", "153126.429000", "153126.432000", "153126.435000", "153126.438000", "153126.440000", "153126.443000", "153126.446000", "153126.449000", "153126.452000", "153126.455000", "153126.458000", "153206.382000", "153206.385000", "153206.388000", "153206.391000", "153206.394000", "153206.397000", "153206.400000", "153206.403000", "153206.406000", "153206.409000", "153206.412000", "153206.414000", "153206.417000", "153206.420000", "153206.423000", "153206.426000", "153206.429000", "153206.432000", "153206.435000", "153206.438000", "153206.441000", "153206.444000", "153206.446000", "153206.449000", "153206.452000", "153206.455000", "153206.458000", "153246.383000", "153246.386000", "153246.389000", "153246.392000", "153246.395000", "153246.398000", "153246.401000", "153246.404000", "153246.407000", "153246.410000", "153246.413000", "153246.415000", "153246.418000", "153246.421000", "153246.424000", "153246.427000", "153246.430000", "153246.433000", "153246.436000", "153246.439000", "153246.442000", "153246.445000", "153246.447000", "153246.450000", "153246.453000", "153246.456000", "153246.459000", "153306.383000", "153306.386000", "153306.389000", "153306.392000", "153306.395000", "153306.398000", "153306.401000", "153306.404000", "153306.407000", "153306.410000", "153306.412000", "153306.415000", "153306.418000", "153346.382000", "153346.385000", "153346.388000", "153346.391000", "153346.394000", "153346.397000", "153346.400000", "153346.403000", "153346.406000", "153346.409000", "153346.411000", "153346.414000", "153346.417000", "153346.420000", "153346.423000", "153346.426000", "153346.429000", "153346.432000", "153346.435000", "153346.437000", "153346.440000", "153346.443000", "153346.446000", "153346.449000", "153346.452000", "153346.455000", "153346.458000", "153426.382000", "153426.385000", "153426.388000", "153426.391000", "153426.394000", "153426.397000", "153426.400000", "153426.403000", "153426.406000", "153426.409000", "153426.412000", "153426.415000", "153426.418000", "153426.421000", "153426.424000", "153426.426000", "153426.429000", "153426.432000", "153426.435000", "153426.438000", "153426.441000", "153426.444000", "153426.447000", "153426.450000", "153426.453000", "153426.456000", "153426.459000", "153434.654000", "153434.657000", "153434.660000", "153434.663000", "153434.666000", "153434.669000"],
