{
  "AcquisitionMatrixPE": 104,
  "AcquisitionNumber": 1,
  "AcquisitionTime": "16:04:34.917500",
  "BandwidthPerPixelPhaseEncode": 17.17,
  "BaseResolution": 104,
  "BodyPartExamined": "BRAIN",
  "CoilString": "HC1-7;NC1_2",
  "ConsistencyInfo": "N4_VE11C_LATEST_20160120",
  "ConversionSoftware": "dcm2niix",
  "ConversionSoftwareVersion": "v1.0.20190902",
  "DerivedVendorReportedEchoSpacing": 0.000560011,
  "DeviceSerialNumber": "167006",
  "DwellTime": 2.1e-06,
  "EchoTime": 0.037,
  "EchoTrainLength": 104,
  "EffectiveEchoSpacing": 0.000560011,
  "FlipAngle": 52,
  "ImageComments": "Unaliased_MB4_PE3_LB",
  "ImageOrientationPatientDICOM": [0.999513, -0.0277389, -0.0142846, 0.0212859, 0.940965, -0.337833],
  "ImageType": [
    "ORIGINAL",
    "PRIMARY",
    "M",
    "MB",
    "ND",
    "MOSAIC"
],
  "ImagingFrequency": 123.259,
  "InPlanePhaseEncodingDirectionDICOM": "COL",
  "InstitutionAddress": "Chemin_Queen-Mary_4565_Montreal_District_CA_H3W_1W5",
  "InstitutionName": "IUGM",
  "InstitutionalDepartmentName": "Department",
  "MRAcquisitionType": "2D",
  "MagneticFieldStrength": 3,
  "Manufacturer": "Siemens",
  "ManufacturersModelName": "Prisma_fit",
  "Modality": "MR",
  "MultibandAccelerationFactor": 4,
  "PartialFourier": 1,
  "PatientPosition": "HFS",
  "PercentPhaseFOV": 100,
  "PhaseEncodingDirection": "j",
  "PhaseEncodingSteps": 104,
  "PhaseResolution": 1,
  "PixelBandwidth": 2290,
  "ProcedureStepDescription": "video_friends",
  "ProtocolName": "func_task-friends-s05e11b",
  "PulseSequenceDetails": "%CustomerSeq%_cmrr_mbep2d_bold",
  "ReceiveCoilActiveElements": "HC1-7;NC1,2",
  "ReceiveCoilName": "HeadNeck_64",
  "ReconMatrixPE": 104,
  "RepetitionTime": 1.49,
  "SAR": 0.0302722,
  "ScanOptions": "FS",
  "ScanningSequence": "EP",
  "SequenceName": "epfid2d1_104",
  "SequenceVariant": "SK_SS",
  "SeriesDescription": "func_task-friends-s05e11b",
  "SeriesNumber": 11,
  "ShimSetting": [628, -7257, -8861, 644, 19, -271, -1, -17],
  "SliceThickness": 2,
  "SliceTiming": [0, 0.785, 0.0975, 0.8825, 0.1975, 0.98, 0.295, 1.0775, 0.3925, 1.1775, 0.49, 1.275, 0.5875, 1.3725, 0.6875, 0, 0.785, 0.0975, 0.8825, 0.1975, 0.98, 0.295, 1.0775, 0.3925, 1.1775, 0.49, 1.275, 0.5875, 1.3725, 0.6875, 0, 0.785, 0.0975, 0.8825, 0.1975, 0.98, 0.295, 1.0775, 0.3925, 1.1775, 0.49, 1.275, 0.5875, 1.3725, 0.6875, 0, 0.785, 0.0975, 0.8825, 0.1975, 0.98, 0.295, 1.0775, 0.3925, 1.1775, 0.49, 1.275, 0.5875, 1.3725, 0.6875],
  "SoftwareVersions": "syngo_MR_E11",
  "SpacingBetweenSlices": 2,
  "StationName": "MRC35049",
  "TaskName": "s05e11b",
  "TotalReadoutTime": 0.0576811,
  "TxRefAmp": 219.811,
  "WipMemBlock": "65a40891-067c-4a2e-898c-e7762385f7a0||Sequence: R016 ve11c/master r/e634e98; Dec 19 2017 11:00:25 by eja",
  "dcmmeta_affine": [
    [-1.9990262985229492, 0.0425717793405056, -0.045624781399965286, 101.08428192138672],
    [0.055477749556303024, 1.8819308280944824, -0.6747283935546875, -75.0097885131836],
    [-0.028569146990776062, 0.6756654381752014, 1.8821955919265747, -73.21880340576172],
    [0.0, 0.0, 0.0, 1.0]
],
  "dcmmeta_reorient_transform": [
    [0.0, -1.0, 0.0, 103.0],
    [1.0, 0.0, 0.0, 0.0],
    [0.0, 0.0, 1.0, 0.0],
    [0.0, 0.0, 0.0, 1.0]
],
  "dcmmeta_shape": [104, 104, 60, 511],
  "dcmmeta_slice_dim": 2,
  "dcmmeta_version": 0.6,
  "global": {
    "const": {
      "AcquisitionMatrix": [104, 0, 0, 104],
      "AngioFlag": "N",
      "BitsAllocated": 16,
      "BitsStored": 16,
      "BodyPartExamined": "BRAIN",
      "Columns": 832,
      "EchoNumbers": 1,
      "EchoTime": 37.0,
      "EchoTrainLength": 104,
      "FlipAngle": 52.0,
      "HighBit": 15,
      "ImageOrientationPatient": [0.99951313436022, -0.0277388754538, -0.014284573146, 0.02128589008849, 0.9409654381811, -0.3378327323274],
      "ImagePositionPatient": [-848.61086361627, -783.65803107289, 252.71613764365],
      "ImageType": [
        "ORIGINAL",
        "PRIMARY",
        "M",
        "MB",
        "ND",
        "MOSAIC"
],
      "ImagedNucleus": "1H",
      "ImagingFrequency": 123.258982,
      "InPlanePhaseEncodingDirection": "COL",
      "MRAcquisitionType": "2D",
      "MagneticFieldStrength": 3.0,
      "Manufacturer": "SIEMENS",
      "ManufacturerModelName": "Prisma_fit",
      "Modality": "MR",
      "NumberOfAverages": 1.0,
      "NumberOfPhaseEncodingSteps": 104,
      "PercentPhaseFieldOfView": 100.0,
      "PercentSampling": 100.0,
      "PerformedProcedureStepStartTime": "154620.475000",
      "PhotometricInterpretation": "MONOCHROME2",
      "PixelBandwidth": 2290.0,
      "PixelRepresentation": 0,
      "PixelSpacing": [2.0, 2.0],
      "ProtocolName": "func_task-friends-s05e11b",
      "RepetitionTime": 1490.0,
      "Rows": 832,
      "SAR": 0.03027217964465,
      "SamplesPerPixel": 1,
      "ScanOptions": "FS",
      "ScanningSequence": "EP",
      "SequenceName": "epfid2d1_104",
      "SequenceVariant": [
        "SK",
        "SS"
],
      "SeriesDescription": "func_task-friends-s05e11b",
      "SeriesNumber": 11,
      "SeriesTime": "160551.403000",
      "SliceLocation": -45.906409903721,
      "SliceThickness": 2.0,
      "SmallestImagePixelValue": 0,
      "SoftwareVersions": "syngo MR E11",
      "SpacingBetweenSlices": 2.0000000264007,
      "SpecificCharacterSet": "ISO_IR 100",
      "StudyID": "1",
      "StudyTime": "154620.400000",
      "TransmitCoilName": "Body",
      "VariableFlipAngleFlag": "N",
      "WindowCenterWidthExplanation": "Algo1",
      "dBdt": 0.0},
    "slices": {}
  },
  "time": {
    "samples": {
      "AcquisitionNumber": [1, 2, 3, 4, 5, 6, 7, 8, 9, 10, 11, 12, 13, 14, 15, 16, 17, 18, 19, 20, 21, 22, 23, 24, 25, 26, 27, 28, 29, 30, 31, 32, 33, 34, 35, 36, 37, 38, 39, 40, 41, 42, 43, 44, 45, 46, 47, 48, 49, 50, 51, 52, 53, 54, 55, 56, 57, 58, 59, 60, 61, 62, 63, 64, 65, 66, 67, 68, 69, 70, 71, 72, 73, 74, 75, 76, 77, 78, 79, 80, 81, 82, 83, 84, 85, 86, 87, 88, 89, 90, 91, 92, 93, 94, 95, 96, 97, 98, 99, 100, 101, 102, 103, 104, 105, 106, 107, 108, 109, 110, 111, 112, 113, 114, 115, 116, 117, 118, 119, 120, 121, 122, 123, 124, 125, 126, 127, 128, 129, 130, 131, 132, 133, 134, 135, 136, 137, 138, 139, 140, 141, 142, 143, 144, 145, 146, 147, 148, 149, 150, 151, 152, 153, 154, 155, 156, 157, 158, 159, 160, 161, 162, 163, 164, 165, 166, 167, 168, 169, 170, 171, 172, 173, 174, 175, 176, 177, 178, 179, 180, 181, 182, 183, 184, 185, 186, 187, 188, 189, 190, 191, 192, 193, 194, 195, 196, 197, 198, 199, 200, 201, 202, 203, 204, 205, 206, 207, 208, 209, 210, 211, 212, 213, 214, 215, 216, 217, 218, 219, 220, 221, 222, 223, 224, 225, 226, 227, 228, 229, 230, 231, 232, 233, 234, 235, 236, 237, 238, 239, 240, 241, 242, 243, 244, 245, 246, 247, 248, 249, 250, 251, 252, 253, 254, 255, 256, 257, 258, 259, 260, 261, 262, 263, 264, 265, 266, 267, 268, 269, 270, 271, 272, 273, 274, 275, 276, 277, 278, 279, 280, 281, 282, 283, 284, 285, 286, 287, 288, 289, 290, 291, 292, 293, 294, 295, 296, 297, 298, 299, 300, 301, 302, 303, 304, 305, 306, 307, 308, 309, 310, 311, 312, 313, 314, 315, 316, 317, 318, 319, 320, 321, 322, 323, 324, 325, 326, 327, 328, 329, 330, 331, 332, 333, 334, 335, 336, 337, 338, 339, 340, 341, 342, 343, 344, 345, 346, 347, 348, 349, 350, 351, 352, 353, 354, 355, 356, 357, 358, 359, 360, 361, 362, 363, 364, 365, 366, 367, 368, 369, 370, 371, 372, 373, 374, 375, 376, 377, 378, 379, 380, 381, 382, 383, 384, 385, 386, 387, 388, 389, 390, 391, 392, 393, 394, 395, 396, 397, 398, 399, 400, 401, 402, 403, 404, 405, 406, 407, 408, 409, 410, 411, 412, 413, 414, 415, 416, 417, 418, 419, 420, 421, 422, 423, 424, 425, 426, 427, 428, 429, 430, 431, 432, 433, 434, 435, 436, 437, 438, 439, 440, 441, 442, 443, 444, 445, 446, 447, 448, 449, 450, 451, 452, 453, 454, 455, 456, 457, 458, 459, 460, 461, 462, 463, 464, 465, 466, 467, 468, 469, 470, 471, 472, 473, 474, 475, 476, 477, 478, 479, 480, 481, 482, 483, 484, 485, 486, 487, 488, 489, 490, 491, 492, 493, 494, 495, 496, 497, 498, 499, 500, 501, 502, 503, 504, 505, 506, 507, 508, 509, 510, 511],
      "AcquisitionTime": ["160434.917500", "160436.407500", "160437.897500", "160439.387500", "160440.877500", "160442.367500", "160443.857500", "160445.347500", "160446.837500", "160448.327500", "160449.817500", "160451.307500", "160452.797500", "160454.287500", "160455.777500", "160457.267500", "160458.757500", "160500.247500", "160501.737500", "160503.227500", "160504.717500", "160506.207500", "160507.697500", "160509.187500", "160510.677500", "160512.167500", "160513.657500", "160515.147500", "160516.637500", "160518.127500", "160519.617500", "160521.107500", "160522.597500", "160524.087500", "160525.577500", "160527.067500", "160528.557500", "160530.047500", "160531.537500", "160533.027500", "160534.517500", "160536.007500", "160537.497500", "160538.987500", "160540.477500", "160541.967500", "160543.457500", "160544.947500", "160546.437500", "160547.927500", "160549.417500", "160550.907500", "160552.397500", "160553.887500", "160555.377500", "160556.867500", "160558.357500", "160559.847500", "160601.337500", "160602.827500", "160604.317500", "160605.807500", "160607.297500", "160608.787500", "160610.277500", "160611.767500", "160613.257500", "160614.747500", "160616.237500", "160617.727500", "160619.217500", "160620.707500", "160622.197500", "160623.687500", "160625.177500", "160626.667500", "160628.157500", "160629.647500", "160631.137500", "160632.627500", "160634.117500", "160635.607500", "160637.097500", "160638.587500", "160640.077500", "160641.567500", "160643.057500", "160644.547500", "160646.037500", "160647.527500", "160649.017500", "160650.507500", "160651.997500", "160653.487500", "160654.977500", "160656.467500", "160657.957500", "160659.447500", "160700.937500", "160702.427500", "160703.917500", "160705.407500", "160706.897500", "160708.387500", "160709.877500", "160711.367500", "160712.857500", "160714.347500", "160715.837500", "160717.327500", "160718.817500", "160720.307500", "160721.797500", "160723.287500", "160724.777500", "160726.267500", "160727.757500", "160729.247500", "160730.737500", "160732.227500", "160733.717500", "160735.207500", "160736.697500", "160738.187500", "160739.677500", "160741.167500", "160742.657500", "160744.147500", "160745.637500", "160747.127500", "160748.617500", "160750.107500", "160751.597500", "160753.087500", "160754.577500", "160756.067500", "160757.557500", "160759.047500", "160800.537500", "160802.027500", "160803.517500", "160805.007500", "160806.497500", "160807.987500", "160809.477500", "160810.967500", "160812.457500", "160813.947500", "160815.437500", "160816.927500", "160818.417500", "160819.907500", "160821.397500", "160822.887500", "160824.377500", "160825.867500", "160827.357500", "160828.847500", "160830.337500", "160831.827500", "160833.317500", "160834.807500", "160836.297500", "160837.787500", "160839.277500", "160840.767500", "160842.257500", "160843.747500", "160845.237500", "160846.727500", "160848.217500", "160849.707500", "160851.197500", "160852.687500", "160854.177500", "160855.667500", "160857.157500", "160858.647500", "160900.137500", "160901.627500", "160903.117500", "160904.607500", "160906.097500", "160907.587500", "160909.077500", "160910.567500", "160912.057500", "160913.547500", "160915.037500", "160916.527500", "160918.017500", "160919.507500", "160920.997500", "160922.487500", "160923.977500", "160925.467500", "160926.957500", "160928.447500", "160929.937500", "160931.427500", "160932.917500", "160934.407500", "160935.897500", "160937.387500", "160938.877500", "160940.367500", "160941.857500", "160943.347500", "160944.837500", "160946.327500", "160947.817500", "160949.307500", "160950.797500", "160952.287500", "160953.777500", "160955.267500", "160956.757500", "160958.247500", "160959.737500", "161001.227500", "161002.717500", "161004.207500", "161005.697500", "161007.187500", "161008.677500", "161010.167500", "161011.657500", "161013.147500", "161014.637500", "161016.127500", "161017.617500", "161019.107500", "161020.597500", "161022.087500", "161023.577500", "161025.067500", "161026.557500", "161028.047500", "161029.537500", "161031.027500", "161032.517500", "161034.007500", "161035.497500", "161036.987500", "161038.477500", "161039.967500", "161041.457500", "161042.947500", "161044.437500", "161045.927500", "161047.417500", "161048.907500", "161050.397500", "161051.887500", "161053.377500", "161054.867500", "161056.357500", "161057.847500", "161059.337500", "161100.827500", "161102.317500", "161103.807500", "161105.297500", "161106.787500", "161108.277500", "161109.767500", "161111.257500", "161112.747500", "161114.237500", "161115.727500", "161117.217500", "161118.707500", "161120.197500", "161121.687500", "161123.177500", "161124.667500", "161126.157500", "161127.647500", "161129.137500", "161130.627500", "161132.117500", "161133.607500", "161135.097500", "161136.587500", "161138.077500", "161139.567500", "161141.057500", "161142.547500", "161144.037500", "161145.527500", "161147.017500", "161148.507500", "161149.997500", "161151.487500", "161152.977500", "161154.467500", "161155.957500", "161157.447500", "161158.937500", "161200.427500", "161201.917500", "161203.407500", "161204.897500", "161206.387500", "161207.877500", "161209.367500", "161210.857500", "161212.347500", "161213.837500", "161215.327500", "161216.817500", "161218.307500", "161219.797500", "161221.287500", "161222.777500", "161224.267500", "161225.757500", "161227.247500", "161228.737500", "161230.227500", "161231.717500", "161233.207500", "161234.697500", "161236.187500", "161237.677500", "161239.167500", "161240.657500", "161242.147500", "161243.637500", "161245.127500", "161246.617500", "161248.107500", "161249.597500", "161251.087500", "161252.577500", "161254.067500", "161255.557500", "161257.047500", "161258.537500", "161300.027500", "161301.517500", "161303.007500", "161304.497500", "161305.987500", "161307.477500", "161308.967500", "161310.457500", "161311.947500", "161313.437500", "161314.927500", "161316.417500", "161317.907500", "161319.397500", "161320.887500", "161322.377500", "161323.867500", "161325.357500", "161326.847500", "161328.337500", "161329.827500", "161331.317500", "161332.807500", "161334.297500", "161335.787500", "161337.277500", "161338.767500", "161340.257500", "161341.747500", "161343.237500", "161344.727500", "161346.217500", "161347.707500", "161349.197500", "161350.687500", "161352.177500", "161353.667500", "161355.157500", "161356.647500", "161358.137500", "161359.627500", "161401.117500", "161402.607500", "161404.097500", "161405.587500", "161407.077500", "161408.567500", "161410.057500", "161411.547500", "161413.037500", "161414.527500", "161416.017500", "161417.507500", "161418.997500", "161420.487500", "161421.977500", "161423.467500", "161424.957500", "161426.447500", "161427.937500", "161429.427500", "161430.917500", "161432.407500", "161433.897500", "161435.387500", "161436.877500", "161438.367500", "161439.857500", "161441.347500", "161442.837500", "161444.327500", "161445.817500", "161447.307500", "161448.797500", "161450.287500", "161451.777500", "161453.267500", "161454.757500", "161456.247500", "161457.737500", "161459.227500", "161500.717500", "161502.207500", "161503.697500", "161505.187500", "161506.677500", "161508.167500", "161509.657500", "161511.147500", "161512.637500", "161514.127500", "161515.617500", "161517.107500", "161518.597500", "161520.087500", "161521.577500", "161523.067500", "161524.557500", "161526.047500", "161527.537500", "161529.027500", "161530.517500", "161532.007500", "161533.497500", "161534.987500", "161536.477500", "161537.967500", "161539.457500", "161540.947500", "161542.437500", "161543.927500", "161545.417500", "161546.907500", "161548.397500", "161549.887500", "161551.377500", "161552.867500", "161554.357500", "161555.847500", "161557.337500", "161558.827500", "161600.317500", "161601.807500", "161603.297500", "161604.787500", "161606.277500", "161607.767500", "161609.257500", "161610.747500", "161612.237500", "161613.727500", "161615.217500", "161616.707500", "161618.197500", "161619.687500", "161621.177500", "161622.667500", "161624.157500", "161625.647500", "161627.137500", "161628.627500", "161630.117500", "161631.607500", "161633.097500", "161634.587500", "161636.077500", "161637.567500", "161639.057500", "161640.547500", "161642.037500", "161643.527500", "161645.017500", "161646.507500", "161647.997500", "161649.487500", "161650.977500", "161652.467500", "161653.957500", "161655.447500", "161656.937500", "161658.427500", "161659.917500", "161701.407500", "161702.897500", "161704.387500", "161705.877500", "161707.367500", "161708.857500", "161710.347500", "161711.837500", "161713.327500", "161714.817500"],
      "ContentTime": ["160551.406000", "160551.409000", "160551.412000", "160551.423000", "160551.426000", "160551.429000", "160551.431000", "160551.434000", "160551.437000", "160551.440000", "160551.443000", "160551.446000", "160551.448000", "160551.451000", "160551.454000", "160551.457000", "160551.460000", "160551.462000", "160551.465000", "160551.468000", "160611.373000", "160611.376000", "160611.379000", "160611.381000", "160611.384000", "160611.387000", "160611.390000", "160611.393000", "160611.396000", "160611.398000", "160611.401000", "160611.404000", "160611.407000", "160611.410000", "160611.413000", "160611.416000", "160611.419000", "160611.421000", "160611.424000", "160611.427000", "160611.430000", "160631.373000", "160631.376000", "160631.379000", "160631.381000", "160631.384000", "160631.387000", "160631.397000", "160631.400000", "160631.403000", "160631.406000", "160631.408000", "160631.411000", "160631.414000", "160631.417000", "160631.420000", "160631.422000", "160631.425000", "160631.428000", "160631.431000", "160631.434000", "160651.373000", "160651.376000", "160651.379000", "160651.381000", "160651.384000", "160651.387000", "160651.390000", "160651.393000", "160651.395000", "160651.398000", "160651.401000", "160651.404000", "160651.407000", "160651.409000", "160651.412000", "160651.415000", "160651.418000", "160651.421000", "160651.424000", "160651.426000", "160711.374000", "160711.377000", "160711.380000", "160711.382000", "160711.385000", "160711.388000", "160711.391000", "160711.394000", "160711.397000", "160711.399000", "160711.402000", "160711.405000", "160711.408000", "160711.411000", "160711.413000", "160711.416000", "160711.419000", "160711.422000", "160711.425000", "160711.428000", "160751.374000", "160751.377000", "160751.380000", "160751.383000", "160751.385000", "160751.388000", "160751.391000", "160751.394000", "160751.397000", "160751.400000", "160751.402000", "160751.405000", "160751.408000", "160751.411000", "160751.414000", "160751.417000", "160751.419000", "160751.422000", "160751.425000", "160751.428000", "160751.431000", "160751.433000", "160751.436000", "160751.439000", "160751.442000", "160751.445000", "160751.448000", "160751.450000", "160751.453000", "160751.456000", "160831.373000", "160831.376000", "160831.379000", "160831.382000", "160831.385000", "160831.387000", "160831.390000", "160831.393000", "160831.396000", "160831.399000", "160831.401000", "160831.418000", "160831.420000", "160831.423000", "160831.426000", "160831.429000", "160831.432000", "160831.435000", "160831.437000", "160831.440000", "160831.443000", "160831.446000", "160831.449000", "160831.451000", "160831.454000", "160831.457000", "160831.460000", "160911.373000", "160911.376000", "160911.379000", "160911.382000", "160911.385000", "160911.387000", "160911.390000", "160911.393000", "160911.396000", "160911.399000", "160911.402000", "160911.404000", "160911.407000", "160911.410000", "160911.413000", "160911.416000", "160911.419000", "160911.421000", "160911.424000", "160911.427000", "160911.430000", "160911.433000", "160911.436000", "160911.438000", "160911.441000", "160911.444000", "160911.447000", "160951.374000", "160951.377000", "160951.380000", "160951.382000", "160951.385000", "160951.388000", "160951.391000", "160951.394000", "160951.397000", "160951.400000", "160951.403000", "160951.405000", "160951.408000", "160951.411000", "160951.414000", "160951.417000", "160951.419000", "160951.422000", "160951.425000", "160951.428000", "160951.431000", "160951.434000", "160951.436000", "160951.439000", "160951.442000", "160951.446000", "161031.373000", "161031.376000", "161031.379000", "161031.382000", "161031.384000", "161031.387000", "161031.390000", "161031.393000", "161031.396000", "161031.399000", "161031.401000", "161031.404000", "161031.407000", "161031.410000", "161031.413000", "161031.416000", "161031.418000", "161031.421000", "161031.424000", "161031.427000", "161031.430000", "161031.433000", "161031.435000", "161031.438000", "161031.441000", "161031.444000", "161031.447000", "161111.373000", "161111.376000", "161111.379000", "161111.382000", "161111.384000", "161111.387000", "161111.390000", "161111.393000", "161111.396000", "161111.399000", "161111.402000", "161111.404000", "161111.407000", "161111.410000", "161111.413000", "161111.416000", "161111.419000", "161111.421000", "161111.424000", "161111.427000", "161111.430000", "161111.433000", "161111.443000", "161111.446000", "161111.449000", "161111.452000", "161111.455000", "161151.374000", "161151.377000", "161151.380000", "161151.383000", "161151.385000", "161151.388000", "161151.391000", "161151.394000", "161151.397000", "161151.400000", "161151.403000", "161151.405000", "161151.408000", "161151.411000", "161151.414000", "161151.417000", "161151.420000", "161151.422000", "161151.425000", "161151.428000", "161151.431000", "161151.434000", "161151.437000", "161151.439000", "161151.442000", "161151.445000", "161151.448000", "161231.374000", "161231.377000", "161231.380000", "161231.383000", "161231.385000", "161231.388000", "161231.391000", "161231.394000", "161231.397000", "161231.400000", "161231.403000", "161231.405000", "161231.408000", "161231.411000", "161231.414000", "161231.417000", "161231.420000", "161231.422000", "161231.425000", "161231.428000", "161231.431000", "161231.441000", "161231.443000", "161231.446000", "161231.449000", "161231.452000", "161231.455000", "161311.373000", "161311.376000", "161311.379000", "161311.382000", "161311.385000", "161311.387000", "161311.390000", "161311.393000", "161311.396000", "161311.399000", "161311.402000", "161311.405000", "161311.407000", "161311.410000", "161311.413000", "161311.416000", "161311.419000", "161311.422000", "161311.424000", "161311.427000", "161311.430000", "161311.433000", "161311.441000", "161311.444000", "161311.447000", "161311.449000", "161311.452000", "161351.373000", "161351.376000", "161351.379000", "161351.382000", "161351.385000", "161351.388000", "161351.391000", "161351.393000", "161351.396000", "161351.399000", "161351.402000", "161351.405000", "161351.408000", "161351.410000", "161351.413000", "161351.416000", "161351.419000", "161351.422000", "161351.425000", "161351.427000", "161351.430000", "161351.433000", "161351.436000", "161351.439000", "161351.442000", "161351.444000", "161431.374000", "161431.377000", "161431.380000", "161431.383000", "161431.385000", "161431.388000", "161431.391000", "161431.394000", "161431.397000", "161431.400000", "161431.403000", "161431.406000", "161431.408000", "161431.411000", "161431.414000", "161431.417000", "161431.420000", "161431.423000", "161431.425000", "161431.428000", "161431.431000", "161431.434000", "161431.437000", "161431.440000", "161431.442000", "161431.445000", "161431.448000", "161511.373000", "161511.376000", "161511.379000", "161511.382000", "161511.385000", "161511.387000", "161511.390000", "161511.393000", "161511.396000", "161511.399000", "161511.402000", "161511.405000", "161511.407000", "161511.410000", "161511.413000", "161511.416000", "161511.419000", "161511.421000", "161511.424000", "161511.427000", "161511.430000", "161511.433000", "161511.436000", "161511.439000", "161511.441000", "161511.444000", "161511.447000", "161551.373000", "161551.376000", "161551.379000", "161551.382000", "161551.384000", "161551.387000", "161551.390000", "161551.393000", "161551.396000", "161551.399000", "161551.401000", "161551.404000", "161551.407000", "161551.410000", "161551.413000", "161551.416000", "161551.418000", "161551.421000", "161551.424000", "161551.427000", "161551.430000", "161551.433000", "161551.435000", "161551.438000", "161551.441000", "161551.444000", "161551.447000", "161631.374000", "161631.377000", "161631.380000", "161631.383000", "161631.386000", "161631.389000", "161631.391000", "161631.394000", "161631.397000", "161631.400000", "161631.403000", "161631.406000", "161631.408000", "161631.411000", "161631.414000", "161631.417000", "161631.420000", "161631.423000", "161631.426000", "161631.428000", "161631.431000", "161631.434000", "161631.437000", "161631.440000", "161631.443000", "161631.445000", "161631.448000", "161711.374000", "161711.377000", "161711.380000", "161711.383000", "161711.386000", "161711.388000", "161711.391000", "161711.394000", "161711.397000", "161711.400000", "161711.403000", "161711.405000", "161711.408000", "161711.411000", "161711.414000", "161711.417000", "161711.430000", "161711.433000", "161711.436000", "161711.439000", "161711.442000", "161711.444000", "161711.447000", "161711.450000", "161711.453000", "161711.456000", "161711.459000", "161717.129000", "161717.134000", "161717.137000", "161717.140000"],
