{
  "AcquisitionMatrixPE": 104,
  "AcquisitionNumber": 1,
  "AcquisitionTime": "15:52:11.030000",
  "BandwidthPerPixelPhaseEncode": 17.17,
  "BaseResolution": 104,
  "BodyPartExamined": "BRAIN",
  "CoilString": "HC1-7;NC1_2",
  "ConsistencyInfo": "N4_VE11C_LATEST_20160120",
  "ConversionSoftware": "dcm2niix",
  "ConversionSoftwareVersion": "v1.0.20190902",
  "DerivedVendorReportedEchoSpacing": 0.000560011,
  "DeviceSerialNumber": "167006",
  "DwellTime": 2.1e-06,
  "EchoTime": 0.037,
  "EchoTrainLength": 104,
  "EffectiveEchoSpacing": 0.000560011,
  "FlipAngle": 52,
  "ImageComments": "Unaliased_MB4_PE3_LB",
  "ImageOrientationPatientDICOM": [0.999513, -0.0277389, -0.0142846, 0.0212859, 0.940965, -0.337833],
  "ImageType": [
    "ORIGINAL",
    "PRIMARY",
    "M",
    "MB",
    "ND",
    "MOSAIC"
],
  "ImagingFrequency": 123.259,
  "InPlanePhaseEncodingDirectionDICOM": "COL",
  "InstitutionAddress": "Chemin_Queen-Mary_4565_Montreal_District_CA_H3W_1W5",
  "InstitutionName": "IUGM",
  "InstitutionalDepartmentName": "Department",
  "MRAcquisitionType": "2D",
  "MagneticFieldStrength": 3,
  "Manufacturer": "Siemens",
  "ManufacturersModelName": "Prisma_fit",
  "Modality": "MR",
  "MultibandAccelerationFactor": 4,
  "PartialFourier": 1,
  "PatientPosition": "HFS",
  "PercentPhaseFOV": 100,
  "PhaseEncodingDirection": "j",
  "PhaseEncodingSteps": 104,
  "PhaseResolution": 1,
  "PixelBandwidth": 2290,
  "ProcedureStepDescription": "video_friends",
  "ProtocolName": "func_task-friends-s05e11a",
  "PulseSequenceDetails": "%CustomerSeq%_cmrr_mbep2d_bold",
  "ReceiveCoilActiveElements": "HC1-7;NC1,2",
  "ReceiveCoilName": "HeadNeck_64",
  "ReconMatrixPE": 104,
  "RepetitionTime": 1.49,
  "SAR": 0.0302636,
  "ScanOptions": "FS",
  "ScanningSequence": "EP",
  "SequenceName": "epfid2d1_104",
  "SequenceVariant": "SK_SS",
  "SeriesDescription": "func_task-friends-s05e11a",
  "SeriesNumber": 9,
  "ShimSetting": [628, -7257, -8861, 644, 19, -271, -1, -17],
  "SliceThickness": 2,
  "SliceTiming": [0, 0.7825, 0.0975, 0.88, 0.195, 0.98, 0.2925, 1.0775, 0.3925, 1.175, 0.49, 1.2725, 0.5875, 1.37, 0.685, 0, 0.7825, 0.0975, 0.88, 0.195, 0.98, 0.2925, 1.0775, 0.3925, 1.175, 0.49, 1.2725, 0.5875, 1.37, 0.685, 0, 0.7825, 0.0975, 0.88, 0.195, 0.98, 0.2925, 1.0775, 0.3925, 1.175, 0.49, 1.2725, 0.5875, 1.37, 0.685, 0, 0.7825, 0.0975, 0.88, 0.195, 0.98, 0.2925, 1.0775, 0.3925, 1.175, 0.49, 1.2725, 0.5875, 1.37, 0.685],
  "SoftwareVersions": "syngo_MR_E11",
  "SpacingBetweenSlices": 2,
  "StationName": "MRC35049",
  "TaskName": "s05e11a",
  "TotalReadoutTime": 0.0576811,
  "TxRefAmp": 219.811,
  "WipMemBlock": "a2caf5b8-22f4-4d9b-843c-c6d049efc588||Sequence: R016 ve11c/master r/e634e98; Dec 19 2017 11:00:25 by eja",
  "dcmmeta_affine": [
    [-1.9990262985229492, 0.0425717793405056, -0.045624781399965286, 101.08428192138672],
    [0.055477749556303024, 1.8819308280944824, -0.6747283935546875, -75.0097885131836],
    [-0.028569146990776062, 0.6756654381752014, 1.8821955919265747, -73.21880340576172],
    [0.0, 0.0, 0.0, 1.0]
],
  "dcmmeta_reorient_transform": [
    [0.0, -1.0, 0.0, 103.0],
    [1.0, 0.0, 0.0, 0.0],
    [0.0, 0.0, 1.0, 0.0],
    [0.0, 0.0, 0.0, 1.0]
],
  "dcmmeta_shape": [104, 104, 60, 476],
  "dcmmeta_slice_dim": 2,
  "dcmmeta_version": 0.6,
  "global": {
    "const": {
      "AcquisitionMatrix": [104, 0, 0, 104],
      "AngioFlag": "N",
      "BitsAllocated": 16,
      "BitsStored": 16,
      "BodyPartExamined": "BRAIN",
      "Columns": 832,
      "EchoNumbers": 1,
      "EchoTime": 37.0,
      "EchoTrainLength": 104,
      "FlipAngle": 52.0,
      "HighBit": 15,
      "ImageOrientationPatient": [0.99951313436022, -0.0277388754538, -0.014284573146, 0.02128589008849, 0.9409654381811, -0.3378327323274],
      "ImagePositionPatient": [-848.61086361627, -783.65803107289, 252.71613764365],
      "ImageType": [
        "ORIGINAL",
        "PRIMARY",
        "M",
        "MB",
        "ND",
        "MOSAIC"
],
      "ImagedNucleus": "1H",
      "ImagingFrequency": 123.258974,
      "InPlanePhaseEncodingDirection": "COL",
      "MRAcquisitionType": "2D",
      "MagneticFieldStrength": 3.0,
      "Manufacturer": "SIEMENS",
      "ManufacturerModelName": "Prisma_fit",
      "Modality": "MR",
      "NumberOfAverages": 1.0,
      "NumberOfPhaseEncodingSteps": 104,
      "PercentPhaseFieldOfView": 100.0,
      "PercentSampling": 100.0,
      "PerformedProcedureStepStartTime": "154620.475000",
      "PhotometricInterpretation": "MONOCHROME2",
      "PixelBandwidth": 2290.0,
      "PixelRepresentation": 0,
      "PixelSpacing": [2.0, 2.0],
      "ProtocolName": "func_task-friends-s05e11a",
      "RepetitionTime": 1490.0,
      "Rows": 832,
      "SAR": 0.03026356338991,
      "SamplesPerPixel": 1,
      "ScanOptions": "FS",
      "ScanningSequence": "EP",
      "SequenceName": "epfid2d1_104",
      "SequenceVariant": [
        "SK",
        "SS"
],
      "SeriesDescription": "func_task-friends-s05e11a",
      "SeriesNumber": 9,
      "SeriesTime": "155336.820000",
      "SliceLocation": -45.906409903721,
      "SliceThickness": 2.0,
      "SmallestImagePixelValue": 0,
      "SoftwareVersions": "syngo MR E11",
      "SpacingBetweenSlices": 2.0000000264007,
      "SpecificCharacterSet": "ISO_IR 100",
      "StudyID": "1",
      "StudyTime": "154620.400000",
      "TransmitCoilName": "Body",
      "VariableFlipAngleFlag": "N",
      "WindowCenterWidthExplanation": "Algo1",
      "dBdt": 0.0},
    "slices": {}
  },
  "time": {
    "samples": {
      "AcquisitionNumber": [1, 2, 3, 4, 5, 6, 7, 8, 9, 10, 11, 12, 13, 14, 15, 16, 17, 18, 19, 20, 21, 22, 23, 24, 25, 26, 27, 28, 29, 30, 31, 32, 33, 34, 35, 36, 37, 38, 39, 40, 41, 42, 43, 44, 45, 46, 47, 48, 49, 50, 51, 52, 53, 54, 55, 56, 57, 58, 59, 60, 61, 62, 63, 64, 65, 66, 67, 68, 69, 70, 71, 72, 73, 74, 75, 76, 77, 78, 79, 80, 81, 82, 83, 84, 85, 86, 87, 88, 89, 90, 91, 92, 93, 94, 95, 96, 97, 98, 99, 100, 101, 102, 103, 104, 105, 106, 107, 108, 109, 110, 111, 112, 113, 114, 115, 116, 117, 118, 119, 120, 121, 122, 123, 124, 125, 126, 127, 128, 129, 130, 131, 132, 133, 134, 135, 136, 137, 138, 139, 140, 141, 142, 143, 144, 145, 146, 147, 148, 149, 150, 151, 152, 153, 154, 155, 156, 157, 158, 159, 160, 161, 162, 163, 164, 165, 166, 167, 168, 169, 170, 171, 172, 173, 174, 175, 176, 177, 178, 179, 180, 181, 182, 183, 184, 185, 186, 187, 188, 189, 190, 191, 192, 193, 194, 195, 196, 197, 198, 199, 200, 201, 202, 203, 204, 205, 206, 207, 208, 209, 210, 211, 212, 213, 214, 215, 216, 217, 218, 219, 220, 221, 222, 223, 224, 225, 226, 227, 228, 229, 230, 231, 232, 233, 234, 235, 236, 237, 238, 239, 240, 241, 242, 243, 244, 245, 246, 247, 248, 249, 250, 251, 252, 253, 254, 255, 256, 257, 258, 259, 260, 261, 262, 263, 264, 265, 266, 267, 268, 269, 270, 271, 272, 273, 274, 275, 276, 277, 278, 279, 280, 281, 282, 283, 284, 285, 286, 287, 288, 289, 290, 291, 292, 293, 294, 295, 296, 297, 298, 299, 300, 301, 302, 303, 304, 305, 306, 307, 308, 309, 310, 311, 312, 313, 314, 315, 316, 317, 318, 319, 320, 321, 322, 323, 324, 325, 326, 327, 328, 329, 330, 331, 332, 333, 334, 335, 336, 337, 338, 339, 340, 341, 342, 343, 344, 345, 346, 347, 348, 349, 350, 351, 352, 353, 354, 355, 356, 357, 358, 359, 360, 361, 362, 363, 364, 365, 366, 367, 368, 369, 370, 371, 372, 373, 374, 375, 376, 377, 378, 379, 380, 381, 382, 383, 384, 385, 386, 387, 388, 389, 390, 391, 392, 393, 394, 395, 396, 397, 398, 399, 400, 401, 402, 403, 404, 405, 406, 407, 408, 409, 410, 411, 412, 413, 414, 415, 416, 417, 418, 419, 420, 421, 422, 423, 424, 425, 426, 427, 428, 429, 430, 431, 432, 433, 434, 435, 436, 437, 438, 439, 440, 441, 442, 443, 444, 445, 446, 447, 448, 449, 450, 451, 452, 453, 454, 455, 456, 457, 458, 459, 460, 461, 462, 463, 464, 465, 466, 467, 468, 469, 470, 471, 472, 473, 474, 475, 476],
      "AcquisitionTime": ["155211.030000", "155212.520000", "155214.010000", "155215.500000", "155216.990000", "155218.480000", "155219.970000", "155221.460000", "155222.950000", "155224.440000", "155225.930000", "155227.420000", "155228.910000", "155230.400000", "155231.890000", "155233.380000", "155234.870000", "155236.360000", "155237.850000", "155239.340000", "155240.830000", "155242.320000", "155243.810000", "155245.300000", "155246.790000", "155248.280000", "155249.770000", "155251.260000", "155252.750000", "155254.240000", "155255.730000", "155257.220000", "155258.710000", "155300.200000", "155301.690000", "155303.180000", "155304.670000", "155306.160000", "155307.650000", "155309.140000", "155310.630000", "155312.120000", "155313.610000", "155315.100000", "155316.590000", "155318.080000", "155319.570000", "155321.060000", "155322.550000", "155324.040000", "155325.530000", "155327.020000", "155328.510000", "155330.000000", "155331.490000", "155332.980000", "155334.470000", "155335.960000", "155337.450000", "155338.940000", "155340.430000", "155341.920000", "155343.410000", "155344.900000", "155346.390000", "155347.880000", "155349.370000", "155350.860000", "155352.350000", "155353.840000", "155355.330000", "155356.820000", "155358.310000", "155359.800000", "155401.290000", "155402.780000", "155404.270000", "155405.760000", "155407.250000", "155408.740000", "155410.230000", "155411.720000", "155413.210000", "155414.700000", "155416.190000", "155417.680000", "155419.170000", "155420.660000", "155422.150000", "155423.640000", "155425.130000", "155426.620000", "155428.110000", "155429.600000", "155431.090000", "155432.580000", "155434.070000", "155435.560000", "155437.050000", "155438.540000", "155440.030000", "155441.520000", "155443.010000", "155444.500000", "155445.990000", "155447.480000", "155448.970000", "155450.460000", "155451.950000", "155453.440000", "155454.930000", "155456.420000", "155457.910000", "155459.400000", "155500.890000", "155502.380000", "155503.870000", "155505.360000", "155506.850000", "155508.340000", "155509.830000", "155511.320000", "155512.810000", "155514.300000", "155515.790000", "155517.280000", "155518.770000", "155520.260000", "155521.750000", "155523.240000", "155524.730000", "155526.220000", "155527.710000", "155529.200000", "155530.690000", "155532.180000", "155533.670000", "155535.160000", "155536.650000", "155538.140000", "155539.630000", "155541.120000", "155542.610000", "155544.100000", "155545.590000", "155547.080000", "155548.570000", "155550.060000", "155551.550000", "155553.040000", "155554.530000", "155556.020000", "155557.510000", "155559.000000", "155600.490000", "155601.980000", "155603.470000", "155604.960000", "155606.450000", "155607.940000", "155609.430000", "155610.920000", "155612.410000", "155613.900000", "155615.390000", "155616.880000", "155618.370000", "155619.860000", "155621.350000", "155622.840000", "155624.330000", "155625.820000", "155627.310000", "155628.800000", "155630.290000", "155631.780000", "155633.270000", "155634.760000", "155636.250000", "155637.740000", "155639.230000", "155640.720000", "155642.210000", "155643.700000", "155645.190000", "155646.680000", "155648.170000", "155649.660000", "155651.150000", "155652.640000", "155654.130000", "155655.620000", "155657.110000", "155658.600000", "155700.090000", "155701.580000", "155703.070000", "155704.560000", "155706.050000", "155707.540000", "155709.030000", "155710.520000", "155712.010000", "155713.500000", "155714.990000", "155716.480000", "155717.970000", "155719.460000", "155720.950000", "155722.440000", "155723.930000", "155725.420000", "155726.910000", "155728.400000", "155729.890000", "155731.380000", "155732.870000", "155734.360000", "155735.850000", "155737.340000", "155738.830000", "155740.320000", "155741.810000", "155743.300000", "155744.790000", "155746.280000", "155747.770000", "155749.260000", "155750.750000", "155752.240000", "155753.730000", "155755.220000", "155756.710000", "155758.200000", "155759.690000", "155801.180000", "155802.670000", "155804.160000", "155805.650000", "155807.140000", "155808.630000", "155810.120000", "155811.610000", "155813.100000", "155814.590000", "155816.080000", "155817.570000", "155819.060000", "155820.550000", "155822.040000", "155823.530000", "155825.020000", "155826.510000", "155828.000000", "155829.490000", "155830.980000", "155832.470000", "155833.960000", "155835.450000", "155836.940000", "155838.430000", "155839.920000", "155841.410000", "155842.900000", "155844.390000", "155845.880000", "155847.370000", "155848.860000", "155850.350000", "155851.840000", "155853.330000", "155854.820000", "155856.310000", "155857.800000", "155859.290000", "155900.780000", "155902.270000", "155903.760000", "155905.250000", "155906.740000", "155908.230000", "155909.720000", "155911.210000", "155912.700000", "155914.190000", "155915.680000", "155917.170000", "155918.660000", "155920.150000", "155921.640000", "155923.130000", "155924.620000", "155926.110000", "155927.600000", "155929.090000", "155930.580000", "155932.070000", "155933.560000", "155935.050000", "155936.540000", "155938.030000", "155939.520000", "155941.010000", "155942.500000", "155943.990000", "155945.480000", "155946.970000", "155948.460000", "155949.950000", "155951.440000", "155952.930000", "155954.420000", "155955.910000", "155957.400000", "155958.890000", "160000.380000", "160001.870000", "160003.360000", "160004.850000", "160006.340000", "160007.830000", "160009.320000", "160010.810000", "160012.300000", "160013.790000", "160015.280000", "160016.770000", "160018.260000", "160019.750000", "160021.240000", "160022.730000", "160024.220000", "160025.710000", "160027.200000", "160028.690000", "160030.180000", "160031.670000", "160033.160000", "160034.650000", "160036.140000", "160037.630000", "160039.120000", "160040.610000", "160042.100000", "160043.590000", "160045.080000", "160046.570000", "160048.060000", "160049.550000", "160051.040000", "160052.530000", "160054.020000", "160055.510000", "160057.000000", "160058.490000", "160059.980000", "160101.470000", "160102.960000", "160104.450000", "160105.940000", "160107.430000", "160108.920000", "160110.410000", "160111.900000", "160113.390000", "160114.880000", "160116.370000", "160117.860000", "160119.350000", "160120.840000", "160122.330000", "160123.820000", "160125.310000", "160126.800000", "160128.290000", "160129.780000", "160131.270000", "160132.760000", "160134.250000", "160135.740000", "160137.230000", "160138.720000", "160140.210000", "160141.700000", "160143.190000", "160144.680000", "160146.170000", "160147.660000", "160149.150000", "160150.640000", "160152.130000", "160153.620000", "160155.110000", "160156.600000", "160158.090000", "160159.580000", "160201.070000", "160202.560000", "160204.050000", "160205.540000", "160207.030000", "160208.520000", "160210.010000", "160211.500000", "160212.990000", "160214.480000", "160215.970000", "160217.460000", "160218.950000", "160220.440000", "160221.930000", "160223.420000", "160224.910000", "160226.400000", "160227.890000", "160229.380000", "160230.870000", "160232.360000", "160233.850000", "160235.340000", "160236.830000", "160238.320000", "160239.810000", "160241.300000", "160242.790000", "160244.280000", "160245.770000", "160247.260000", "160248.750000", "160250.240000", "160251.730000", "160253.220000", "160254.710000", "160256.200000", "160257.690000", "160259.180000", "160300.670000", "160302.160000", "160303.650000", "160305.140000", "160306.630000", "160308.120000", "160309.610000", "160311.100000", "160312.590000", "160314.080000", "160315.570000", "160317.060000", "160318.550000", "160320.040000", "160321.530000", "160323.020000", "160324.510000", "160326.000000", "160327.490000", "160328.980000", "160330.470000", "160331.960000", "160333.450000", "160334.940000", "160336.430000", "160337.920000", "160339.410000", "160340.900000", "160342.390000", "160343.880000", "160345.370000", "160346.860000", "160348.350000", "160349.840000", "160351.330000", "160352.820000", "160354.310000", "160355.800000", "160357.290000", "160358.780000"],
      "ContentTime": ["155336.822000", "155336.826000", "155336.828000", "155336.834000", "155336.837000", "155336.840000", "155336.843000", "155336.846000", "155336.849000", "155336.852000", "155336.855000", "155336.858000", "155336.861000", "155336.864000", "155336.867000", "155336.869000", "155336.872000", "155336.875000", "155336.878000", "155336.881000", "155356.821000", "155356.824000", "155356.827000", "155356.838000", "155356.841000", "155356.844000", "155356.847000", "155356.850000", "155356.853000", "155356.856000", "155356.859000", "155356.862000", "155356.864000", "155356.867000", "155356.870000", "155356.873000", "155356.876000", "155356.878000", "155356.881000", "155356.884000", "155416.820000", "155416.824000", "155416.827000", "155416.830000", "155416.833000", "155416.836000", "155416.838000", "155416.841000", "155416.844000", "155416.847000", "155416.850000", "155416.853000", "155416.856000", "155416.859000", "155416.868000", "155416.871000", "155416.874000", "155416.877000", "155416.879000", "155416.882000", "155436.820000", "155436.823000", "155436.826000", "155436.829000", "155436.832000", "155436.834000", "155436.837000", "155436.840000", "155436.843000", "155436.846000", "155436.849000", "155436.851000", "155436.854000", "155436.857000", "155436.860000", "155436.863000", "155436.866000", "155436.869000", "155436.871000", "155436.874000", "155456.820000", "155456.823000", "155456.826000", "155456.829000", "155456.831000", "155456.834000", "155456.837000", "155456.840000", "155456.843000", "155456.846000", "155456.849000", "155456.852000", "155456.855000", "155456.858000", "155456.861000", "155456.864000", "155456.868000", "155456.871000", "155456.873000", "155456.876000", "155516.821000", "155516.824000", "155516.827000", "155516.830000", "155516.833000", "155516.836000", "155516.848000", "155516.851000", "155516.853000", "155516.856000", "155516.859000", "155516.862000", "155516.865000", "155516.868000", "155516.871000", "155516.873000", "155516.887000", "155516.896000", "155516.899000", "155516.902000", "155516.905000", "155556.821000", "155556.824000", "155556.827000", "155556.830000", "155556.833000", "155556.835000", "155556.838000", "155556.841000", "155556.844000", "155556.847000", "155556.850000", "155556.853000", "155556.856000", "155556.858000", "155556.861000", "155556.864000", "155556.867000", "155556.870000", "155556.873000", "155556.875000", "155556.878000", "155556.881000", "155556.884000", "155556.887000", "155556.890000", "155556.893000", "155556.896000", "155556.898000", "155556.901000", "155556.904000", "155636.820000", "155636.823000", "155636.826000", "155636.829000", "155636.832000", "155636.835000", "155636.838000", "155636.840000", "155636.843000", "155636.846000", "155636.849000", "155636.852000", "155636.855000", "155636.858000", "155636.860000", "155636.867000", "155636.870000", "155636.873000", "155636.876000", "155636.878000", "155636.881000", "155636.884000", "155636.887000", "155636.890000", "155636.893000", "155636.896000", "155636.898000", "155716.821000", "155716.824000", "155716.827000", "155716.830000", "155716.833000", "155716.835000", "155716.838000", "155716.841000", "155716.844000", "155716.847000", "155716.850000", "155716.852000", "155716.855000", "155716.858000", "155716.861000", "155716.864000", "155716.867000", "155716.870000", "155716.873000", "155716.876000", "155716.878000", "155716.881000", "155716.884000", "155716.887000", "155716.890000", "155716.893000", "155756.821000", "155756.830000", "155756.833000", "155756.836000", "155756.839000", "155756.842000", "155756.845000", "155756.848000", "155756.850000", "155756.853000", "155756.856000", "155756.859000", "155756.862000", "155756.865000", "155756.868000", "155756.870000", "155756.873000", "155756.876000", "155756.879000", "155756.882000", "155756.885000", "155756.888000", "155756.890000", "155756.893000", "155756.896000", "155756.899000", "155756.902000", "155836.821000", "155836.824000", "155836.827000", "155836.830000", "155836.839000", "155836.841000", "155836.844000", "155836.847000", "155836.850000", "155836.853000", "155836.856000", "155836.859000", "155836.862000", "155836.865000", "155836.867000", "155836.870000", "155836.873000", "155836.876000", "155836.879000", "155836.882000", "155836.885000", "155836.887000", "155836.890000", "155836.893000", "155836.896000", "155836.899000", "155836.902000", "155916.820000", "155916.823000", "155916.826000", "155916.830000", "155916.833000", "155916.836000", "155916.839000", "155916.842000", "155916.845000", "155916.848000", "155916.851000", "155916.854000", "155916.856000", "155916.859000", "155916.862000", "155916.865000", "155916.868000", "155916.871000", "155916.874000", "155916.877000", "155916.880000", "155916.883000", "155916.885000", "155916.888000", "155916.891000", "155916.894000", "155916.897000", "155956.821000", "155956.824000", "155956.827000", "155956.830000", "155956.833000", "155956.836000", "155956.839000", "155956.841000", "155956.844000", "155956.847000", "155956.850000", "155956.853000", "155956.856000", "155956.859000", "155956.862000", "155956.881000", "155956.884000", "155956.887000", "155956.890000", "155956.892000", "155956.895000", "155956.898000", "155956.901000", "155956.904000", "155956.907000", "155956.910000", "155956.913000", "160036.821000", "160036.824000", "160036.827000", "160036.830000", "160036.833000", "160036.836000", "160036.839000", "160036.841000", "160036.844000", "160036.847000", "160036.850000", "160036.853000", "160036.855000", "160036.858000", "160036.861000", "160036.864000", "160036.867000", "160036.870000", "160036.872000", "160036.875000", "160036.878000", "160036.881000", "160036.884000", "160036.887000", "160036.893000", "160036.896000", "160036.899000", "160116.820000", "160116.823000", "160116.826000", "160116.829000", "160116.832000", "160116.834000", "160116.837000", "160116.840000", "160116.843000", "160116.846000", "160116.849000", "160116.852000", "160116.855000", "160116.858000", "160116.862000", "160116.865000", "160116.867000", "160116.870000", "160116.874000", "160116.877000", "160116.879000", "160116.882000", "160116.885000", "160116.888000", "160116.891000", "160116.894000", "160156.821000", "160156.824000", "160156.827000", "160156.830000", "160156.833000", "160156.836000", "160156.839000", "160156.841000", "160156.844000", "160156.847000", "160156.850000", "160156.853000", "160156.855000", "160156.858000", "160156.861000", "160156.864000", "160156.867000", "160156.870000", "160156.872000", "160156.875000", "160156.878000", "160156.881000", "160156.884000", "160156.887000", "160156.889000", "160156.901000", "160156.904000", "160236.821000", "160236.824000", "160236.827000", "160236.830000", "160236.833000", "160236.836000", "160236.839000", "160236.842000", "160236.844000", "160236.847000", "160236.850000", "160236.853000", "160236.856000", "160236.859000", "160236.861000", "160236.864000", "160236.867000", "160236.870000", "160236.873000", "160236.875000", "160236.878000", "160236.881000", "160236.884000", "160236.887000", "160236.889000", "160236.892000", "160236.895000", "160316.821000", "160316.824000", "160316.827000", "160316.830000", "160316.833000", "160316.835000", "160316.838000", "160316.841000", "160316.844000", "160316.847000", "160316.850000", "160316.853000", "160316.856000", "160316.858000", "160316.861000", "160316.864000", "160316.867000", "160316.870000", "160316.873000", "160316.876000", "160316.879000", "160316.881000", "160316.885000", "160316.887000", "160316.891000", "160316.894000", "160316.897000", "160356.820000", "160356.823000", "160356.826000", "160356.829000", "160356.832000", "160356.834000", "160356.837000", "160356.840000", "160356.843000", "160356.846000", "160356.849000", "160356.852000", "160356.855000", "160356.857000", "160356.860000", "160356.863000", "160356.866000", "160356.869000", "160356.872000", "160356.875000", "160356.887000", "160356.890000", "160356.893000", "160356.896000", "160356.906000", "160356.909000", "160356.912000", "160400.864000", "160400.867000", "160400.871000"],
