{
  "AcquisitionMatrixPE": 104,
  "AcquisitionNumber": 1,
  "AcquisitionTime": "13:35:53.472500",
  "BandwidthPerPixelPhaseEncode": 17.17,
  "BaseResolution": 104,
  "BodyPartExamined": "BRAIN",
  "CoilString": "HC1-7;NC1_2",
  "ConsistencyInfo": "N4_VE11C_LATEST_20160120",
  "ConversionSoftware": "dcm2niix",
  "ConversionSoftwareVersion": "v1.0.20200427",
  "DerivedVendorReportedEchoSpacing": 0.000560011,
  "DeviceSerialNumber": "167006",
  "DwellTime": 2.1e-06,
  "EchoTime": 0.037,
  "EchoTrainLength": 104,
  "EffectiveEchoSpacing": 0.000560011,
  "FlipAngle": 52,
  "ImageComments": "Unaliased_MB4_PE3_LB",
  "ImageOrientationPatientDICOM": [0.999749, 0.0182487, -0.0129673, -0.0212909, 0.954067, -0.298834],
  "ImageType": [
    "ORIGINAL",
    "PRIMARY",
    "M",
    "MB",
    "ND",
    "MOSAIC"
],
  "ImagingFrequency": 123.259,
  "InPlanePhaseEncodingDirectionDICOM": "COL",
  "InstitutionAddress": "Chemin_Queen-Mary_4565_Montreal_District_CA_H3W_1W5",
  "InstitutionName": "IUGM",
  "InstitutionalDepartmentName": "Department",
  "MRAcquisitionType": "2D",
  "MagneticFieldStrength": 3,
  "Manufacturer": "Siemens",
  "ManufacturersModelName": "Prisma_fit",
  "Modality": "MR",
  "MultibandAccelerationFactor": 4,
  "PartialFourier": 1,
  "PatientPosition": "HFS",
  "PercentPhaseFOV": 100,
  "PercentSampling": 100,
  "PhaseEncodingDirection": "j",
  "PhaseEncodingSteps": 104,
  "PhaseResolution": 1,
  "PixelBandwidth": 2290,
  "ProcedureStepDescription": "video_friends",
  "ProtocolName": "func_task-friends-s03e10b",
  "PulseSequenceDetails": "%CustomerSeq%_cmrr_mbep2d_bold",
  "ReceiveCoilActiveElements": "HC1-7;NC1,2",
  "ReceiveCoilName": "HeadNeck_64",
  "ReconMatrixPE": 104,
  "RepetitionTime": 1.49,
  "SAR": 0.0284055,
  "ScanOptions": "FS",
  "ScanningSequence": "EP",
  "SequenceName": "epfid2d1_104",
  "SequenceVariant": "SK_SS",
  "SeriesDescription": "func_task-friends-s03e10b",
  "SeriesNumber": 11,
  "ShimSetting": [622, -7216, -8807, 702, 21, 1, 46, 11],
  "SliceThickness": 2,
  "SliceTiming": [0, 0.7825, 0.0975, 0.88, 0.195, 0.9775, 0.2925, 1.0775, 0.39, 1.175, 0.49, 1.2725, 0.5875, 1.37, 0.685, 0, 0.7825, 0.0975, 0.88, 0.195, 0.9775, 0.2925, 1.0775, 0.39, 1.175, 0.49, 1.2725, 0.5875, 1.37, 0.685, 0, 0.7825, 0.0975, 0.88, 0.195, 0.9775, 0.2925, 1.0775, 0.39, 1.175, 0.49, 1.2725, 0.5875, 1.37, 0.685, 0, 0.7825, 0.0975, 0.88, 0.195, 0.9775, 0.2925, 1.0775, 0.39, 1.175, 0.49, 1.2725, 0.5875, 1.37, 0.685],
  "SoftwareVersions": "syngo_MR_E11",
  "SpacingBetweenSlices": 2,
  "StationName": "MRC35049",
  "TaskName": "s03e10b",
  "TotalReadoutTime": 0.0576811,
  "TxRefAmp": 205.731,
  "WipMemBlock": "3d1e5423-4383-48ad-983f-05a1319bb784||Sequence: R016 ve11c/master r/e634e98; Dec 19 2017 11:00:25 by eja",
  "dcmmeta_affine": [
    [-1.999498724937439, -0.04258175566792488, -0.013836697675287724, 107.53316497802734],
    [-0.03649734705686569, 1.9081348180770874, -0.5980713367462158, -78.55882263183594],
    [-0.025934604927897453, 0.5976689457893372, 1.9084337949752808, -66.21170043945312],
    [0.0, 0.0, 0.0, 1.0]
],
  "dcmmeta_reorient_transform": [
    [0.0, -1.0, 0.0, 103.0],
    [1.0, 0.0, 0.0, 0.0],
    [0.0, 0.0, 1.0, 0.0],
    [0.0, 0.0, 0.0, 1.0]
],
  "dcmmeta_shape": [104, 104, 60, 451],
  "dcmmeta_slice_dim": 2,
  "dcmmeta_version": 0.6,
  "global": {
    "const": {
      "AcquisitionMatrix": [104, 0, 0, 104],
      "AngioFlag": "N",
      "BitsAllocated": 16,
      "BitsStored": 16,
      "BodyPartExamined": "BRAIN",
      "Columns": 832,
      "EchoNumbers": 1,
      "EchoTime": 37.0,
      "EchoTrainLength": 104,
      "FlipAngle": 52.0,
      "HighBit": 15,
      "ImageOrientationPatient": [0.99974938608279, 0.0182486734285, -0.0129673029264, -0.0212908778325, 0.95406742786026, -0.2988344719359],
      "ImagePositionPatient": [-815.4650351787, -825.82518680874, 222.3398950143],
      "ImageType": [
        "ORIGINAL",
        "PRIMARY",
        "M",
        "MB",
        "ND",
        "MOSAIC"
],
      "ImagedNucleus": "1H",
      "ImagingFrequency": 123.259153,
      "InPlanePhaseEncodingDirection": "COL",
      "MRAcquisitionType": "2D",
      "MagneticFieldStrength": 3.0,
      "Manufacturer": "SIEMENS",
      "ManufacturerModelName": "Prisma_fit",
      "Modality": "MR",
      "NumberOfAverages": 1.0,
      "NumberOfPhaseEncodingSteps": 104,
      "PercentPhaseFieldOfView": 100.0,
      "PercentSampling": 100.0,
      "PerformedProcedureStepStartTime": "121626.100000",
      "PhotometricInterpretation": "MONOCHROME2",
      "PixelBandwidth": 2290.0,
      "PixelRepresentation": 0,
      "PixelSpacing": [2.0, 2.0],
      "ProtocolName": "func_task-friends-s03e10b",
      "RepetitionTime": 1490.0,
      "Rows": 832,
      "SAR": 0.02840548376815,
      "SamplesPerPixel": 1,
      "ScanOptions": "FS",
      "ScanningSequence": "EP",
      "SequenceName": "epfid2d1_104",
      "SequenceVariant": [
        "SK",
        "SS"
],
      "SeriesDescription": "func_task-friends-s03e10b",
      "SeriesNumber": 11,
      "SeriesTime": "133709.709000",
      "SliceLocation": -40.432379959215,
      "SliceThickness": 2.0,
      "SmallestImagePixelValue": 0,
      "SoftwareVersions": "syngo MR E11",
      "SpacingBetweenSlices": 2.0000000328838,
      "SpecificCharacterSet": "ISO_IR 100",
      "StudyID": "1",
      "StudyTime": "121625.967000",
      "TransmitCoilName": "Body",
      "VariableFlipAngleFlag": "N",
      "WindowCenterWidthExplanation": "Algo1",
      "dBdt": 0.0},
    "slices": {}
  },
  "time": {
    "samples": {
      "AcquisitionNumber": [1, 2, 3, 4, 5, 6, 7, 8, 9, 10, 11, 12, 13, 14, 15, 16, 17, 18, 19, 20, 21, 22, 23, 24, 25, 26, 27, 28, 29, 30, 31, 32, 33, 34, 35, 36, 37, 38, 39, 40, 41, 42, 43, 44, 45, 46, 47, 48, 49, 50, 51, 52, 53, 54, 55, 56, 57, 58, 59, 60, 61, 62, 63, 64, 65, 66, 67, 68, 69, 70, 71, 72, 73, 74, 75, 76, 77, 78, 79, 80, 81, 82, 83, 84, 85, 86, 87, 88, 89, 90, 91, 92, 93, 94, 95, 96, 97, 98, 99, 100, 101, 102, 103, 104, 105, 106, 107, 108, 109, 110, 111, 112, 113, 114, 115, 116, 117, 118, 119, 120, 121, 122, 123, 124, 125, 126, 127, 128, 129, 130, 131, 132, 133, 134, 135, 136, 137, 138, 139, 140, 141, 142, 143, 144, 145, 146, 147, 148, 149, 150, 151, 152, 153, 154, 155, 156, 157, 158, 159, 160, 161, 162, 163, 164, 165, 166, 167, 168, 169, 170, 171, 172, 173, 174, 175, 176, 177, 178, 179, 180, 181, 182, 183, 184, 185, 186, 187, 188, 189, 190, 191, 192, 193, 194, 195, 196, 197, 198, 199, 200, 201, 202, 203, 204, 205, 206, 207, 208, 209, 210, 211, 212, 213, 214, 215, 216, 217, 218, 219, 220, 221, 222, 223, 224, 225, 226, 227, 228, 229, 230, 231, 232, 233, 234, 235, 236, 237, 238, 239, 240, 241, 242, 243, 244, 245, 246, 247, 248, 249, 250, 251, 252, 253, 254, 255, 256, 257, 258, 259, 260, 261, 262, 263, 264, 265, 266, 267, 268, 269, 270, 271, 272, 273, 274, 275, 276, 277, 278, 279, 280, 281, 282, 283, 284, 285, 286, 287, 288, 289, 290, 291, 292, 293, 294, 295, 296, 297, 298, 299, 300, 301, 302, 303, 304, 305, 306, 307, 308, 309, 310, 311, 312, 313, 314, 315, 316, 317, 318, 319, 320, 321, 322, 323, 324, 325, 326, 327, 328, 329, 330, 331, 332, 333, 334, 335, 336, 337, 338, 339, 340, 341, 342, 343, 344, 345, 346, 347, 348, 349, 350, 351, 352, 353, 354, 355, 356, 357, 358, 359, 360, 361, 362, 363, 364, 365, 366, 367, 368, 369, 370, 371, 372, 373, 374, 375, 376, 377, 378, 379, 380, 381, 382, 383, 384, 385, 386, 387, 388, 389, 390, 391, 392, 393, 394, 395, 396, 397, 398, 399, 400, 401, 402, 403, 404, 405, 406, 407, 408, 409, 410, 411, 412, 413, 414, 415, 416, 417, 418, 419, 420, 421, 422, 423, 424, 425, 426, 427, 428, 429, 430, 431, 432, 433, 434, 435, 436, 437, 438, 439, 440, 441, 442, 443, 444, 445, 446, 447, 448, 449, 450, 451],
      "AcquisitionTime": ["133553.472500", "133554.962500", "133556.452500", "133557.942500", "133559.432500", "133600.922500", "133602.412500", "133603.902500", "133605.392500", "133606.882500", "133608.372500", "133609.862500", "133611.352500", "133612.842500", "133614.332500", "133615.822500", "133617.312500", "133618.802500", "133620.292500", "133621.782500", "133623.272500", "133624.762500", "133626.252500", "133627.742500", "133629.232500", "133630.722500", "133632.212500", "133633.702500", "133635.192500", "133636.682500", "133638.172500", "133639.662500", "133641.152500", "133642.642500", "133644.132500", "133645.622500", "133647.112500", "133648.602500", "133650.092500", "133651.582500", "133653.072500", "133654.562500", "133656.052500", "133657.542500", "133659.032500", "133700.522500", "133702.012500", "133703.502500", "133704.992500", "133706.482500", "133707.972500", "133709.462500", "133710.952500", "133712.442500", "133713.932500", "133715.422500", "133716.912500", "133718.402500", "133719.892500", "133721.382500", "133722.872500", "133724.362500", "133725.852500", "133727.342500", "133728.832500", "133730.322500", "133731.812500", "133733.302500", "133734.792500", "133736.282500", "133737.772500", "133739.262500", "133740.752500", "133742.242500", "133743.732500", "133745.222500", "133746.712500", "133748.202500", "133749.692500", "133751.182500", "133752.672500", "133754.162500", "133755.652500", "133757.142500", "133758.632500", "133800.122500", "133801.612500", "133803.102500", "133804.592500", "133806.082500", "133807.572500", "133809.062500", "133810.552500", "133812.042500", "133813.532500", "133815.022500", "133816.512500", "133818.002500", "133819.492500", "133820.982500", "133822.472500", "133823.962500", "133825.452500", "133826.942500", "133828.432500", "133829.922500", "133831.412500", "133832.902500", "133834.392500", "133835.882500", "133837.372500", "133838.862500", "133840.352500", "133841.842500", "133843.332500", "133844.822500", "133846.312500", "133847.802500", "133849.292500", "133850.782500", "133852.272500", "133853.762500", "133855.252500", "133856.742500", "133858.232500", "133859.722500", "133901.212500", "133902.702500", "133904.192500", "133905.682500", "133907.172500", "133908.662500", "133910.152500", "133911.642500", "133913.132500", "133914.622500", "133916.112500", "133917.602500", "133919.092500", "133920.582500", "133922.072500", "133923.562500", "133925.052500", "133926.542500", "133928.032500", "133929.522500", "133931.012500", "133932.502500", "133933.992500", "133935.482500", "133936.972500", "133938.462500", "133939.952500", "133941.442500", "133942.932500", "133944.422500", "133945.912500", "133947.402500", "133948.892500", "133950.382500", "133951.872500", "133953.362500", "133954.852500", "133956.342500", "133957.832500", "133959.322500", "134000.812500", "134002.302500", "134003.792500", "134005.282500", "134006.772500", "134008.262500", "134009.752500", "134011.242500", "134012.732500", "134014.222500", "134015.712500", "134017.202500", "134018.692500", "134020.182500", "134021.672500", "134023.162500", "134024.652500", "134026.142500", "134027.632500", "134029.122500", "134030.612500", "134032.102500", "134033.592500", "134035.082500", "134036.572500", "134038.062500", "134039.552500", "134041.042500", "134042.532500", "134044.022500", "134045.512500", "134047.002500", "134048.492500", "134049.982500", "134051.472500", "134052.962500", "134054.452500", "134055.942500", "134057.432500", "134058.922500", "134100.412500", "134101.902500", "134103.392500", "134104.882500", "134106.372500", "134107.862500", "134109.352500", "134110.842500", "134112.332500", "134113.822500", "134115.312500", "134116.802500", "134118.292500", "134119.782500", "134121.272500", "134122.762500", "134124.252500", "134125.742500", "134127.232500", "134128.722500", "134130.212500", "134131.702500", "134133.192500", "134134.682500", "134136.172500", "134137.662500", "134139.152500", "134140.642500", "134142.132500", "134143.622500", "134145.112500", "134146.602500", "134148.092500", "134149.582500", "134151.072500", "134152.562500", "134154.052500", "134155.542500", "134157.032500", "134158.522500", "134200.012500", "134201.502500", "134202.992500", "134204.482500", "134205.972500", "134207.462500", "134208.952500", "134210.442500", "134211.932500", "134213.422500", "134214.912500", "134216.402500", "134217.892500", "134219.382500", "134220.872500", "134222.362500", "134223.852500", "134225.342500", "134226.832500", "134228.322500", "134229.812500", "134231.302500", "134232.792500", "134234.282500", "134235.772500", "134237.262500", "134238.752500", "134240.242500", "134241.732500", "134243.222500", "134244.712500", "134246.202500", "134247.692500", "134249.182500", "134250.672500", "134252.162500", "134253.652500", "134255.142500", "134256.632500", "134258.122500", "134259.612500", "134301.102500", "134302.592500", "134304.082500", "134305.572500", "134307.062500", "134308.552500", "134310.042500", "134311.532500", "134313.022500", "134314.512500", "134316.002500", "134317.492500", "134318.982500", "134320.472500", "134321.962500", "134323.452500", "134324.942500", "134326.432500", "134327.922500", "134329.412500", "134330.902500", "134332.392500", "134333.882500", "134335.372500", "134336.862500", "134338.352500", "134339.842500", "134341.332500", "134342.822500", "134344.312500", "134345.802500", "134347.292500", "134348.782500", "134350.272500", "134351.762500", "134353.252500", "134354.742500", "134356.232500", "134357.722500", "134359.212500", "134400.702500", "134402.192500", "134403.682500", "134405.172500", "134406.662500", "134408.152500", "134409.642500", "134411.132500", "134412.622500", "134414.112500", "134415.602500", "134417.092500", "134418.582500", "134420.072500", "134421.562500", "134423.052500", "134424.542500", "134426.032500", "134427.522500", "134429.012500", "134430.502500", "134431.992500", "134433.482500", "134434.972500", "134436.462500", "134437.952500", "134439.442500", "134440.932500", "134442.422500", "134443.912500", "134445.402500", "134446.892500", "134448.382500", "134449.872500", "134451.362500", "134452.852500", "134454.342500", "134455.832500", "134457.322500", "134458.812500", "134500.302500", "134501.792500", "134503.282500", "134504.772500", "134506.262500", "134507.752500", "134509.242500", "134510.732500", "134512.222500", "134513.712500", "134515.202500", "134516.692500", "134518.182500", "134519.672500", "134521.162500", "134522.652500", "134524.142500", "134525.632500", "134527.122500", "134528.612500", "134530.102500", "134531.592500", "134533.082500", "134534.572500", "134536.062500", "134537.552500", "134539.042500", "134540.532500", "134542.022500", "134543.512500", "134545.002500", "134546.492500", "134547.982500", "134549.472500", "134550.962500", "134552.452500", "134553.942500", "134555.432500", "134556.922500", "134558.412500", "134559.902500", "134601.392500", "134602.882500", "134604.372500", "134605.862500", "134607.352500", "134608.842500", "134610.332500", "134611.822500", "134613.312500", "134614.802500", "134616.292500", "134617.782500", "134619.272500", "134620.762500", "134622.252500", "134623.742500", "134625.232500", "134626.722500", "134628.212500", "134629.702500", "134631.192500", "134632.682500", "134634.172500", "134635.662500", "134637.152500", "134638.642500", "134640.132500", "134641.622500", "134643.112500", "134644.602500", "134646.092500", "134647.582500", "134649.072500", "134650.562500", "134652.052500", "134653.542500", "134655.032500", "134656.522500", "134658.012500", "134659.502500", "134700.992500", "134702.482500", "134703.972500"],
      "ContentTime": ["133709.713000", "133709.716000", "133709.719000", "133709.722000", "133709.725000", "133709.728000", "133709.731000", "133709.733000", "133709.736000", "133709.739000", "133709.742000", "133709.745000", "133709.748000", "133709.751000", "133709.754000", "133709.756000", "133709.759000", "133709.767000", "133709.770000", "133709.773000", "133709.776000", "133729.681000", "133729.684000", "133729.687000", "133729.690000", "133729.692000", "133729.695000", "133729.698000", "133729.701000", "133729.704000", "133729.707000", "133729.710000", "133729.712000", "133729.715000", "133729.718000", "133729.721000", "133729.724000", "133729.727000", "133729.730000", "133729.733000", "133729.735000", "133749.681000", "133749.684000", "133749.687000", "133749.689000", "133749.692000", "133749.695000", "133749.703000", "133749.706000", "133749.709000", "133749.712000", "133749.715000", "133749.718000", "133749.720000", "133749.723000", "133749.726000", "133749.729000", "133749.732000", "133749.734000", "133749.739000", "133749.741000", "133809.681000", "133809.684000", "133809.687000", "133809.689000", "133809.693000", "133809.695000", "133809.698000", "133809.701000", "133809.704000", "133809.707000", "133809.709000", "133809.712000", "133809.715000", "133809.718000", "133809.721000", "133809.724000", "133809.727000", "133809.729000", "133809.732000", "133809.735000", "133809.738000", "133829.681000", "133829.684000", "133829.687000", "133829.690000", "133829.692000", "133829.695000", "133829.698000", "133829.701000", "133829.704000", "133829.706000", "133829.709000", "133829.712000", "133829.715000", "133829.718000", "133829.721000", "133829.724000", "133829.726000", "133829.729000", "133829.732000", "133829.735000", "133909.682000", "133909.688000", "133909.691000", "133909.694000", "133909.697000", "133909.700000", "133909.703000", "133909.705000", "133909.708000", "133909.711000", "133909.714000", "133909.717000", "133909.720000", "133909.723000", "133909.725000", "133909.728000", "133909.731000", "133909.734000", "133909.737000", "133909.740000", "133909.742000", "133909.745000", "133909.748000", "133909.751000", "133909.754000", "133909.757000", "133909.759000", "133909.762000", "133909.765000", "133949.681000", "133949.684000", "133949.687000", "133949.690000", "133949.693000", "133949.695000", "133949.698000", "133949.701000", "133949.704000", "133949.707000", "133949.710000", "133949.712000", "133949.715000", "133949.718000", "133949.722000", "133949.735000", "133949.738000", "133949.740000", "133949.743000", "133949.746000", "133949.749000", "133949.752000", "133949.755000", "133949.757000", "133949.760000", "133949.763000", "134029.681000", "134029.684000", "134029.687000", "134029.689000", "134029.692000", "134029.695000", "134029.698000", "134029.701000", "134029.704000", "134029.707000", "134029.710000", "134029.712000", "134029.715000", "134029.718000", "134029.721000", "134029.724000", "134029.727000", "134029.730000", "134029.733000", "134029.735000", "134029.738000", "134029.741000", "134029.744000", "134029.747000", "134029.750000", "134029.753000", "134029.755000", "134109.681000", "134109.684000", "134109.687000", "134109.690000", "134109.693000", "134109.695000", "134109.698000", "134109.701000", "134109.704000", "134109.707000", "134109.709000", "134109.713000", "134109.715000", "134109.718000", "134109.721000", "134109.724000", "134109.727000", "134109.730000", "134109.733000", "134109.736000", "134109.738000", "134109.741000", "134109.744000", "134109.747000", "134109.750000", "134109.753000", "134109.756000", "134149.681000", "134149.684000", "134149.687000", "134149.690000", "134149.692000", "134149.695000", "134149.698000", "134149.701000", "134149.704000", "134149.707000", "134149.710000", "134149.713000", "134149.715000", "134149.718000", "134149.721000", "134149.724000", "134149.727000", "134149.730000", "134149.733000", "134149.736000", "134149.738000", "134149.741000", "134149.744000", "134149.747000", "134149.750000", "134149.753000", "134149.756000", "134229.681000", "134229.684000", "134229.687000", "134229.690000", "134229.692000", "134229.695000", "134229.698000", "134229.701000", "134229.704000", "134229.707000", "134229.710000", "134229.713000", "134229.715000", "134229.718000", "134229.721000", "134229.724000", "134229.727000", "134229.730000", "134229.733000", "134229.735000", "134229.738000", "134229.741000", "134229.744000", "134229.747000", "134229.750000", "134229.753000", "134229.755000", "134309.681000", "134309.684000", "134309.687000", "134309.690000", "134309.693000", "134309.696000", "134309.698000", "134309.701000", "134309.704000", "134309.707000", "134309.710000", "134309.713000", "134309.716000", "134309.719000", "134309.721000", "134309.724000", "134309.727000", "134309.730000", "134309.733000", "134309.736000", "134309.739000", "134309.742000", "134309.744000", "134309.747000", "134309.750000", "134309.753000", "134309.756000", "134349.682000", "134349.685000", "134349.688000", "134349.691000", "134349.694000", "134349.697000", "134349.700000", "134349.702000", "134349.705000", "134349.708000", "134349.711000", "134349.714000", "134349.717000", "134349.719000", "134349.722000", "134349.725000", "134349.728000", "134349.731000", "134349.734000", "134349.737000", "134349.740000", "134349.743000", "134349.746000", "134349.749000", "134349.752000", "134349.755000", "134429.681000", "134429.684000", "134429.687000", "134429.690000", "134429.693000", "134429.695000", "134429.698000", "134429.701000", "134429.704000", "134429.707000", "134429.710000", "134429.713000", "134429.715000", "134429.718000", "134429.721000", "134429.724000", "134429.727000", "134429.730000", "134429.733000", "134429.736000", "134429.738000", "134429.741000", "134429.744000", "134429.747000", "134429.750000", "134429.753000", "134429.756000", "134509.681000", "134509.684000", "134509.687000", "134509.700000", "134509.703000", "134509.705000", "134509.708000", "134509.711000", "134509.714000", "134509.717000", "134509.720000", "134509.722000", "134509.725000", "134509.728000", "134509.731000", "134509.734000", "134509.737000", "134509.740000", "134509.743000", "134509.745000", "134509.748000", "134509.751000", "134509.754000", "134509.757000", "134509.760000", "134509.763000", "134509.765000", "134549.681000", "134549.684000", "134549.687000", "134549.690000", "134549.693000", "134549.695000", "134549.698000", "134549.701000", "134549.704000", "134549.707000", "134549.710000", "134549.713000", "134549.716000", "134549.719000", "134549.721000", "134549.724000", "134549.727000", "134549.730000", "134549.733000", "134549.736000", "134549.739000", "134549.742000", "134549.744000", "134549.747000", "134549.750000", "134549.753000", "134549.756000", "134629.681000", "134629.684000", "134629.687000", "134629.690000", "134629.692000", "134629.695000", "134629.698000", "134629.701000", "134629.704000", "134629.707000", "134629.710000", "134629.713000", "134629.715000", "134629.718000", "134629.721000", "134629.724000", "134629.727000", "134629.730000", "134629.733000", "134629.736000", "134629.739000", "134629.741000", "134629.744000", "134629.747000", "134629.750000", "134629.753000", "134629.756000", "134706.481000", "134706.492000", "134706.495000", "134706.498000", "134706.501000", "134706.504000", "134706.507000", "134706.510000", "134706.513000", "134706.516000", "134706.519000", "134706.522000", "134706.525000", "134706.528000", "134706.531000", "134706.534000", "134706.537000", "134706.540000", "134706.543000", "134706.546000", "134706.548000", "134706.551000", "134706.554000", "134706.557000", "134706.560000"],
