{
  "AcquisitionMatrixPE": 104,
  "AcquisitionNumber": 1,
  "AcquisitionTime": "09:42:7.642500",
  "BandwidthPerPixelPhaseEncode": 17.17,
  "BaseResolution": 104,
  "BodyPartExamined": "BRAIN",
  "CoilString": "HC1-7;NC1_2",
  "ConsistencyInfo": "N4_VE11C_LATEST_20160120",
  "ConversionSoftware": "dcm2niix",
  "ConversionSoftwareVersion": "v1.0.20190720  (JP2:OpenJPEG) GCC7.3.0",
  "DerivedVendorReportedEchoSpacing": 0.000560011,
  "DeviceSerialNumber": "167006",
  "DwellTime": 2.1e-06,
  "EchoTime": 0.037,
  "EchoTrainLength": 104,
  "EffectiveEchoSpacing": 0.000560011,
  "FlipAngle": 52,
  "ImageComments": "Unaliased_MB4_PE3_LB",
  "ImageOrientationPatientDICOM": [0.999758, -0.0187198, 0.011537, 0.0219894, 0.851564, -0.523789],
  "ImageType": [
    "ORIGINAL",
    "PRIMARY",
    "M",
    "MB",
    "ND",
    "MOSAIC"
],
  "ImagingFrequency": 123.259,
  "InPlanePhaseEncodingDirectionDICOM": "COL",
  "InstitutionAddress": "Chemin_Queen-Mary_4565_Montreal_District_CA_H3W_1W5",
  "InstitutionName": "IUGM",
  "InstitutionalDepartmentName": "Department",
  "MRAcquisitionType": "2D",
  "MagneticFieldStrength": 3,
  "Manufacturer": "Siemens",
  "ManufacturersModelName": "Prisma_fit",
  "Modality": "MR",
  "MultibandAccelerationFactor": 4,
  "PartialFourier": 1,
  "PatientPosition": "HFS",
  "PercentPhaseFOV": 100,
  "PhaseEncodingDirection": "j",
  "PhaseEncodingSteps": 104,
  "PhaseResolution": 1,
  "PixelBandwidth": 2290,
  "ProcedureStepDescription": "video_friends",
  "ProtocolName": "func_task-friends-s01e12b",
  "PulseSequenceDetails": "%CustomerSeq%_cmrr_mbep2d_bold",
  "ReceiveCoilActiveElements": "HC1-7;NC1,2",
  "ReceiveCoilName": "HeadNeck_64",
  "ReconMatrixPE": 104,
  "RepetitionTime": 1.49,
  "SAR": 0.0362646,
  "ScanOptions": "FS",
  "ScanningSequence": "EP",
  "SequenceName": "epfid2d1_104",
  "SequenceVariant": "SK_SS",
  "SeriesDescription": "func_task-friends-s01e12b",
  "SeriesNumber": 10,
  "ShimSetting": [622, -7197, -8856, 377, -40, -179, 25, -13],
  "SliceThickness": 2,
  "SliceTiming": [0, 0.7825, 0.0975, 0.88, 0.195, 0.98, 0.2925, 1.0775, 0.39, 1.175, 0.49, 1.2725, 0.5875, 1.37, 0.685, 0, 0.7825, 0.0975, 0.88, 0.195, 0.98, 0.2925, 1.0775, 0.39, 1.175, 0.49, 1.2725, 0.5875, 1.37, 0.685, 0, 0.7825, 0.0975, 0.88, 0.195, 0.98, 0.2925, 1.0775, 0.39, 1.175, 0.49, 1.2725, 0.5875, 1.37, 0.685, 0, 0.7825, 0.0975, 0.88, 0.195, 0.98, 0.2925, 1.0775, 0.39, 1.175, 0.49, 1.2725, 0.5875, 1.37, 0.685],
  "SoftwareVersions": "syngo_MR_E11",
  "SpacingBetweenSlices": 2,
  "StationName": "MRC35049",
  "TaskName": "friends",
  "TotalReadoutTime": 0.0576811,
  "TxRefAmp": 249.91,
  "WipMemBlock": "1133c78e-2f7e-43f0-bebe-0457027e3f53||Sequence: R016 ve11c/master r/e634e98; Dec 19 2017 11:00:25 by eja",
  "dcmmeta_affine": [
    [-1.9995163679122925, 0.0439787432551384, 3.852000372717157e-05, 101.21416473388672],
    [0.03743959963321686, 1.703128695487976, -1.0478315353393555, -59.80520248413086],
    [0.023073958232998848, 1.0475775003433228, 1.7035402059555054, -90.12505340576172],
    [0.0, 0.0, 0.0, 1.0]
],
  "dcmmeta_reorient_transform": [
    [0.0, -1.0, 0.0, 103.0],
    [1.0, 0.0, 0.0, 0.0],
    [0.0, 0.0, 1.0, 0.0],
    [0.0, 0.0, 0.0, 1.0]
],
  "dcmmeta_shape": [104, 104, 60, 471],
  "dcmmeta_slice_dim": 2,
  "dcmmeta_version": 0.6,
  "global": {
    "const": {
      "AcquisitionMatrix": [104, 0, 0, 104],
      "AngioFlag": "N",
      "BitsAllocated": 16,
      "BitsStored": 16,
      "BodyPartExamined": "BRAIN",
      "Columns": 832,
      "EchoNumbers": 1,
      "EchoTime": 37.0,
      "EchoTrainLength": 104,
      "FlipAngle": 52.0,
      "HighBit": 15,
      "ImageOrientationPatient": [0.99975820434963, -0.0187198007174, 0.0115369795316, 0.02198937162959, 0.85156435051306, -0.5237887212136],
      "ImagePositionPatient": [-849.57621036134, -721.92788613311, 390.69468885606],
      "ImageType": [
        "ORIGINAL",
        "PRIMARY",
        "M",
        "MB",
        "ND",
        "MOSAIC"
],
      "ImagedNucleus": "1H",
      "ImagingFrequency": 123.259113,
      "InPlanePhaseEncodingDirection": "COL",
      "MRAcquisitionType": "2D",
      "MagneticFieldStrength": 3.0,
      "Manufacturer": "SIEMENS",
      "ManufacturerModelName": "Prisma_fit",
      "Modality": "MR",
      "NumberOfAverages": 1.0,
      "NumberOfPhaseEncodingSteps": 104,
      "PercentPhaseFieldOfView": 100.0,
      "PercentSampling": 100.0,
      "PerformedProcedureStepStartTime": "082810.608000",
      "PhotometricInterpretation": "MONOCHROME2",
      "PixelBandwidth": 2290.0,
      "PixelRepresentation": 0,
      "PixelSpacing": [2.0, 2.0],
      "ProtocolName": "func_task-friends-s01e12b",
      "RepetitionTime": 1490.0,
      "Rows": 832,
      "SAR": 0.03626464204136,
      "SamplesPerPixel": 1,
      "ScanOptions": "FS",
      "ScanningSequence": "EP",
      "SequenceName": "epfid2d1_104",
      "SequenceVariant": [
        "SK",
        "SS"
],
      "SeriesDescription": "func_task-friends-s01e12b",
      "SeriesNumber": 10,
      "SeriesTime": "094339.331000",
      "SliceLocation": -45.430988552987,
      "SliceThickness": 2.0,
      "SmallestImagePixelValue": 0,
      "SoftwareVersions": "syngo MR E11",
      "SpacingBetweenSlices": 1.999999988817,
      "SpecificCharacterSet": "ISO_IR 100",
      "StudyID": "1",
      "StudyTime": "082810.501000",
      "TransmitCoilName": "Body",
      "VariableFlipAngleFlag": "N",
      "WindowCenterWidthExplanation": "Algo1",
      "dBdt": 0.0},
    "slices": {}
  },
  "time": {
    "samples": {
      "AcquisitionNumber": [1, 2, 3, 4, 5, 6, 7, 8, 9, 10, 11, 12, 13, 14, 15, 16, 17, 18, 19, 20, 21, 22, 23, 24, 25, 26, 27, 28, 29, 30, 31, 32, 33, 34, 35, 36, 37, 38, 39, 40, 41, 42, 43, 44, 45, 46, 47, 48, 49, 50, 51, 52, 53, 54, 55, 56, 57, 58, 59, 60, 61, 62, 63, 64, 65, 66, 67, 68, 69, 70, 71, 72, 73, 74, 75, 76, 77, 78, 79, 80, 81, 82, 83, 84, 85, 86, 87, 88, 89, 90, 91, 92, 93, 94, 95, 96, 97, 98, 99, 100, 101, 102, 103, 104, 105, 106, 107, 108, 109, 110, 111, 112, 113, 114, 115, 116, 117, 118, 119, 120, 121, 122, 123, 124, 125, 126, 127, 128, 129, 130, 131, 132, 133, 134, 135, 136, 137, 138, 139, 140, 141, 142, 143, 144, 145, 146, 147, 148, 149, 150, 151, 152, 153, 154, 155, 156, 157, 158, 159, 160, 161, 162, 163, 164, 165, 166, 167, 168, 169, 170, 171, 172, 173, 174, 175, 176, 177, 178, 179, 180, 181, 182, 183, 184, 185, 186, 187, 188, 189, 190, 191, 192, 193, 194, 195, 196, 197, 198, 199, 200, 201, 202, 203, 204, 205, 206, 207, 208, 209, 210, 211, 212, 213, 214, 215, 216, 217, 218, 219, 220, 221, 222, 223, 224, 225, 226, 227, 228, 229, 230, 231, 232, 233, 234, 235, 236, 237, 238, 239, 240, 241, 242, 243, 244, 245, 246, 247, 248, 249, 250, 251, 252, 253, 254, 255, 256, 257, 258, 259, 260, 261, 262, 263, 264, 265, 266, 267, 268, 269, 270, 271, 272, 273, 274, 275, 276, 277, 278, 279, 280, 281, 282, 283, 284, 285, 286, 287, 288, 289, 290, 291, 292, 293, 294, 295, 296, 297, 298, 299, 300, 301, 302, 303, 304, 305, 306, 307, 308, 309, 310, 311, 312, 313, 314, 315, 316, 317, 318, 319, 320, 321, 322, 323, 324, 325, 326, 327, 328, 329, 330, 331, 332, 333, 334, 335, 336, 337, 338, 339, 340, 341, 342, 343, 344, 345, 346, 347, 348, 349, 350, 351, 352, 353, 354, 355, 356, 357, 358, 359, 360, 361, 362, 363, 364, 365, 366, 367, 368, 369, 370, 371, 372, 373, 374, 375, 376, 377, 378, 379, 380, 381, 382, 383, 384, 385, 386, 387, 388, 389, 390, 391, 392, 393, 394, 395, 396, 397, 398, 399, 400, 401, 402, 403, 404, 405, 406, 407, 408, 409, 410, 411, 412, 413, 414, 415, 416, 417, 418, 419, 420, 421, 422, 423, 424, 425, 426, 427, 428, 429, 430, 431, 432, 433, 434, 435, 436, 437, 438, 439, 440, 441, 442, 443, 444, 445, 446, 447, 448, 449, 450, 451, 452, 453, 454, 455, 456, 457, 458, 459, 460, 461, 462, 463, 464, 465, 466, 467, 468, 469, 470, 471],
      "AcquisitionTime": ["094207.642500", "094209.132500", "094210.622500", "094212.112500", "094213.602500", "094215.092500", "094216.582500", "094218.072500", "094219.562500", "094221.052500", "094222.542500", "094224.032500", "094225.522500", "094227.012500", "094228.502500", "094229.992500", "094231.482500", "094232.972500", "094234.462500", "094235.952500", "094237.442500", "094238.932500", "094240.422500", "094241.912500", "094243.402500", "094244.892500", "094246.382500", "094247.872500", "094249.362500", "094250.852500", "094252.342500", "094253.832500", "094255.322500", "094256.812500", "094258.302500", "094259.792500", "094301.282500", "094302.772500", "094304.262500", "094305.752500", "094307.242500", "094308.732500", "094310.222500", "094311.712500", "094313.202500", "094314.692500", "094316.182500", "094317.672500", "094319.162500", "094320.652500", "094322.142500", "094323.632500", "094325.122500", "094326.612500", "094328.102500", "094329.592500", "094331.082500", "094332.572500", "094334.062500", "094335.552500", "094337.042500", "094338.532500", "094340.022500", "094341.512500", "094343.002500", "094344.492500", "094345.982500", "094347.472500", "094348.962500", "094350.452500", "094351.942500", "094353.432500", "094354.922500", "094356.412500", "094357.902500", "094359.392500", "094400.882500", "094402.372500", "094403.862500", "094405.352500", "094406.842500", "094408.332500", "094409.822500", "094411.312500", "094412.802500", "094414.292500", "094415.782500", "094417.272500", "094418.762500", "094420.252500", "094421.742500", "094423.232500", "094424.722500", "094426.212500", "094427.702500", "094429.192500", "094430.682500", "094432.172500", "094433.662500", "094435.152500", "094436.642500", "094438.132500", "094439.622500", "094441.112500", "094442.602500", "094444.092500", "094445.582500", "094447.072500", "094448.562500", "094450.052500", "094451.542500", "094453.032500", "094454.522500", "094456.012500", "094457.502500", "094458.992500", "094500.482500", "094501.972500", "094503.462500", "094504.952500", "094506.442500", "094507.932500", "094509.422500", "094510.912500", "094512.402500", "094513.892500", "094515.382500", "094516.872500", "094518.362500", "094519.852500", "094521.342500", "094522.832500", "094524.322500", "094525.812500", "094527.302500", "094528.792500", "094530.282500", "094531.772500", "094533.262500", "094534.752500", "094536.242500", "094537.732500", "094539.222500", "094540.712500", "094542.202500", "094543.692500", "094545.182500", "094546.672500", "094548.162500", "094549.652500", "094551.142500", "094552.632500", "094554.122500", "094555.612500", "094557.102500", "094558.592500", "094600.082500", "094601.572500", "094603.062500", "094604.552500", "094606.042500", "094607.532500", "094609.022500", "094610.512500", "094612.002500", "094613.492500", "094614.982500", "094616.472500", "094617.962500", "094619.452500", "094620.942500", "094622.432500", "094623.922500", "094625.412500", "094626.902500", "094628.392500", "094629.882500", "094631.372500", "094632.862500", "094634.352500", "094635.842500", "094637.332500", "094638.822500", "094640.312500", "094641.802500", "094643.292500", "094644.782500", "094646.272500", "094647.762500", "094649.252500", "094650.742500", "094652.232500", "094653.722500", "094655.212500", "094656.702500", "094658.192500", "094659.682500", "094701.172500", "094702.662500", "094704.152500", "094705.642500", "094707.132500", "094708.622500", "094710.112500", "094711.602500", "094713.092500", "094714.582500", "094716.072500", "094717.562500", "094719.052500", "094720.542500", "094722.032500", "094723.522500", "094725.012500", "094726.502500", "094727.992500", "094729.482500", "094730.972500", "094732.462500", "094733.952500", "094735.442500", "094736.932500", "094738.422500", "094739.912500", "094741.402500", "094742.892500", "094744.382500", "094745.872500", "094747.362500", "094748.852500", "094750.342500", "094751.832500", "094753.322500", "094754.812500", "094756.302500", "094757.792500", "094759.282500", "094800.772500", "094802.262500", "094803.752500", "094805.242500", "094806.732500", "094808.222500", "094809.712500", "094811.202500", "094812.692500", "094814.182500", "094815.672500", "094817.162500", "094818.652500", "094820.142500", "094821.632500", "094823.122500", "094824.612500", "094826.102500", "094827.592500", "094829.082500", "094830.572500", "094832.062500", "094833.552500", "094835.042500", "094836.532500", "094838.022500", "094839.512500", "094841.002500", "094842.492500", "094843.982500", "094845.472500", "094846.962500", "094848.452500", "094849.942500", "094851.432500", "094852.922500", "094854.412500", "094855.902500", "094857.392500", "094858.882500", "094900.372500", "094901.862500", "094903.352500", "094904.842500", "094906.332500", "094907.822500", "094909.312500", "094910.802500", "094912.292500", "094913.782500", "094915.272500", "094916.762500", "094918.252500", "094919.742500", "094921.232500", "094922.722500", "094924.212500", "094925.702500", "094927.192500", "094928.682500", "094930.172500", "094931.662500", "094933.152500", "094934.642500", "094936.132500", "094937.622500", "094939.112500", "094940.602500", "094942.092500", "094943.582500", "094945.072500", "094946.562500", "094948.052500", "094949.542500", "094951.032500", "094952.522500", "094954.012500", "094955.502500", "094956.992500", "094958.482500", "094959.972500", "095001.462500", "095002.952500", "095004.442500", "095005.932500", "095007.422500", "095008.912500", "095010.402500", "095011.892500", "095013.382500", "095014.872500", "095016.362500", "095017.852500", "095019.342500", "095020.832500", "095022.322500", "095023.812500", "095025.302500", "095026.792500", "095028.282500", "095029.772500", "095031.262500", "095032.752500", "095034.242500", "095035.732500", "095037.222500", "095038.712500", "095040.202500", "095041.692500", "095043.182500", "095044.672500", "095046.162500", "095047.652500", "095049.142500", "095050.632500", "095052.122500", "095053.612500", "095055.102500", "095056.592500", "095058.082500", "095059.572500", "095101.062500", "095102.552500", "095104.042500", "095105.532500", "095107.022500", "095108.512500", "095110.002500", "095111.492500", "095112.982500", "095114.472500", "095115.962500", "095117.452500", "095118.942500", "095120.432500", "095121.922500", "095123.412500", "095124.902500", "095126.392500", "095127.882500", "095129.372500", "095130.862500", "095132.352500", "095133.842500", "095135.332500", "095136.822500", "095138.312500", "095139.802500", "095141.292500", "095142.782500", "095144.272500", "095145.762500", "095147.252500", "095148.742500", "095150.232500", "095151.722500", "095153.212500", "095154.702500", "095156.192500", "095157.682500", "095159.172500", "095200.662500", "095202.152500", "095203.642500", "095205.132500", "095206.622500", "095208.112500", "095209.602500", "095211.092500", "095212.582500", "095214.072500", "095215.562500", "095217.052500", "095218.542500", "095220.032500", "095221.522500", "095223.012500", "095224.502500", "095225.992500", "095227.482500", "095228.972500", "095230.462500", "095231.952500", "095233.442500", "095234.932500", "095236.422500", "095237.912500", "095239.402500", "095240.892500", "095242.382500", "095243.872500", "095245.362500", "095246.852500", "095248.342500", "095249.832500", "095251.322500", "095252.812500", "095254.302500", "095255.792500", "095257.282500", "095258.772500", "095300.262500", "095301.752500", "095303.242500", "095304.732500", "095306.222500", "095307.712500", "095309.202500", "095310.692500", "095312.182500", "095313.672500", "095315.162500", "095316.652500", "095318.142500", "095319.632500", "095321.122500", "095322.612500", "095324.102500", "095325.592500", "095327.082500", "095328.572500", "095330.062500", "095331.552500", "095333.042500", "095334.532500", "095336.022500", "095337.512500", "095339.002500", "095340.492500", "095341.982500", "095343.472500", "095344.962500", "095346.452500", "095347.942500"],
      "ContentTime": ["094339.334000", "094339.342000", "094339.345000", "094339.348000", "094339.350000", "094339.353000", "094339.356000", "094339.359000", "094339.362000", "094339.365000", "094339.367000", "094339.370000", "094339.373000", "094339.376000", "094339.379000", "094339.381000", "094339.384000", "094339.387000", "094339.390000", "094339.393000", "094339.395000", "094339.398000", "094339.401000", "094339.404000", "094339.407000", "094339.409000", "094339.412000", "094339.415000", "094339.418000", "094339.421000", "094339.423000", "094339.426000", "094339.429000", "094339.432000", "094339.435000", "094339.438000", "094359.291000", "094359.294000", "094359.297000", "094359.305000", "094359.308000", "094359.311000", "094359.313000", "094359.316000", "094359.319000", "094359.322000", "094359.325000", "094359.328000", "094359.330000", "094359.333000", "094359.336000", "094359.339000", "094359.341000", "094359.344000", "094359.347000", "094359.350000", "094419.291000", "094419.294000", "094419.297000", "094419.300000", "094419.302000", "094419.305000", "094419.308000", "094419.311000", "094419.314000", "094419.317000", "094419.320000", "094419.322000", "094419.325000", "094419.328000", "094419.331000", "094419.334000", "094419.337000", "094419.339000", "094419.342000", "094419.345000", "094439.291000", "094439.294000", "094439.296000", "094439.299000", "094439.302000", "094439.305000", "094439.308000", "094439.311000", "094439.313000", "094439.316000", "094439.319000", "094439.322000", "094439.325000", "094439.327000", "094439.330000", "094439.333000", "094439.336000", "094439.339000", "094439.341000", "094439.344000", "094519.292000", "094519.295000", "094519.298000", "094519.300000", "094519.303000", "094519.306000", "094519.309000", "094519.312000", "094519.314000", "094519.317000", "094519.321000", "094519.324000", "094519.326000", "094519.329000", "094519.332000", "094519.335000", "094519.338000", "094519.348000", "094519.351000", "094519.354000", "094519.356000", "094519.359000", "094519.362000", "094519.365000", "094519.368000", "094519.371000", "094519.373000", "094519.376000", "094519.379000", "094519.382000", "094519.385000", "094559.292000", "094559.295000", "094559.298000", "094559.300000", "094559.303000", "094559.306000", "094559.309000", "094559.312000", "094559.314000", "094559.317000", "094559.320000", "094559.323000", "094559.326000", "094559.328000", "094559.331000", "094559.334000", "094559.337000", "094559.340000", "094559.342000", "094559.345000", "094559.348000", "094559.351000", "094559.354000", "094559.357000", "094559.359000", "094559.362000", "094559.365000", "094639.291000", "094639.294000", "094639.297000", "094639.299000", "094639.302000", "094639.305000", "094639.308000", "094639.311000", "094639.313000", "094639.323000", "094639.326000", "094639.329000", "094639.331000", "094639.334000", "094639.337000", "094639.340000", "094639.343000", "094639.346000", "094639.349000", "094639.352000", "094639.355000", "094639.357000", "094639.360000", "094639.363000", "094639.366000", "094639.369000", "094639.371000", "094719.291000", "094719.294000", "094719.297000", "094719.300000", "094719.302000", "094719.305000", "094719.316000", "094719.319000", "094719.322000", "094719.325000", "094719.327000", "094719.330000", "094719.333000", "094719.336000", "094719.339000", "094719.342000", "094719.344000", "094719.347000", "094719.350000", "094719.353000", "094719.356000", "094719.359000", "094719.361000", "094719.364000", "094719.367000", "094719.370000", "094719.373000", "094759.292000", "094759.295000", "094759.298000", "094759.301000", "094759.303000", "094759.306000", "094759.309000", "094759.312000", "094759.315000", "094759.317000", "094759.320000", "094759.323000", "094759.326000", "094759.329000", "094759.332000", "094759.334000", "094759.337000", "094759.340000", "094759.343000", "094759.346000", "094759.348000", "094759.351000", "094759.354000", "094759.357000", "094759.360000", "094759.363000", "094759.365000", "094839.291000", "094839.294000", "094839.297000", "094839.299000", "094839.302000", "094839.305000", "094839.308000", "094839.311000", "094839.314000", "094839.316000", "094839.319000", "094839.322000", "094839.325000", "094839.328000", "094839.330000", "094839.333000", "094839.336000", "094839.339000", "094839.342000", "094839.344000", "094839.347000", "094839.350000", "094839.353000", "094839.356000", "094839.359000", "094839.361000", "094839.364000", "094919.291000", "094919.294000", "094919.297000", "094919.299000", "094919.302000", "094919.305000", "094919.308000", "094919.311000", "094919.314000", "094919.316000", "094919.319000", "094919.322000", "094919.325000", "094919.328000", "094919.331000", "094919.334000", "094919.337000", "094919.340000", "094919.343000", "094919.346000", "094919.349000", "094919.352000", "094919.355000", "094919.358000", "094919.361000", "094919.364000", "094959.292000", "094959.295000", "094959.298000", "094959.301000", "094959.303000", "094959.306000", "094959.309000", "094959.312000", "094959.315000", "094959.317000", "094959.320000", "094959.323000", "094959.326000", "094959.329000", "094959.331000", "094959.334000", "094959.337000", "094959.340000", "094959.343000", "094959.346000", "094959.348000", "094959.351000", "094959.354000", "094959.363000", "094959.366000", "094959.368000", "094959.371000", "095039.292000", "095039.295000", "095039.298000", "095039.301000", "095039.304000", "095039.307000", "095039.310000", "095039.313000", "095039.316000", "095039.319000", "095039.321000", "095039.324000", "095039.327000", "095039.330000", "095039.333000", "095039.336000", "095039.339000", "095039.341000", "095039.344000", "095039.347000", "095039.350000", "095039.353000", "095039.356000", "095039.359000", "095039.361000", "095039.364000", "095039.367000", "095119.291000", "095119.294000", "095119.297000", "095119.300000", "095119.302000", "095119.305000", "095119.308000", "095119.311000", "095119.314000", "095119.316000", "095119.319000", "095119.322000", "095119.325000", "095119.328000", "095119.331000", "095119.333000", "095119.336000", "095119.339000", "095119.342000", "095119.345000", "095119.348000", "095119.350000", "095119.353000", "095119.356000", "095119.359000", "095119.361000", "095119.364000", "095159.291000", "095159.294000", "095159.297000", "095159.300000", "095159.303000", "095159.306000", "095159.319000", "095159.322000", "095159.324000", "095159.327000", "095159.330000", "095159.333000", "095159.336000", "095159.339000", "095159.341000", "095159.344000", "095159.347000", "095159.350000", "095159.353000", "095159.356000", "095159.359000", "095159.362000", "095159.364000", "095159.367000", "095159.370000", "095159.373000", "095159.376000", "095239.292000", "095239.295000", "095239.298000", "095239.300000", "095239.303000", "095239.306000", "095239.309000", "095239.312000", "095239.315000", "095239.318000", "095239.321000", "095239.323000", "095239.326000", "095239.329000", "095239.332000", "095239.335000", "095239.337000", "095239.340000", "095239.343000", "095239.346000", "095239.349000", "095239.351000", "095239.354000", "095239.357000", "095239.360000", "095239.363000", "095239.366000", "095319.291000", "095319.294000", "095319.297000", "095319.299000", "095319.302000", "095319.305000", "095319.308000", "095319.311000", "095319.314000", "095319.316000", "095319.319000", "095319.322000", "095319.325000", "095319.328000", "095319.331000", "095319.333000", "095319.336000", "095319.339000", "095319.342000", "095319.345000", "095319.347000", "095319.350000", "095319.353000", "095319.356000", "095319.359000", "095319.362000", "095319.364000", "095350.568000", "095350.571000", "095350.574000", "095350.577000", "095350.580000", "095350.583000", "095350.586000", "095350.588000", "095350.595000", "095350.598000", "095350.601000", "095350.604000", "095350.607000", "095350.610000", "095350.613000", "095350.616000", "095350.619000", "095350.622000", "095350.625000", "095350.628000", "095350.631000"],
