{
  "AcquisitionMatrixPE": 104,
  "AcquisitionNumber": 1,
  "AcquisitionTime": "15:32:58.597500",
  "BandwidthPerPixelPhaseEncode": 17.17,
  "BaseResolution": 104,
  "BodyPartExamined": "BRAIN",
  "CoilString": "HC1-7;NC1_2",
  "ConsistencyInfo": "N4_VE11C_LATEST_20160120",
  "ConversionSoftware": "dcm2niix",
  "ConversionSoftwareVersion": "v1.0.20190902",
  "DerivedVendorReportedEchoSpacing": 0.000560011,
  "DeviceSerialNumber": "167006",
  "DwellTime": 2.1e-06,
  "EchoTime": 0.037,
  "EchoTrainLength": 104,
  "EffectiveEchoSpacing": 0.000560011,
  "FlipAngle": 52,
  "ImageComments": "Unaliased_MB4_PE3_LB",
  "ImageOrientationPatientDICOM": [0.999355, -0.0305504, -0.0188565, 0.021806, 0.933778, -0.357189],
  "ImageType": [
    "ORIGINAL",
    "PRIMARY",
    "M",
    "MB",
    "ND",
    "MOSAIC"
],
  "ImagingFrequency": 123.259,
  "InPlanePhaseEncodingDirectionDICOM": "COL",
  "InstitutionAddress": "Chemin_Queen-Mary_4565_Montreal_District_CA_H3W_1W5",
  "InstitutionName": "IUGM",
  "InstitutionalDepartmentName": "Department",
  "MRAcquisitionType": "2D",
  "MagneticFieldStrength": 3,
  "Manufacturer": "Siemens",
  "ManufacturersModelName": "Prisma_fit",
  "Modality": "MR",
  "MultibandAccelerationFactor": 4,
  "PartialFourier": 1,
  "PatientPosition": "HFS",
  "PercentPhaseFOV": 100,
  "PhaseEncodingDirection": "j",
  "PhaseEncodingSteps": 104,
  "PhaseResolution": 1,
  "PixelBandwidth": 2290,
  "ProcedureStepDescription": "video_friends",
  "ProtocolName": "func_task-friends-s03e12b",
  "PulseSequenceDetails": "%CustomerSeq%_cmrr_mbep2d_bold",
  "ReceiveCoilActiveElements": "HC1-7;NC1,2",
  "ReceiveCoilName": "HeadNeck_64",
  "ReconMatrixPE": 104,
  "RepetitionTime": 1.49,
  "SAR": 0.0396856,
  "ScanOptions": "FS",
  "ScanningSequence": "EP",
  "SequenceName": "epfid2d1_104",
  "SequenceVariant": "SK_SS",
  "SeriesDescription": "func_task-friends-s03e12b",
  "SeriesNumber": 11,
  "ShimSetting": [609, -7283, -8814, 455, 0, -416, 59, 47],
  "SliceThickness": 2,
  "SliceTiming": [0, 0.7825, 0.0975, 0.88, 0.195, 0.98, 0.2925, 1.0775, 0.39, 1.175, 0.49, 1.2725, 0.5875, 1.37, 0.685, 0, 0.7825, 0.0975, 0.88, 0.195, 0.98, 0.2925, 1.0775, 0.39, 1.175, 0.49, 1.2725, 0.5875, 1.37, 0.685, 0, 0.7825, 0.0975, 0.88, 0.195, 0.98, 0.2925, 1.0775, 0.39, 1.175, 0.49, 1.2725, 0.5875, 1.37, 0.685, 0, 0.7825, 0.0975, 0.88, 0.195, 0.98, 0.2925, 1.0775, 0.39, 1.175, 0.49, 1.2725, 0.5875, 1.37, 0.685],
  "SoftwareVersions": "syngo_MR_E11",
  "SpacingBetweenSlices": 2,
  "StationName": "MRC35049",
  "TaskName": "s03e12b",
  "TotalReadoutTime": 0.0576811,
  "TxRefAmp": 243.212,
  "WipMemBlock": "62bdb9ba-ff36-4e43-a482-ad3fbfe62033||Sequence: R016 ve11c/master r/e634e98; Dec 19 2017 11:00:25 by eja",
  "dcmmeta_affine": [
    [-1.9987106323242188, 0.0436120331287384, -0.057040054351091385, 98.90607452392578],
    [0.0611007995903492, 1.8675553798675537, -0.7130942940711975, -73.64800262451172],
    [-0.037712983787059784, 0.7143771648406982, 1.8676838874816895, -58.189292907714844],
    [0.0, 0.0, 0.0, 1.0]
],
  "dcmmeta_reorient_transform": [
    [0.0, -1.0, 0.0, 103.0],
    [1.0, 0.0, 0.0, 0.0],
    [0.0, 0.0, 1.0, 0.0],
    [0.0, 0.0, 0.0, 1.0]
],
  "dcmmeta_shape": [104, 104, 60, 464],
  "dcmmeta_slice_dim": 2,
  "dcmmeta_version": 0.6,
  "global": {
    "const": {
      "AcquisitionMatrix": [104, 0, 0, 104],
      "AngioFlag": "N",
      "BitsAllocated": 16,
      "BitsStored": 16,
      "BodyPartExamined": "BRAIN",
      "Columns": 832,
      "EchoNumbers": 1,
      "EchoTime": 37.0,
      "EchoTrainLength": 104,
      "FlipAngle": 52.0,
      "HighBit": 15,
      "ImageOrientationPatient": [0.99935534507607, -0.0305504004969, -0.0188564921807, 0.02180601647753, 0.93377770855389, -0.3571885897579],
      "ImagePositionPatient": [-846.80358805582, -776.25968886113, 289.1523756045],
      "ImageType": [
        "ORIGINAL",
        "PRIMARY",
        "M",
        "MB",
        "ND",
        "MOSAIC"
],
      "ImagedNucleus": "1H",
      "ImagingFrequency": 123.258949,
      "InPlanePhaseEncodingDirection": "COL",
      "MRAcquisitionType": "2D",
      "MagneticFieldStrength": 3.0,
      "Manufacturer": "SIEMENS",
      "ManufacturerModelName": "Prisma_fit",
      "Modality": "MR",
      "NumberOfAverages": 1.0,
      "NumberOfPhaseEncodingSteps": 104,
      "PercentPhaseFieldOfView": 100.0,
      "PercentSampling": 100.0,
      "PerformedProcedureStepStartTime": "145930.634000",
      "PhotometricInterpretation": "MONOCHROME2",
      "PixelBandwidth": 2290.0,
      "PixelRepresentation": 0,
      "PixelSpacing": [2.0, 2.0],
      "ProtocolName": "func_task-friends-s03e12b",
      "RepetitionTime": 1490.0,
      "Rows": 832,
      "SAR": 0.03968556913492,
      "SamplesPerPixel": 1,
      "ScanOptions": "FS",
      "ScanningSequence": "EP",
      "SequenceName": "epfid2d1_104",
      "SequenceVariant": [
        "SK",
        "SS"
],
      "SeriesDescription": "func_task-friends-s03e12b",
      "SeriesNumber": 11,
      "SeriesTime": "153418.373000",
      "SliceLocation": -30.901422298618,
      "SliceThickness": 2.0,
      "SmallestImagePixelValue": 0,
      "SoftwareVersions": "syngo MR E11",
      "SpacingBetweenSlices": 2.000000060526,
      "SpecificCharacterSet": "ISO_IR 100",
      "StudyID": "1",
      "StudyTime": "145930.588000",
      "TransmitCoilName": "Body",
      "VariableFlipAngleFlag": "N",
      "WindowCenterWidthExplanation": "Algo1",
      "dBdt": 0.0},
    "slices": {}
  },
  "time": {
    "samples": {
      "AcquisitionNumber": [1, 2, 3, 4, 5, 6, 7, 8, 9, 10, 11, 12, 13, 14, 15, 16, 17, 18, 19, 20, 21, 22, 23, 24, 25, 26, 27, 28, 29, 30, 31, 32, 33, 34, 35, 36, 37, 38, 39, 40, 41, 42, 43, 44, 45, 46, 47, 48, 49, 50, 51, 52, 53, 54, 55, 56, 57, 58, 59, 60, 61, 62, 63, 64, 65, 66, 67, 68, 69, 70, 71, 72, 73, 74, 75, 76, 77, 78, 79, 80, 81, 82, 83, 84, 85, 86, 87, 88, 89, 90, 91, 92, 93, 94, 95, 96, 97, 98, 99, 100, 101, 102, 103, 104, 105, 106, 107, 108, 109, 110, 111, 112, 113, 114, 115, 116, 117, 118, 119, 120, 121, 122, 123, 124, 125, 126, 127, 128, 129, 130, 131, 132, 133, 134, 135, 136, 137, 138, 139, 140, 141, 142, 143, 144, 145, 146, 147, 148, 149, 150, 151, 152, 153, 154, 155, 156, 157, 158, 159, 160, 161, 162, 163, 164, 165, 166, 167, 168, 169, 170, 171, 172, 173, 174, 175, 176, 177, 178, 179, 180, 181, 182, 183, 184, 185, 186, 187, 188, 189, 190, 191, 192, 193, 194, 195, 196, 197, 198, 199, 200, 201, 202, 203, 204, 205, 206, 207, 208, 209, 210, 211, 212, 213, 214, 215, 216, 217, 218, 219, 220, 221, 222, 223, 224, 225, 226, 227, 228, 229, 230, 231, 232, 233, 234, 235, 236, 237, 238, 239, 240, 241, 242, 243, 244, 245, 246, 247, 248, 249, 250, 251, 252, 253, 254, 255, 256, 257, 258, 259, 260, 261, 262, 263, 264, 265, 266, 267, 268, 269, 270, 271, 272, 273, 274, 275, 276, 277, 278, 279, 280, 281, 282, 283, 284, 285, 286, 287, 288, 289, 290, 291, 292, 293, 294, 295, 296, 297, 298, 299, 300, 301, 302, 303, 304, 305, 306, 307, 308, 309, 310, 311, 312, 313, 314, 315, 316, 317, 318, 319, 320, 321, 322, 323, 324, 325, 326, 327, 328, 329, 330, 331, 332, 333, 334, 335, 336, 337, 338, 339, 340, 341, 342, 343, 344, 345, 346, 347, 348, 349, 350, 351, 352, 353, 354, 355, 356, 357, 358, 359, 360, 361, 362, 363, 364, 365, 366, 367, 368, 369, 370, 371, 372, 373, 374, 375, 376, 377, 378, 379, 380, 381, 382, 383, 384, 385, 386, 387, 388, 389, 390, 391, 392, 393, 394, 395, 396, 397, 398, 399, 400, 401, 402, 403, 404, 405, 406, 407, 408, 409, 410, 411, 412, 413, 414, 415, 416, 417, 418, 419, 420, 421, 422, 423, 424, 425, 426, 427, 428, 429, 430, 431, 432, 433, 434, 435, 436, 437, 438, 439, 440, 441, 442, 443, 444, 445, 446, 447, 448, 449, 450, 451, 452, 453, 454, 455, 456, 457, 458, 459, 460, 461, 462, 463, 464],
      "AcquisitionTime": ["153258.597500", "153300.087500", "153301.577500", "153303.067500", "153304.557500", "153306.047500", "153307.537500", "153309.027500", "153310.517500", "153312.007500", "153313.497500", "153314.987500", "153316.477500", "153317.967500", "153319.457500", "153320.947500", "153322.437500", "153323.927500", "153325.417500", "153326.907500", "153328.397500", "153329.887500", "153331.377500", "153332.867500", "153334.357500", "153335.847500", "153337.337500", "153338.827500", "153340.317500", "153341.807500", "153343.297500", "153344.787500", "153346.277500", "153347.767500", "153349.257500", "153350.747500", "153352.237500", "153353.727500", "153355.217500", "153356.707500", "153358.197500", "153359.687500", "153401.177500", "153402.667500", "153404.157500", "153405.647500", "153407.137500", "153408.627500", "153410.117500", "153411.607500", "153413.097500", "153414.587500", "153416.077500", "153417.567500", "153419.057500", "153420.547500", "153422.037500", "153423.527500", "153425.017500", "153426.507500", "153427.997500", "153429.487500", "153430.977500", "153432.467500", "153433.957500", "153435.447500", "153436.937500", "153438.427500", "153439.917500", "153441.407500", "153442.897500", "153444.387500", "153445.877500", "153447.367500", "153448.857500", "153450.347500", "153451.837500", "153453.327500", "153454.817500", "153456.307500", "153457.797500", "153459.287500", "153500.777500", "153502.267500", "153503.757500", "153505.247500", "153506.737500", "153508.227500", "153509.717500", "153511.207500", "153512.697500", "153514.187500", "153515.677500", "153517.167500", "153518.657500", "153520.147500", "153521.637500", "153523.127500", "153524.617500", "153526.107500", "153527.597500", "153529.087500", "153530.577500", "153532.067500", "153533.557500", "153535.047500", "153536.537500", "153538.027500", "153539.517500", "153541.007500", "153542.497500", "153543.987500", "153545.477500", "153546.967500", "153548.457500", "153549.947500", "153551.437500", "153552.927500", "153554.417500", "153555.907500", "153557.397500", "153558.887500", "153600.377500", "153601.867500", "153603.357500", "153604.847500", "153606.337500", "153607.827500", "153609.317500", "153610.807500", "153612.297500", "153613.787500", "153615.277500", "153616.767500", "153618.257500", "153619.747500", "153621.237500", "153622.727500", "153624.217500", "153625.707500", "153627.197500", "153628.687500", "153630.177500", "153631.667500", "153633.157500", "153634.647500", "153636.137500", "153637.627500", "153639.117500", "153640.607500", "153642.097500", "153643.587500", "153645.077500", "153646.567500", "153648.057500", "153649.547500", "153651.037500", "153652.527500", "153654.017500", "153655.507500", "153656.997500", "153658.487500", "153659.977500", "153701.467500", "153702.957500", "153704.447500", "153705.937500", "153707.427500", "153708.917500", "153710.407500", "153711.897500", "153713.387500", "153714.877500", "153716.367500", "153717.857500", "153719.347500", "153720.837500", "153722.327500", "153723.817500", "153725.307500", "153726.797500", "153728.287500", "153729.777500", "153731.267500", "153732.757500", "153734.247500", "153735.737500", "153737.227500", "153738.717500", "153740.207500", "153741.697500", "153743.187500", "153744.677500", "153746.167500", "153747.657500", "153749.147500", "153750.637500", "153752.127500", "153753.617500", "153755.107500", "153756.597500", "153758.087500", "153759.577500", "153801.067500", "153802.557500", "153804.047500", "153805.537500", "153807.027500", "153808.517500", "153810.007500", "153811.497500", "153812.987500", "153814.477500", "153815.967500", "153817.457500", "153818.947500", "153820.437500", "153821.927500", "153823.417500", "153824.907500", "153826.397500", "153827.887500", "153829.377500", "153830.867500", "153832.357500", "153833.847500", "153835.337500", "153836.827500", "153838.317500", "153839.807500", "153841.297500", "153842.787500", "153844.277500", "153845.767500", "153847.257500", "153848.747500", "153850.237500", "153851.727500", "153853.217500", "153854.707500", "153856.197500", "153857.687500", "153859.177500", "153900.667500", "153902.157500", "153903.647500", "153905.137500", "153906.627500", "153908.117500", "153909.607500", "153911.097500", "153912.587500", "153914.077500", "153915.567500", "153917.057500", "153918.547500", "153920.037500", "153921.527500", "153923.017500", "153924.507500", "153925.997500", "153927.487500", "153928.977500", "153930.467500", "153931.957500", "153933.447500", "153934.937500", "153936.427500", "153937.917500", "153939.407500", "153940.897500", "153942.387500", "153943.877500", "153945.367500", "153946.857500", "153948.347500", "153949.837500", "153951.327500", "153952.817500", "153954.307500", "153955.797500", "153957.287500", "153958.777500", "154000.267500", "154001.757500", "154003.247500", "154004.737500", "154006.227500", "154007.717500", "154009.207500", "154010.697500", "154012.187500", "154013.677500", "154015.167500", "154016.657500", "154018.147500", "154019.637500", "154021.127500", "154022.617500", "154024.107500", "154025.597500", "154027.087500", "154028.577500", "154030.067500", "154031.557500", "154033.047500", "154034.537500", "154036.027500", "154037.517500", "154039.007500", "154040.497500", "154041.987500", "154043.477500", "154044.967500", "154046.457500", "154047.947500", "154049.437500", "154050.927500", "154052.417500", "154053.907500", "154055.397500", "154056.887500", "154058.377500", "154059.867500", "154101.357500", "154102.847500", "154104.337500", "154105.827500", "154107.317500", "154108.807500", "154110.297500", "154111.787500", "154113.277500", "154114.767500", "154116.257500", "154117.747500", "154119.237500", "154120.727500", "154122.217500", "154123.707500", "154125.197500", "154126.687500", "154128.177500", "154129.667500", "154131.157500", "154132.647500", "154134.137500", "154135.627500", "154137.117500", "154138.607500", "154140.097500", "154141.587500", "154143.077500", "154144.567500", "154146.057500", "154147.547500", "154149.037500", "154150.527500", "154152.017500", "154153.507500", "154154.997500", "154156.487500", "154157.977500", "154159.467500", "154200.957500", "154202.447500", "154203.937500", "154205.427500", "154206.917500", "154208.407500", "154209.897500", "154211.387500", "154212.877500", "154214.367500", "154215.857500", "154217.347500", "154218.837500", "154220.327500", "154221.817500", "154223.307500", "154224.797500", "154226.287500", "154227.777500", "154229.267500", "154230.757500", "154232.247500", "154233.737500", "154235.227500", "154236.717500", "154238.207500", "154239.697500", "154241.187500", "154242.677500", "154244.167500", "154245.657500", "154247.147500", "154248.637500", "154250.127500", "154251.617500", "154253.107500", "154254.597500", "154256.087500", "154257.577500", "154259.067500", "154300.557500", "154302.047500", "154303.537500", "154305.027500", "154306.517500", "154308.007500", "154309.497500", "154310.987500", "154312.477500", "154313.967500", "154315.457500", "154316.947500", "154318.437500", "154319.927500", "154321.417500", "154322.907500", "154324.397500", "154325.887500", "154327.377500", "154328.867500", "154330.357500", "154331.847500", "154333.337500", "154334.827500", "154336.317500", "154337.807500", "154339.297500", "154340.787500", "154342.277500", "154343.767500", "154345.257500", "154346.747500", "154348.237500", "154349.727500", "154351.217500", "154352.707500", "154354.197500", "154355.687500", "154357.177500", "154358.667500", "154400.157500", "154401.647500", "154403.137500", "154404.627500", "154406.117500", "154407.607500", "154409.097500", "154410.587500", "154412.077500", "154413.567500", "154415.057500", "154416.547500", "154418.037500", "154419.527500", "154421.017500", "154422.507500", "154423.997500", "154425.487500", "154426.977500", "154428.467500"],
      "ContentTime": ["153418.377000", "153418.381000", "153418.384000", "153418.386000", "153418.389000", "153418.392000", "153418.395000", "153418.398000", "153418.401000", "153418.404000", "153418.407000", "153418.409000", "153418.412000", "153418.415000", "153418.419000", "153418.431000", "153418.439000", "153418.442000", "153418.445000", "153418.447000", "153418.450000", "153418.453000", "153418.456000", "153418.459000", "153418.462000", "153438.346000", "153438.349000", "153438.352000", "153438.354000", "153438.358000", "153438.360000", "153438.363000", "153438.366000", "153438.369000", "153438.372000", "153438.375000", "153438.377000", "153438.380000", "153438.384000", "153438.387000", "153438.390000", "153438.393000", "153438.396000", "153438.398000", "153438.401000", "153458.346000", "153458.349000", "153458.352000", "153458.354000", "153458.357000", "153458.360000", "153458.363000", "153458.366000", "153458.369000", "153458.372000", "153458.375000", "153458.377000", "153458.380000", "153458.383000", "153458.386000", "153458.389000", "153458.392000", "153458.395000", "153458.397000", "153458.400000", "153518.346000", "153518.349000", "153518.352000", "153518.354000", "153518.358000", "153518.360000", "153518.363000", "153518.366000", "153518.369000", "153518.372000", "153518.375000", "153518.377000", "153518.380000", "153518.383000", "153518.386000", "153518.389000", "153518.392000", "153518.395000", "153518.398000", "153518.400000", "153538.346000", "153538.349000", "153538.352000", "153538.355000", "153538.358000", "153538.360000", "153538.363000", "153538.366000", "153538.369000", "153538.372000", "153538.375000", "153538.378000", "153538.381000", "153538.383000", "153538.386000", "153538.389000", "153538.392000", "153538.395000", "153538.398000", "153538.401000", "153618.346000", "153618.349000", "153618.352000", "153618.355000", "153618.357000", "153618.360000", "153618.363000", "153618.366000", "153618.369000", "153618.371000", "153618.374000", "153618.377000", "153618.380000", "153618.383000", "153618.399000", "153618.402000", "153618.405000", "153618.408000", "153618.410000", "153618.413000", "153618.416000", "153618.419000", "153618.422000", "153618.424000", "153618.427000", "153618.430000", "153618.433000", "153618.436000", "153658.346000", "153658.349000", "153658.352000", "153658.354000", "153658.357000", "153658.360000", "153658.363000", "153658.366000", "153658.368000", "153658.371000", "153658.374000", "153658.377000", "153658.380000", "153658.382000", "153658.385000", "153658.388000", "153658.391000", "153658.394000", "153658.396000", "153658.399000", "153658.402000", "153658.405000", "153658.407000", "153658.410000", "153658.413000", "153658.416000", "153658.419000", "153738.346000", "153738.349000", "153738.352000", "153738.354000", "153738.357000", "153738.360000", "153738.363000", "153738.366000", "153738.369000", "153738.371000", "153738.374000", "153738.377000", "153738.380000", "153738.383000", "153738.386000", "153738.389000", "153738.391000", "153738.394000", "153738.397000", "153738.400000", "153738.403000", "153738.405000", "153738.408000", "153738.411000", "153738.414000", "153738.417000", "153738.419000", "153818.383000", "153818.386000", "153818.389000", "153818.392000", "153818.394000", "153818.397000", "153818.400000", "153818.403000", "153818.406000", "153818.409000", "153818.411000", "153818.414000", "153818.417000", "153818.420000", "153818.423000", "153818.426000", "153818.429000", "153818.432000", "153818.434000", "153818.437000", "153818.440000", "153818.443000", "153818.446000", "153818.449000", "153818.452000", "153818.454000", "153858.346000", "153858.349000", "153858.352000", "153858.354000", "153858.357000", "153858.360000", "153858.363000", "153858.366000", "153858.369000", "153858.372000", "153858.374000", "153858.377000", "153858.380000", "153858.383000", "153858.386000", "153858.389000", "153858.392000", "153858.394000", "153858.397000", "153858.400000", "153858.403000", "153858.406000", "153858.409000", "153858.411000", "153858.414000", "153858.417000", "153858.420000", "153938.346000", "153938.349000", "153938.352000", "153938.355000", "153938.357000", "153938.360000", "153938.363000", "153938.366000", "153938.369000", "153938.372000", "153938.375000", "153938.377000", "153938.380000", "153938.383000", "153938.386000", "153938.389000", "153938.392000", "153938.394000", "153938.397000", "153938.400000", "153938.403000", "153938.406000", "153938.409000", "153938.411000", "153938.414000", "153938.417000", "153938.420000", "154018.346000", "154018.349000", "154018.352000", "154018.354000", "154018.357000", "154018.360000", "154018.363000", "154018.366000", "154018.369000", "154018.371000", "154018.374000", "154018.377000", "154018.380000", "154018.383000", "154018.386000", "154018.389000", "154018.391000", "154018.394000", "154018.397000", "154018.400000", "154018.403000", "154018.406000", "154018.408000", "154018.411000", "154018.414000", "154018.417000", "154018.420000", "154058.346000", "154058.349000", "154058.352000", "154058.355000", "154058.358000", "154058.360000", "154058.363000", "154058.366000", "154058.369000", "154058.372000", "154058.374000", "154058.377000", "154058.380000", "154058.383000", "154058.386000", "154058.389000", "154058.391000", "154058.394000", "154058.397000", "154058.400000", "154058.403000", "154058.406000", "154058.409000", "154058.412000", "154058.415000", "154058.417000", "154058.420000", "154138.346000", "154138.349000", "154138.352000", "154138.356000", "154138.359000", "154138.362000", "154138.364000", "154138.367000", "154138.370000", "154138.373000", "154138.376000", "154138.379000", "154138.381000", "154138.384000", "154138.387000", "154138.390000", "154138.393000", "154138.396000", "154138.399000", "154138.402000", "154138.405000", "154138.408000", "154138.411000", "154138.413000", "154138.416000", "154138.419000", "154138.422000", "154218.346000", "154218.349000", "154218.352000", "154218.355000", "154218.358000", "154218.361000", "154218.363000", "154218.366000", "154218.369000", "154218.372000", "154218.375000", "154218.377000", "154218.380000", "154218.383000", "154218.386000", "154218.389000", "154218.392000", "154218.394000", "154218.397000", "154218.400000", "154218.403000", "154218.406000", "154218.408000", "154218.411000", "154218.414000", "154218.417000", "154218.420000", "154258.346000", "154258.349000", "154258.352000", "154258.355000", "154258.357000", "154258.360000", "154258.363000", "154258.366000", "154258.369000", "154258.372000", "154258.374000", "154258.377000", "154258.380000", "154258.383000", "154258.386000", "154258.389000", "154258.391000", "154258.394000", "154258.397000", "154258.400000", "154258.403000", "154258.406000", "154258.409000", "154258.411000", "154258.414000", "154258.417000", "154338.346000", "154338.350000", "154338.353000", "154338.356000", "154338.360000", "154338.363000", "154338.366000", "154338.369000", "154338.371000", "154338.374000", "154338.377000", "154338.380000", "154338.383000", "154338.386000", "154338.397000", "154338.400000", "154338.403000", "154338.405000", "154338.408000", "154338.411000", "154338.414000", "154338.417000", "154338.420000", "154338.422000", "154338.425000", "154338.428000", "154338.431000", "154418.346000", "154418.349000", "154418.352000", "154418.355000", "154418.358000", "154418.360000", "154418.363000", "154418.366000", "154418.369000", "154418.372000", "154418.375000", "154418.377000", "154418.380000", "154418.383000", "154418.386000", "154418.389000", "154418.392000", "154418.394000", "154418.397000", "154418.400000", "154418.403000", "154418.406000", "154418.408000", "154418.411000", "154418.414000", "154418.417000", "154418.420000", "154430.990000", "154430.993000", "154430.996000", "154431.000000", "154431.003000", "154431.006000", "154431.009000", "154431.012000", "154431.015000"],
