{
  "AcquisitionMatrixPE": 104,
  "AcquisitionNumber": 1,
  "AcquisitionTime": "15:44:54.255000",
  "BandwidthPerPixelPhaseEncode": 17.17,
  "BaseResolution": 104,
  "BodyPartExamined": "BRAIN",
  "CoilString": "HC1-7;NC1_2",
  "ConsistencyInfo": "N4_VE11C_LATEST_20160120",
  "ConversionSoftware": "dcm2niix",
  "ConversionSoftwareVersion": "v1.0.20190902",
  "DerivedVendorReportedEchoSpacing": 0.000560011,
  "DeviceSerialNumber": "167006",
  "DwellTime": 2.1e-06,
  "EchoTime": 0.037,
  "EchoTrainLength": 104,
  "EffectiveEchoSpacing": 0.000560011,
  "FlipAngle": 52,
  "ImageComments": "Unaliased_MB4_PE3_LB",
  "ImageOrientationPatientDICOM": [0.999355, -0.0305504, -0.0188565, 0.021806, 0.933778, -0.357189],
  "ImageType": [
    "ORIGINAL",
    "PRIMARY",
    "M",
    "MB",
    "ND",
    "MOSAIC"
],
  "ImagingFrequency": 123.259,
  "InPlanePhaseEncodingDirectionDICOM": "COL",
  "InstitutionAddress": "Chemin_Queen-Mary_4565_Montreal_District_CA_H3W_1W5",
  "InstitutionName": "IUGM",
  "InstitutionalDepartmentName": "Department",
  "MRAcquisitionType": "2D",
  "MagneticFieldStrength": 3,
  "Manufacturer": "Siemens",
  "ManufacturersModelName": "Prisma_fit",
  "Modality": "MR",
  "MultibandAccelerationFactor": 4,
  "PartialFourier": 1,
  "PatientPosition": "HFS",
  "PercentPhaseFOV": 100,
  "PhaseEncodingDirection": "j",
  "PhaseEncodingSteps": 104,
  "PhaseResolution": 1,
  "PixelBandwidth": 2290,
  "ProcedureStepDescription": "video_friends",
  "ProtocolName": "func_task-friends-s03e13a",
  "PulseSequenceDetails": "%CustomerSeq%_cmrr_mbep2d_bold",
  "ReceiveCoilActiveElements": "HC1-7;NC1,2",
  "ReceiveCoilName": "HeadNeck_64",
  "ReconMatrixPE": 104,
  "RepetitionTime": 1.49,
  "SAR": 0.0396891,
  "ScanOptions": "FS",
  "ScanningSequence": "EP",
  "SequenceName": "epfid2d1_104",
  "SequenceVariant": "SK_SS",
  "SeriesDescription": "func_task-friends-s03e13a",
  "SeriesNumber": 13,
  "ShimSetting": [609, -7283, -8814, 455, 0, -416, 59, 47],
  "SliceThickness": 2,
  "SliceTiming": [0, 0.7825, 0.0975, 0.8825, 0.195, 0.98, 0.2925, 1.0775, 0.3925, 1.175, 0.49, 1.2725, 0.5875, 1.3725, 0.685, 0, 0.7825, 0.0975, 0.8825, 0.195, 0.98, 0.2925, 1.0775, 0.3925, 1.175, 0.49, 1.2725, 0.5875, 1.3725, 0.685, 0, 0.7825, 0.0975, 0.8825, 0.195, 0.98, 0.2925, 1.0775, 0.3925, 1.175, 0.49, 1.2725, 0.5875, 1.3725, 0.685, 0, 0.7825, 0.0975, 0.8825, 0.195, 0.98, 0.2925, 1.0775, 0.3925, 1.175, 0.49, 1.2725, 0.5875, 1.3725, 0.685],
  "SoftwareVersions": "syngo_MR_E11",
  "SpacingBetweenSlices": 2,
  "StationName": "MRC35049",
  "TaskName": "s03e13a",
  "TotalReadoutTime": 0.0576811,
  "TxRefAmp": 243.212,
  "WipMemBlock": "5809848c-4272-4a55-b324-52afcd678ce6||Sequence: R016 ve11c/master r/e634e98; Dec 19 2017 11:00:25 by eja",
  "dcmmeta_affine": [
    [-1.9987106323242188, 0.0436120331287384, -0.057040054351091385, 98.90607452392578],
    [0.0611007995903492, 1.8675553798675537, -0.7130942940711975, -73.64800262451172],
    [-0.037712983787059784, 0.7143771648406982, 1.8676838874816895, -58.189292907714844],
    [0.0, 0.0, 0.0, 1.0]
],
  "dcmmeta_reorient_transform": [
    [0.0, -1.0, 0.0, 103.0],
    [1.0, 0.0, 0.0, 0.0],
    [0.0, 0.0, 1.0, 0.0],
    [0.0, 0.0, 0.0, 1.0]
],
  "dcmmeta_shape": [104, 104, 60, 474],
  "dcmmeta_slice_dim": 2,
  "dcmmeta_version": 0.6,
  "global": {
    "const": {
      "AcquisitionMatrix": [104, 0, 0, 104],
      "AngioFlag": "N",
      "BitsAllocated": 16,
      "BitsStored": 16,
      "BodyPartExamined": "BRAIN",
      "Columns": 832,
      "EchoNumbers": 1,
      "EchoTime": 37.0,
      "EchoTrainLength": 104,
      "FlipAngle": 52.0,
      "HighBit": 15,
      "ImageOrientationPatient": [0.99935534507607, -0.0305504004969, -0.0188564921807, 0.02180601647753, 0.93377770855389, -0.3571885897579],
      "ImagePositionPatient": [-846.80358805582, -776.25968886113, 289.1523756045],
      "ImageType": [
        "ORIGINAL",
        "PRIMARY",
        "M",
        "MB",
        "ND",
        "MOSAIC"
],
      "ImagedNucleus": "1H",
      "ImagingFrequency": 123.258955,
      "InPlanePhaseEncodingDirection": "COL",
      "MRAcquisitionType": "2D",
      "MagneticFieldStrength": 3.0,
      "Manufacturer": "SIEMENS",
      "ManufacturerModelName": "Prisma_fit",
      "Modality": "MR",
      "NumberOfAverages": 1.0,
      "NumberOfPhaseEncodingSteps": 104,
      "PercentPhaseFieldOfView": 100.0,
      "PercentSampling": 100.0,
      "PerformedProcedureStepStartTime": "145930.634000",
      "PhotometricInterpretation": "MONOCHROME2",
      "PixelBandwidth": 2290.0,
      "PixelRepresentation": 0,
      "PixelSpacing": [2.0, 2.0],
      "ProtocolName": "func_task-friends-s03e13a",
      "RepetitionTime": 1490.0,
      "Rows": 832,
      "SAR": 0.03968913510279,
      "SamplesPerPixel": 1,
      "ScanOptions": "FS",
      "ScanningSequence": "EP",
      "SequenceName": "epfid2d1_104",
      "SequenceVariant": [
        "SK",
        "SS"
],
      "SeriesDescription": "func_task-friends-s03e13a",
      "SeriesNumber": 13,
      "SeriesTime": "154605.160000",
      "SliceLocation": -30.901422298618,
      "SliceThickness": 2.0,
      "SmallestImagePixelValue": 0,
      "SoftwareVersions": "syngo MR E11",
      "SpacingBetweenSlices": 2.000000060526,
      "SpecificCharacterSet": "ISO_IR 100",
      "StudyID": "1",
      "StudyTime": "145930.588000",
      "TransmitCoilName": "Body",
      "VariableFlipAngleFlag": "N",
      "WindowCenterWidthExplanation": "Algo1",
      "dBdt": 0.0},
    "slices": {}
  },
  "time": {
    "samples": {
      "AcquisitionNumber": [1, 2, 3, 4, 5, 6, 7, 8, 9, 10, 11, 12, 13, 14, 15, 16, 17, 18, 19, 20, 21, 22, 23, 24, 25, 26, 27, 28, 29, 30, 31, 32, 33, 34, 35, 36, 37, 38, 39, 40, 41, 42, 43, 44, 45, 46, 47, 48, 49, 50, 51, 52, 53, 54, 55, 56, 57, 58, 59, 60, 61, 62, 63, 64, 65, 66, 67, 68, 69, 70, 71, 72, 73, 74, 75, 76, 77, 78, 79, 80, 81, 82, 83, 84, 85, 86, 87, 88, 89, 90, 91, 92, 93, 94, 95, 96, 97, 98, 99, 100, 101, 102, 103, 104, 105, 106, 107, 108, 109, 110, 111, 112, 113, 114, 115, 116, 117, 118, 119, 120, 121, 122, 123, 124, 125, 126, 127, 128, 129, 130, 131, 132, 133, 134, 135, 136, 137, 138, 139, 140, 141, 142, 143, 144, 145, 146, 147, 148, 149, 150, 151, 152, 153, 154, 155, 156, 157, 158, 159, 160, 161, 162, 163, 164, 165, 166, 167, 168, 169, 170, 171, 172, 173, 174, 175, 176, 177, 178, 179, 180, 181, 182, 183, 184, 185, 186, 187, 188, 189, 190, 191, 192, 193, 194, 195, 196, 197, 198, 199, 200, 201, 202, 203, 204, 205, 206, 207, 208, 209, 210, 211, 212, 213, 214, 215, 216, 217, 218, 219, 220, 221, 222, 223, 224, 225, 226, 227, 228, 229, 230, 231, 232, 233, 234, 235, 236, 237, 238, 239, 240, 241, 242, 243, 244, 245, 246, 247, 248, 249, 250, 251, 252, 253, 254, 255, 256, 257, 258, 259, 260, 261, 262, 263, 264, 265, 266, 267, 268, 269, 270, 271, 272, 273, 274, 275, 276, 277, 278, 279, 280, 281, 282, 283, 284, 285, 286, 287, 288, 289, 290, 291, 292, 293, 294, 295, 296, 297, 298, 299, 300, 301, 302, 303, 304, 305, 306, 307, 308, 309, 310, 311, 312, 313, 314, 315, 316, 317, 318, 319, 320, 321, 322, 323, 324, 325, 326, 327, 328, 329, 330, 331, 332, 333, 334, 335, 336, 337, 338, 339, 340, 341, 342, 343, 344, 345, 346, 347, 348, 349, 350, 351, 352, 353, 354, 355, 356, 357, 358, 359, 360, 361, 362, 363, 364, 365, 366, 367, 368, 369, 370, 371, 372, 373, 374, 375, 376, 377, 378, 379, 380, 381, 382, 383, 384, 385, 386, 387, 388, 389, 390, 391, 392, 393, 394, 395, 396, 397, 398, 399, 400, 401, 402, 403, 404, 405, 406, 407, 408, 409, 410, 411, 412, 413, 414, 415, 416, 417, 418, 419, 420, 421, 422, 423, 424, 425, 426, 427, 428, 429, 430, 431, 432, 433, 434, 435, 436, 437, 438, 439, 440, 441, 442, 443, 444, 445, 446, 447, 448, 449, 450, 451, 452, 453, 454, 455, 456, 457, 458, 459, 460, 461, 462, 463, 464, 465, 466, 467, 468, 469, 470, 471, 472, 473, 474],
      "AcquisitionTime": ["154454.255000", "154455.745000", "154457.235000", "154458.725000", "154500.215000", "154501.705000", "154503.195000", "154504.685000", "154506.175000", "154507.665000", "154509.155000", "154510.645000", "154512.135000", "154513.625000", "154515.115000", "154516.605000", "154518.095000", "154519.585000", "154521.075000", "154522.565000", "154524.055000", "154525.545000", "154527.035000", "154528.525000", "154530.015000", "154531.505000", "154532.995000", "154534.485000", "154535.975000", "154537.465000", "154538.955000", "154540.445000", "154541.935000", "154543.425000", "154544.915000", "154546.405000", "154547.895000", "154549.385000", "154550.875000", "154552.365000", "154553.855000", "154555.345000", "154556.835000", "154558.325000", "154559.815000", "154601.305000", "154602.795000", "154604.285000", "154605.775000", "154607.265000", "154608.755000", "154610.245000", "154611.735000", "154613.225000", "154614.715000", "154616.205000", "154617.695000", "154619.185000", "154620.675000", "154622.165000", "154623.655000", "154625.145000", "154626.635000", "154628.125000", "154629.615000", "154631.105000", "154632.595000", "154634.085000", "154635.575000", "154637.065000", "154638.555000", "154640.045000", "154641.535000", "154643.025000", "154644.515000", "154646.005000", "154647.495000", "154648.985000", "154650.475000", "154651.965000", "154653.455000", "154654.945000", "154656.435000", "154657.925000", "154659.415000", "154700.905000", "154702.395000", "154703.885000", "154705.375000", "154706.865000", "154708.355000", "154709.845000", "154711.335000", "154712.825000", "154714.315000", "154715.805000", "154717.295000", "154718.785000", "154720.275000", "154721.765000", "154723.255000", "154724.745000", "154726.235000", "154727.725000", "154729.215000", "154730.705000", "154732.195000", "154733.685000", "154735.175000", "154736.665000", "154738.155000", "154739.645000", "154741.135000", "154742.625000", "154744.115000", "154745.605000", "154747.095000", "154748.585000", "154750.075000", "154751.565000", "154753.055000", "154754.545000", "154756.035000", "154757.525000", "154759.015000", "154800.505000", "154801.995000", "154803.485000", "154804.975000", "154806.465000", "154807.955000", "154809.445000", "154810.935000", "154812.425000", "154813.915000", "154815.405000", "154816.895000", "154818.385000", "154819.875000", "154821.365000", "154822.855000", "154824.345000", "154825.835000", "154827.325000", "154828.815000", "154830.305000", "154831.795000", "154833.285000", "154834.775000", "154836.265000", "154837.755000", "154839.245000", "154840.735000", "154842.225000", "154843.715000", "154845.205000", "154846.695000", "154848.185000", "154849.675000", "154851.165000", "154852.655000", "154854.145000", "154855.635000", "154857.125000", "154858.615000", "154900.105000", "154901.595000", "154903.085000", "154904.575000", "154906.065000", "154907.555000", "154909.045000", "154910.535000", "154912.025000", "154913.515000", "154915.005000", "154916.495000", "154917.985000", "154919.475000", "154920.965000", "154922.455000", "154923.945000", "154925.435000", "154926.925000", "154928.415000", "154929.905000", "154931.395000", "154932.885000", "154934.375000", "154935.865000", "154937.355000", "154938.845000", "154940.335000", "154941.825000", "154943.315000", "154944.805000", "154946.295000", "154947.785000", "154949.275000", "154950.765000", "154952.255000", "154953.745000", "154955.235000", "154956.725000", "154958.215000", "154959.705000", "155001.195000", "155002.685000", "155004.175000", "155005.665000", "155007.155000", "155008.645000", "155010.135000", "155011.625000", "155013.115000", "155014.605000", "155016.095000", "155017.585000", "155019.075000", "155020.565000", "155022.055000", "155023.545000", "155025.035000", "155026.525000", "155028.015000", "155029.505000", "155030.995000", "155032.485000", "155033.975000", "155035.465000", "155036.955000", "155038.445000", "155039.935000", "155041.425000", "155042.915000", "155044.405000", "155045.895000", "155047.385000", "155048.875000", "155050.365000", "155051.855000", "155053.345000", "155054.835000", "155056.325000", "155057.815000", "155059.305000", "155100.795000", "155102.285000", "155103.775000", "155105.265000", "155106.755000", "155108.245000", "155109.735000", "155111.225000", "155112.715000", "155114.205000", "155115.695000", "155117.185000", "155118.675000", "155120.165000", "155121.655000", "155123.145000", "155124.635000", "155126.125000", "155127.615000", "155129.105000", "155130.595000", "155132.085000", "155133.575000", "155135.065000", "155136.555000", "155138.045000", "155139.535000", "155141.025000", "155142.515000", "155144.005000", "155145.495000", "155146.985000", "155148.475000", "155149.965000", "155151.455000", "155152.945000", "155154.435000", "155155.925000", "155157.415000", "155158.905000", "155200.395000", "155201.885000", "155203.375000", "155204.865000", "155206.355000", "155207.845000", "155209.335000", "155210.825000", "155212.315000", "155213.805000", "155215.295000", "155216.785000", "155218.275000", "155219.765000", "155221.255000", "155222.745000", "155224.235000", "155225.725000", "155227.215000", "155228.705000", "155230.195000", "155231.685000", "155233.175000", "155234.665000", "155236.155000", "155237.645000", "155239.135000", "155240.625000", "155242.115000", "155243.605000", "155245.095000", "155246.585000", "155248.075000", "155249.565000", "155251.055000", "155252.545000", "155254.035000", "155255.525000", "155257.015000", "155258.505000", "155259.995000", "155301.485000", "155302.975000", "155304.465000", "155305.955000", "155307.445000", "155308.935000", "155310.425000", "155311.915000", "155313.405000", "155314.895000", "155316.385000", "155317.875000", "155319.365000", "155320.855000", "155322.345000", "155323.835000", "155325.325000", "155326.815000", "155328.305000", "155329.795000", "155331.285000", "155332.775000", "155334.265000", "155335.755000", "155337.245000", "155338.735000", "155340.225000", "155341.715000", "155343.205000", "155344.695000", "155346.185000", "155347.675000", "155349.165000", "155350.655000", "155352.145000", "155353.635000", "155355.125000", "155356.615000", "155358.105000", "155359.595000", "155401.085000", "155402.575000", "155404.065000", "155405.555000", "155407.045000", "155408.535000", "155410.025000", "155411.515000", "155413.005000", "155414.495000", "155415.985000", "155417.475000", "155418.965000", "155420.455000", "155421.945000", "155423.435000", "155424.925000", "155426.415000", "155427.905000", "155429.395000", "155430.885000", "155432.375000", "155433.865000", "155435.355000", "155436.845000", "155438.335000", "155439.825000", "155441.315000", "155442.805000", "155444.295000", "155445.785000", "155447.275000", "155448.765000", "155450.255000", "155451.745000", "155453.235000", "155454.725000", "155456.215000", "155457.705000", "155459.195000", "155500.685000", "155502.175000", "155503.665000", "155505.155000", "155506.645000", "155508.135000", "155509.625000", "155511.115000", "155512.605000", "155514.095000", "155515.585000", "155517.075000", "155518.565000", "155520.055000", "155521.545000", "155523.035000", "155524.525000", "155526.015000", "155527.505000", "155528.995000", "155530.485000", "155531.975000", "155533.465000", "155534.955000", "155536.445000", "155537.935000", "155539.425000", "155540.915000", "155542.405000", "155543.895000", "155545.385000", "155546.875000", "155548.365000", "155549.855000", "155551.345000", "155552.835000", "155554.325000", "155555.815000", "155557.305000", "155558.795000", "155600.285000", "155601.775000", "155603.265000", "155604.755000", "155606.245000", "155607.735000", "155609.225000", "155610.715000", "155612.205000", "155613.695000", "155615.185000", "155616.675000", "155618.165000", "155619.655000", "155621.145000", "155622.635000", "155624.125000", "155625.615000", "155627.105000", "155628.595000", "155630.085000", "155631.575000", "155633.065000", "155634.555000", "155636.045000", "155637.535000", "155639.025000"],
      "ContentTime": ["154605.163000", "154605.166000", "154605.169000", "154605.171000", "154605.174000", "154605.177000", "154605.180000", "154605.183000", "154605.186000", "154605.188000", "154605.191000", "154605.194000", "154605.197000", "154605.200000", "154605.208000", "154605.211000", "154605.214000", "154605.216000", "154625.133000", "154625.136000", "154625.139000", "154625.141000", "154625.144000", "154625.147000", "154625.150000", "154625.153000", "154625.156000", "154625.161000", "154625.164000", "154625.167000", "154625.169000", "154625.172000", "154625.175000", "154625.178000", "154625.180000", "154625.183000", "154625.186000", "154625.189000", "154645.133000", "154645.136000", "154645.139000", "154645.141000", "154645.144000", "154645.147000", "154645.150000", "154645.153000", "154645.155000", "154645.158000", "154645.164000", "154645.167000", "154645.170000", "154645.172000", "154645.175000", "154645.178000", "154645.181000", "154645.184000", "154645.186000", "154645.189000", "154705.134000", "154705.137000", "154705.140000", "154705.142000", "154705.145000", "154705.148000", "154705.151000", "154705.154000", "154705.156000", "154705.159000", "154705.162000", "154705.165000", "154705.168000", "154705.170000", "154705.173000", "154705.176000", "154705.179000", "154705.182000", "154705.184000", "154705.187000", "154725.134000", "154725.137000", "154725.140000", "154725.142000", "154725.145000", "154725.148000", "154725.151000", "154725.153000", "154725.159000", "154725.162000", "154725.164000", "154725.167000", "154725.170000", "154725.173000", "154725.187000", "154725.190000", "154725.192000", "154725.195000", "154725.198000", "154725.201000", "154805.133000", "154805.136000", "154805.139000", "154805.141000", "154805.144000", "154805.147000", "154805.150000", "154805.153000", "154805.156000", "154805.158000", "154805.161000", "154805.164000", "154805.167000", "154805.170000", "154805.172000", "154805.175000", "154805.178000", "154805.181000", "154805.184000", "154805.186000", "154805.189000", "154805.192000", "154805.195000", "154805.198000", "154805.201000", "154805.203000", "154805.206000", "154805.209000", "154805.212000", "154845.133000", "154845.136000", "154845.139000", "154845.142000", "154845.144000", "154845.147000", "154845.150000", "154845.153000", "154845.156000", "154845.158000", "154845.161000", "154845.164000", "154845.167000", "154845.170000", "154845.172000", "154845.175000", "154845.178000", "154845.181000", "154845.184000", "154845.187000", "154845.190000", "154845.192000", "154845.195000", "154845.198000", "154845.201000", "154845.204000", "154845.206000", "154925.134000", "154925.137000", "154925.140000", "154925.143000", "154925.145000", "154925.148000", "154925.151000", "154925.154000", "154925.157000", "154925.160000", "154925.162000", "154925.165000", "154925.168000", "154925.171000", "154925.174000", "154925.176000", "154925.179000", "154925.182000", "154925.185000", "154925.188000", "154925.191000", "154925.193000", "154925.196000", "154925.208000", "154925.210000", "154925.213000", "154925.216000", "155005.134000", "155005.137000", "155005.140000", "155005.143000", "155005.146000", "155005.148000", "155005.151000", "155005.154000", "155005.157000", "155005.160000", "155005.163000", "155005.165000", "155005.168000", "155005.171000", "155005.174000", "155005.177000", "155005.181000", "155005.183000", "155005.186000", "155005.189000", "155005.192000", "155005.195000", "155005.198000", "155005.201000", "155005.203000", "155005.206000", "155005.209000", "155045.133000", "155045.136000", "155045.139000", "155045.142000", "155045.144000", "155045.147000", "155045.150000", "155045.153000", "155045.156000", "155045.165000", "155045.168000", "155045.171000", "155045.173000", "155045.176000", "155045.179000", "155045.182000", "155045.185000", "155045.187000", "155045.190000", "155045.193000", "155045.196000", "155045.199000", "155045.202000", "155045.204000", "155045.207000", "155045.210000", "155045.213000", "155125.133000", "155125.136000", "155125.139000", "155125.142000", "155125.144000", "155125.147000", "155125.150000", "155125.153000", "155125.156000", "155125.159000", "155125.162000", "155125.164000", "155125.167000", "155125.170000", "155125.173000", "155125.176000", "155125.178000", "155125.181000", "155125.184000", "155125.187000", "155125.190000", "155125.193000", "155125.195000", "155125.198000", "155125.201000", "155125.204000", "155125.207000", "155205.134000", "155205.137000", "155205.140000", "155205.143000", "155205.145000", "155205.148000", "155205.151000", "155205.154000", "155205.157000", "155205.160000", "155205.163000", "155205.166000", "155205.169000", "155205.172000", "155205.175000", "155205.178000", "155205.181000", "155205.183000", "155205.186000", "155205.189000", "155205.192000", "155205.195000", "155205.198000", "155205.200000", "155205.203000", "155205.206000", "155245.133000", "155245.136000", "155245.139000", "155245.142000", "155245.145000", "155245.147000", "155245.162000", "155245.165000", "155245.168000", "155245.171000", "155245.174000", "155245.177000", "155245.179000", "155245.182000", "155245.185000", "155245.188000", "155245.191000", "155245.193000", "155245.196000", "155245.199000", "155245.202000", "155245.205000", "155245.208000", "155245.210000", "155245.213000", "155245.216000", "155245.219000", "155325.133000", "155325.136000", "155325.139000", "155325.142000", "155325.145000", "155325.147000", "155325.150000", "155325.153000", "155325.156000", "155325.159000", "155325.162000", "155325.164000", "155325.167000", "155325.170000", "155325.173000", "155325.176000", "155325.179000", "155325.181000", "155325.184000", "155325.187000", "155325.190000", "155325.193000", "155325.196000", "155325.199000", "155325.202000", "155325.205000", "155325.208000", "155405.134000", "155405.137000", "155405.140000", "155405.143000", "155405.145000", "155405.148000", "155405.151000", "155405.154000", "155405.157000", "155405.160000", "155405.162000", "155405.165000", "155405.168000", "155405.171000", "155405.174000", "155405.177000", "155405.179000", "155405.182000", "155405.185000", "155405.188000", "155405.191000", "155405.194000", "155405.196000", "155405.199000", "155405.202000", "155405.205000", "155405.208000", "155445.133000", "155445.136000", "155445.139000", "155445.142000", "155445.145000", "155445.148000", "155445.151000", "155445.153000", "155445.156000", "155445.159000", "155445.162000", "155445.169000", "155445.172000", "155445.175000", "155445.178000", "155445.181000", "155445.184000", "155445.187000", "155445.190000", "155445.193000", "155445.195000", "155445.198000", "155445.201000", "155445.204000", "155445.207000", "155445.210000", "155445.212000", "155525.133000", "155525.136000", "155525.139000", "155525.142000", "155525.145000", "155525.148000", "155525.151000", "155525.154000", "155525.157000", "155525.159000", "155525.162000", "155525.165000", "155525.168000", "155525.171000", "155525.174000", "155525.177000", "155525.180000", "155525.182000", "155525.185000", "155525.188000", "155525.191000", "155525.194000", "155525.197000", "155525.200000", "155525.204000", "155525.207000", "155525.210000", "155605.133000", "155605.136000", "155605.139000", "155605.142000", "155605.145000", "155605.147000", "155605.150000", "155605.153000", "155605.156000", "155605.159000", "155605.162000", "155605.165000", "155605.168000", "155605.171000", "155605.174000", "155605.177000", "155605.180000", "155605.183000", "155605.186000", "155605.189000", "155605.192000", "155605.195000", "155605.198000", "155605.201000", "155605.204000", "155605.206000", "155641.025000", "155641.029000", "155641.032000", "155641.036000", "155641.046000", "155641.049000", "155641.052000", "155641.056000", "155641.060000", "155641.064000", "155641.067000", "155641.070000", "155641.073000", "155641.076000", "155641.079000", "155641.082000", "155641.085000", "155641.089000", "155641.092000", "155641.095000", "155641.098000", "155641.102000", "155641.105000", "155641.108000", "155641.111000"],
