{
  "AcquisitionMatrixPE": 104,
  "AcquisitionNumber": 1,
  "AcquisitionTime": "15:57:10.752500",
  "BandwidthPerPixelPhaseEncode": 17.17,
  "BaseResolution": 104,
  "BodyPartExamined": "BRAIN",
  "CoilString": "HC1-7;NC1_2",
  "ConsistencyInfo": "N4_VE11C_LATEST_20160120",
  "ConversionSoftware": "dcm2niix",
  "ConversionSoftwareVersion": "v1.0.20190902",
  "DerivedVendorReportedEchoSpacing": 0.000560011,
  "DeviceSerialNumber": "167006",
  "DwellTime": 2.1e-06,
  "EchoTime": 0.037,
  "EchoTrainLength": 104,
  "EffectiveEchoSpacing": 0.000560011,
  "FlipAngle": 52,
  "ImageComments": "Unaliased_MB4_PE3_LB",
  "ImageOrientationPatientDICOM": [0.999355, -0.0305504, -0.0188565, 0.021806, 0.933778, -0.357189],
  "ImageType": [
    "ORIGINAL",
    "PRIMARY",
    "M",
    "MB",
    "ND",
    "MOSAIC"
],
  "ImagingFrequency": 123.259,
  "InPlanePhaseEncodingDirectionDICOM": "COL",
  "InstitutionAddress": "Chemin_Queen-Mary_4565_Montreal_District_CA_H3W_1W5",
  "InstitutionName": "IUGM",
  "InstitutionalDepartmentName": "Department",
  "MRAcquisitionType": "2D",
  "MagneticFieldStrength": 3,
  "Manufacturer": "Siemens",
  "ManufacturersModelName": "Prisma_fit",
  "Modality": "MR",
  "MultibandAccelerationFactor": 4,
  "PartialFourier": 1,
  "PatientPosition": "HFS",
  "PercentPhaseFOV": 100,
  "PhaseEncodingDirection": "j",
  "PhaseEncodingSteps": 104,
  "PhaseResolution": 1,
  "PixelBandwidth": 2290,
  "ProcedureStepDescription": "video_friends",
  "ProtocolName": "func_task-friends-s03e13b",
  "PulseSequenceDetails": "%CustomerSeq%_cmrr_mbep2d_bold",
  "ReceiveCoilActiveElements": "HC1-7;NC1,2",
  "ReceiveCoilName": "HeadNeck_64",
  "ReconMatrixPE": 104,
  "RepetitionTime": 1.49,
  "SAR": 0.0396888,
  "ScanOptions": "FS",
  "ScanningSequence": "EP",
  "SequenceName": "epfid2d1_104",
  "SequenceVariant": "SK_SS",
  "SeriesDescription": "func_task-friends-s03e13b",
  "SeriesNumber": 15,
  "ShimSetting": [609, -7283, -8814, 455, 0, -416, 59, 47],
  "SliceThickness": 2,
  "SliceTiming": [0, 0.7825, 0.0975, 0.8825, 0.195, 0.98, 0.2925, 1.0775, 0.3925, 1.175, 0.49, 1.2725, 0.5875, 1.3725, 0.685, 0, 0.7825, 0.0975, 0.8825, 0.195, 0.98, 0.2925, 1.0775, 0.3925, 1.175, 0.49, 1.2725, 0.5875, 1.3725, 0.685, 0, 0.7825, 0.0975, 0.8825, 0.195, 0.98, 0.2925, 1.0775, 0.3925, 1.175, 0.49, 1.2725, 0.5875, 1.3725, 0.685, 0, 0.7825, 0.0975, 0.8825, 0.195, 0.98, 0.2925, 1.0775, 0.3925, 1.175, 0.49, 1.2725, 0.5875, 1.3725, 0.685],
  "SoftwareVersions": "syngo_MR_E11",
  "SpacingBetweenSlices": 2,
  "StationName": "MRC35049",
  "TaskName": "s03e13b",
  "TotalReadoutTime": 0.0576811,
  "TxRefAmp": 243.212,
  "WipMemBlock": "21b317f4-7c05-499a-b6cb-653474b7e7d7||Sequence: R016 ve11c/master r/e634e98; Dec 19 2017 11:00:25 by eja",
  "dcmmeta_affine": [
    [-1.9987106323242188, 0.0436120331287384, -0.057040054351091385, 98.90607452392578],
    [0.0611007995903492, 1.8675553798675537, -0.7130942940711975, -73.64800262451172],
    [-0.037712983787059784, 0.7143771648406982, 1.8676838874816895, -58.189292907714844],
    [0.0, 0.0, 0.0, 1.0]
],
  "dcmmeta_reorient_transform": [
    [0.0, -1.0, 0.0, 103.0],
    [1.0, 0.0, 0.0, 0.0],
    [0.0, 0.0, 1.0, 0.0],
    [0.0, 0.0, 0.0, 1.0]
],
  "dcmmeta_shape": [104, 104, 60, 473],
  "dcmmeta_slice_dim": 2,
  "dcmmeta_version": 0.6,
  "global": {
    "const": {
      "AcquisitionMatrix": [104, 0, 0, 104],
      "AngioFlag": "N",
      "BitsAllocated": 16,
      "BitsStored": 16,
      "BodyPartExamined": "BRAIN",
      "Columns": 832,
      "EchoNumbers": 1,
      "EchoTime": 37.0,
      "EchoTrainLength": 104,
      "FlipAngle": 52.0,
      "HighBit": 15,
      "ImageOrientationPatient": [0.99935534507607, -0.0305504004969, -0.0188564921807, 0.02180601647753, 0.93377770855389, -0.3571885897579],
      "ImagePositionPatient": [-846.80358805582, -776.25968886113, 289.1523756045],
      "ImageType": [
        "ORIGINAL",
        "PRIMARY",
        "M",
        "MB",
        "ND",
        "MOSAIC"
],
      "ImagedNucleus": "1H",
      "ImagingFrequency": 123.258961,
      "InPlanePhaseEncodingDirection": "COL",
      "MRAcquisitionType": "2D",
      "MagneticFieldStrength": 3.0,
      "Manufacturer": "SIEMENS",
      "ManufacturerModelName": "Prisma_fit",
      "Modality": "MR",
      "NumberOfAverages": 1.0,
      "NumberOfPhaseEncodingSteps": 104,
      "PercentPhaseFieldOfView": 100.0,
      "PercentSampling": 100.0,
      "PerformedProcedureStepStartTime": "145930.634000",
      "PhotometricInterpretation": "MONOCHROME2",
      "PixelBandwidth": 2290.0,
      "PixelRepresentation": 0,
      "PixelSpacing": [2.0, 2.0],
      "ProtocolName": "func_task-friends-s03e13b",
      "RepetitionTime": 1490.0,
      "Rows": 832,
      "SAR": 0.03968878567729,
      "SamplesPerPixel": 1,
      "ScanOptions": "FS",
      "ScanningSequence": "EP",
      "SequenceName": "epfid2d1_104",
      "SequenceVariant": [
        "SK",
        "SS"
],
      "SeriesDescription": "func_task-friends-s03e13b",
      "SeriesNumber": 15,
      "SeriesTime": "155828.891000",
      "SliceLocation": -30.901422298618,
      "SliceThickness": 2.0,
      "SmallestImagePixelValue": 0,
      "SoftwareVersions": "syngo MR E11",
      "SpacingBetweenSlices": 2.000000060526,
      "SpecificCharacterSet": "ISO_IR 100",
      "StudyID": "1",
      "StudyTime": "145930.588000",
      "TransmitCoilName": "Body",
      "VariableFlipAngleFlag": "N",
      "WindowCenterWidthExplanation": "Algo1",
      "dBdt": 0.0},
    "slices": {}
  },
  "time": {
    "samples": {
      "AcquisitionNumber": [1, 2, 3, 4, 5, 6, 7, 8, 9, 10, 11, 12, 13, 14, 15, 16, 17, 18, 19, 20, 21, 22, 23, 24, 25, 26, 27, 28, 29, 30, 31, 32, 33, 34, 35, 36, 37, 38, 39, 40, 41, 42, 43, 44, 45, 46, 47, 48, 49, 50, 51, 52, 53, 54, 55, 56, 57, 58, 59, 60, 61, 62, 63, 64, 65, 66, 67, 68, 69, 70, 71, 72, 73, 74, 75, 76, 77, 78, 79, 80, 81, 82, 83, 84, 85, 86, 87, 88, 89, 90, 91, 92, 93, 94, 95, 96, 97, 98, 99, 100, 101, 102, 103, 104, 105, 106, 107, 108, 109, 110, 111, 112, 113, 114, 115, 116, 117, 118, 119, 120, 121, 122, 123, 124, 125, 126, 127, 128, 129, 130, 131, 132, 133, 134, 135, 136, 137, 138, 139, 140, 141, 142, 143, 144, 145, 146, 147, 148, 149, 150, 151, 152, 153, 154, 155, 156, 157, 158, 159, 160, 161, 162, 163, 164, 165, 166, 167, 168, 169, 170, 171, 172, 173, 174, 175, 176, 177, 178, 179, 180, 181, 182, 183, 184, 185, 186, 187, 188, 189, 190, 191, 192, 193, 194, 195, 196, 197, 198, 199, 200, 201, 202, 203, 204, 205, 206, 207, 208, 209, 210, 211, 212, 213, 214, 215, 216, 217, 218, 219, 220, 221, 222, 223, 224, 225, 226, 227, 228, 229, 230, 231, 232, 233, 234, 235, 236, 237, 238, 239, 240, 241, 242, 243, 244, 245, 246, 247, 248, 249, 250, 251, 252, 253, 254, 255, 256, 257, 258, 259, 260, 261, 262, 263, 264, 265, 266, 267, 268, 269, 270, 271, 272, 273, 274, 275, 276, 277, 278, 279, 280, 281, 282, 283, 284, 285, 286, 287, 288, 289, 290, 291, 292, 293, 294, 295, 296, 297, 298, 299, 300, 301, 302, 303, 304, 305, 306, 307, 308, 309, 310, 311, 312, 313, 314, 315, 316, 317, 318, 319, 320, 321, 322, 323, 324, 325, 326, 327, 328, 329, 330, 331, 332, 333, 334, 335, 336, 337, 338, 339, 340, 341, 342, 343, 344, 345, 346, 347, 348, 349, 350, 351, 352, 353, 354, 355, 356, 357, 358, 359, 360, 361, 362, 363, 364, 365, 366, 367, 368, 369, 370, 371, 372, 373, 374, 375, 376, 377, 378, 379, 380, 381, 382, 383, 384, 385, 386, 387, 388, 389, 390, 391, 392, 393, 394, 395, 396, 397, 398, 399, 400, 401, 402, 403, 404, 405, 406, 407, 408, 409, 410, 411, 412, 413, 414, 415, 416, 417, 418, 419, 420, 421, 422, 423, 424, 425, 426, 427, 428, 429, 430, 431, 432, 433, 434, 435, 436, 437, 438, 439, 440, 441, 442, 443, 444, 445, 446, 447, 448, 449, 450, 451, 452, 453, 454, 455, 456, 457, 458, 459, 460, 461, 462, 463, 464, 465, 466, 467, 468, 469, 470, 471, 472, 473],
      "AcquisitionTime": ["155710.752500", "155712.242500", "155713.732500", "155715.222500", "155716.712500", "155718.202500", "155719.692500", "155721.182500", "155722.672500", "155724.162500", "155725.652500", "155727.142500", "155728.632500", "155730.122500", "155731.612500", "155733.102500", "155734.592500", "155736.082500", "155737.572500", "155739.062500", "155740.552500", "155742.042500", "155743.532500", "155745.022500", "155746.512500", "155748.002500", "155749.492500", "155750.982500", "155752.472500", "155753.962500", "155755.452500", "155756.942500", "155758.432500", "155759.922500", "155801.412500", "155802.902500", "155804.392500", "155805.882500", "155807.372500", "155808.862500", "155810.352500", "155811.842500", "155813.332500", "155814.822500", "155816.312500", "155817.802500", "155819.292500", "155820.782500", "155822.272500", "155823.762500", "155825.252500", "155826.742500", "155828.232500", "155829.722500", "155831.212500", "155832.702500", "155834.192500", "155835.682500", "155837.172500", "155838.662500", "155840.152500", "155841.642500", "155843.132500", "155844.622500", "155846.112500", "155847.602500", "155849.092500", "155850.582500", "155852.072500", "155853.562500", "155855.052500", "155856.542500", "155858.032500", "155859.522500", "155901.012500", "155902.502500", "155903.992500", "155905.482500", "155906.972500", "155908.462500", "155909.952500", "155911.442500", "155912.932500", "155914.422500", "155915.912500", "155917.402500", "155918.892500", "155920.382500", "155921.872500", "155923.362500", "155924.852500", "155926.342500", "155927.832500", "155929.322500", "155930.812500", "155932.302500", "155933.792500", "155935.282500", "155936.772500", "155938.262500", "155939.752500", "155941.242500", "155942.732500", "155944.222500", "155945.712500", "155947.202500", "155948.692500", "155950.182500", "155951.672500", "155953.162500", "155954.652500", "155956.142500", "155957.632500", "155959.122500", "160000.612500", "160002.102500", "160003.592500", "160005.082500", "160006.572500", "160008.062500", "160009.552500", "160011.042500", "160012.532500", "160014.022500", "160015.512500", "160017.002500", "160018.492500", "160019.982500", "160021.472500", "160022.962500", "160024.452500", "160025.942500", "160027.432500", "160028.922500", "160030.412500", "160031.902500", "160033.392500", "160034.882500", "160036.372500", "160037.862500", "160039.352500", "160040.842500", "160042.332500", "160043.822500", "160045.312500", "160046.802500", "160048.292500", "160049.782500", "160051.272500", "160052.762500", "160054.252500", "160055.742500", "160057.232500", "160058.722500", "160100.212500", "160101.702500", "160103.192500", "160104.682500", "160106.172500", "160107.662500", "160109.152500", "160110.642500", "160112.132500", "160113.622500", "160115.112500", "160116.602500", "160118.092500", "160119.582500", "160121.072500", "160122.562500", "160124.052500", "160125.542500", "160127.032500", "160128.522500", "160130.012500", "160131.502500", "160132.992500", "160134.482500", "160135.972500", "160137.462500", "160138.952500", "160140.442500", "160141.932500", "160143.422500", "160144.912500", "160146.402500", "160147.892500", "160149.382500", "160150.872500", "160152.362500", "160153.852500", "160155.342500", "160156.832500", "160158.322500", "160159.812500", "160201.302500", "160202.792500", "160204.282500", "160205.772500", "160207.262500", "160208.752500", "160210.242500", "160211.732500", "160213.222500", "160214.712500", "160216.202500", "160217.692500", "160219.182500", "160220.672500", "160222.162500", "160223.652500", "160225.142500", "160226.632500", "160228.122500", "160229.612500", "160231.102500", "160232.592500", "160234.082500", "160235.572500", "160237.062500", "160238.552500", "160240.042500", "160241.532500", "160243.022500", "160244.512500", "160246.002500", "160247.492500", "160248.982500", "160250.472500", "160251.962500", "160253.452500", "160254.942500", "160256.432500", "160257.922500", "160259.412500", "160300.902500", "160302.392500", "160303.882500", "160305.372500", "160306.862500", "160308.352500", "160309.842500", "160311.332500", "160312.822500", "160314.312500", "160315.802500", "160317.292500", "160318.782500", "160320.272500", "160321.762500", "160323.252500", "160324.742500", "160326.232500", "160327.722500", "160329.212500", "160330.702500", "160332.192500", "160333.682500", "160335.172500", "160336.662500", "160338.152500", "160339.642500", "160341.132500", "160342.622500", "160344.112500", "160345.602500", "160347.092500", "160348.582500", "160350.072500", "160351.562500", "160353.052500", "160354.542500", "160356.032500", "160357.522500", "160359.012500", "160400.502500", "160401.992500", "160403.482500", "160404.972500", "160406.462500", "160407.952500", "160409.442500", "160410.932500", "160412.422500", "160413.912500", "160415.402500", "160416.892500", "160418.382500", "160419.872500", "160421.362500", "160422.852500", "160424.342500", "160425.832500", "160427.322500", "160428.812500", "160430.302500", "160431.792500", "160433.282500", "160434.772500", "160436.262500", "160437.752500", "160439.242500", "160440.732500", "160442.222500", "160443.712500", "160445.202500", "160446.692500", "160448.182500", "160449.672500", "160451.162500", "160452.652500", "160454.142500", "160455.632500", "160457.122500", "160458.612500", "160500.102500", "160501.592500", "160503.082500", "160504.572500", "160506.062500", "160507.552500", "160509.042500", "160510.532500", "160512.022500", "160513.512500", "160515.002500", "160516.492500", "160517.982500", "160519.472500", "160520.962500", "160522.452500", "160523.942500", "160525.432500", "160526.922500", "160528.412500", "160529.902500", "160531.392500", "160532.882500", "160534.372500", "160535.862500", "160537.352500", "160538.842500", "160540.332500", "160541.822500", "160543.312500", "160544.802500", "160546.292500", "160547.782500", "160549.272500", "160550.762500", "160552.252500", "160553.742500", "160555.232500", "160556.722500", "160558.212500", "160559.702500", "160601.192500", "160602.682500", "160604.172500", "160605.662500", "160607.152500", "160608.642500", "160610.132500", "160611.622500", "160613.112500", "160614.602500", "160616.092500", "160617.582500", "160619.072500", "160620.562500", "160622.052500", "160623.542500", "160625.032500", "160626.522500", "160628.012500", "160629.502500", "160630.992500", "160632.482500", "160633.972500", "160635.462500", "160636.952500", "160638.442500", "160639.932500", "160641.422500", "160642.912500", "160644.402500", "160645.892500", "160647.382500", "160648.872500", "160650.362500", "160651.852500", "160653.342500", "160654.832500", "160656.322500", "160657.812500", "160659.302500", "160700.792500", "160702.282500", "160703.772500", "160705.262500", "160706.752500", "160708.242500", "160709.732500", "160711.222500", "160712.712500", "160714.202500", "160715.692500", "160717.182500", "160718.672500", "160720.162500", "160721.652500", "160723.142500", "160724.632500", "160726.122500", "160727.612500", "160729.102500", "160730.592500", "160732.082500", "160733.572500", "160735.062500", "160736.552500", "160738.042500", "160739.532500", "160741.022500", "160742.512500", "160744.002500", "160745.492500", "160746.982500", "160748.472500", "160749.962500", "160751.452500", "160752.942500", "160754.432500", "160755.922500", "160757.412500", "160758.902500", "160800.392500", "160801.882500", "160803.372500", "160804.862500", "160806.352500", "160807.842500", "160809.332500", "160810.822500", "160812.312500", "160813.802500", "160815.292500", "160816.782500", "160818.272500", "160819.762500", "160821.252500", "160822.742500", "160824.232500", "160825.722500", "160827.212500", "160828.702500", "160830.192500", "160831.682500", "160833.172500", "160834.662500", "160836.152500", "160837.642500", "160839.132500", "160840.622500", "160842.112500", "160843.602500", "160845.092500", "160846.582500", "160848.072500", "160849.562500", "160851.052500", "160852.542500", "160854.032500"],
      "ContentTime": ["155828.894000", "155828.897000", "155828.900000", "155828.903000", "155828.905000", "155828.908000", "155828.920000", "155828.922000", "155828.925000", "155828.928000", "155828.931000", "155828.934000", "155828.937000", "155828.940000", "155828.942000", "155828.945000", "155828.948000", "155828.951000", "155828.960000", "155828.963000", "155828.965000", "155828.968000", "155828.971000", "155828.974000", "155828.977000", "155848.851000", "155848.854000", "155848.857000", "155848.860000", "155848.863000", "155848.876000", "155848.878000", "155848.881000", "155848.884000", "155848.887000", "155848.889000", "155848.892000", "155848.895000", "155848.898000", "155848.901000", "155848.904000", "155848.906000", "155848.909000", "155848.912000", "155848.915000", "155908.851000", "155908.854000", "155908.862000", "155908.865000", "155908.867000", "155908.870000", "155908.873000", "155908.876000", "155908.879000", "155908.882000", "155908.885000", "155908.888000", "155908.891000", "155908.894000", "155908.897000", "155908.900000", "155908.903000", "155908.906000", "155908.909000", "155908.912000", "155928.851000", "155928.854000", "155928.856000", "155928.859000", "155928.862000", "155928.865000", "155928.868000", "155928.870000", "155928.873000", "155928.876000", "155928.879000", "155928.882000", "155928.885000", "155928.887000", "155928.890000", "155928.935000", "155928.938000", "155928.941000", "155928.943000", "155928.946000", "155928.949000", "160008.851000", "160008.854000", "160008.857000", "160008.859000", "160008.862000", "160008.865000", "160008.868000", "160008.874000", "160008.877000", "160008.880000", "160008.883000", "160008.886000", "160008.889000", "160008.891000", "160008.894000", "160008.897000", "160008.900000", "160008.903000", "160008.906000", "160008.908000", "160008.911000", "160008.914000", "160008.917000", "160008.920000", "160008.923000", "160008.925000", "160008.928000", "160008.931000", "160008.934000", "160008.937000", "160008.940000", "160008.942000", "160008.945000", "160048.852000", "160048.855000", "160048.858000", "160048.861000", "160048.863000", "160048.866000", "160048.869000", "160048.872000", "160048.875000", "160048.878000", "160048.881000", "160048.883000", "160048.886000", "160048.889000", "160048.892000", "160048.895000", "160048.897000", "160048.900000", "160048.903000", "160048.906000", "160048.909000", "160048.911000", "160048.914000", "160048.917000", "160048.920000", "160048.923000", "160048.926000", "160128.851000", "160128.854000", "160128.858000", "160128.861000", "160128.864000", "160128.867000", "160128.869000", "160128.872000", "160128.875000", "160128.878000", "160128.881000", "160128.884000", "160128.887000", "160128.889000", "160128.912000", "160128.915000", "160128.918000", "160128.920000", "160128.923000", "160128.926000", "160128.929000", "160128.932000", "160128.935000", "160128.937000", "160128.940000", "160128.943000", "160208.851000", "160208.854000", "160208.857000", "160208.859000", "160208.862000", "160208.865000", "160208.868000", "160208.871000", "160208.874000", "160208.877000", "160208.879000", "160208.882000", "160208.885000", "160208.888000", "160208.891000", "160208.894000", "160208.896000", "160208.899000", "160208.902000", "160208.905000", "160208.908000", "160208.910000", "160208.913000", "160208.916000", "160208.919000", "160208.922000", "160208.924000", "160248.851000", "160248.854000", "160248.857000", "160248.859000", "160248.862000", "160248.865000", "160248.868000", "160248.871000", "160248.874000", "160248.877000", "160248.879000", "160248.882000", "160248.885000", "160248.888000", "160248.891000", "160248.894000", "160248.897000", "160248.900000", "160248.902000", "160248.905000", "160248.908000", "160248.911000", "160248.914000", "160248.917000", "160248.919000", "160248.922000", "160248.925000", "160328.851000", "160328.854000", "160328.857000", "160328.860000", "160328.862000", "160328.865000", "160328.868000", "160328.871000", "160328.874000", "160328.877000", "160328.879000", "160328.882000", "160328.885000", "160328.888000", "160328.891000", "160328.894000", "160328.896000", "160328.899000", "160328.902000", "160328.905000", "160328.908000", "160328.911000", "160328.913000", "160328.916000", "160328.919000", "160328.922000", "160328.925000", "160408.851000", "160408.854000", "160408.857000", "160408.860000", "160408.862000", "160408.865000", "160408.868000", "160408.871000", "160408.874000", "160408.877000", "160408.879000", "160408.882000", "160408.885000", "160408.888000", "160408.891000", "160408.894000", "160408.896000", "160408.899000", "160408.902000", "160408.905000", "160408.908000", "160408.911000", "160408.913000", "160408.916000", "160408.919000", "160408.922000", "160408.925000", "160448.851000", "160448.854000", "160448.857000", "160448.860000", "160448.862000", "160448.865000", "160448.868000", "160448.871000", "160448.874000", "160448.877000", "160448.879000", "160448.882000", "160448.885000", "160448.888000", "160448.891000", "160448.894000", "160448.897000", "160448.899000", "160448.902000", "160448.905000", "160448.908000", "160448.911000", "160448.914000", "160448.916000", "160448.919000", "160448.922000", "160448.925000", "160528.851000", "160528.862000", "160528.865000", "160528.867000", "160528.870000", "160528.873000", "160528.876000", "160528.879000", "160528.882000", "160528.884000", "160528.887000", "160528.890000", "160528.893000", "160528.896000", "160528.899000", "160528.902000", "160528.905000", "160528.907000", "160528.910000", "160528.913000", "160528.916000", "160528.919000", "160528.922000", "160528.925000", "160528.927000", "160528.930000", "160528.933000", "160608.851000", "160608.854000", "160608.857000", "160608.860000", "160608.862000", "160608.865000", "160608.868000", "160608.871000", "160608.874000", "160608.877000", "160608.879000", "160608.882000", "160608.885000", "160608.888000", "160608.891000", "160608.894000", "160608.897000", "160608.900000", "160608.902000", "160608.905000", "160608.908000", "160608.911000", "160608.914000", "160608.917000", "160608.919000", "160608.922000", "160648.851000", "160648.854000", "160648.857000", "160648.859000", "160648.862000", "160648.865000", "160648.868000", "160648.871000", "160648.874000", "160648.876000", "160648.879000", "160648.882000", "160648.885000", "160648.888000", "160648.891000", "160648.893000", "160648.896000", "160648.899000", "160648.902000", "160648.905000", "160648.907000", "160648.910000", "160648.913000", "160648.916000", "160648.919000", "160648.921000", "160648.924000", "160728.851000", "160728.854000", "160728.857000", "160728.860000", "160728.863000", "160728.867000", "160728.869000", "160728.872000", "160728.875000", "160728.878000", "160728.881000", "160728.884000", "160728.887000", "160728.889000", "160728.892000", "160728.895000", "160728.898000", "160728.901000", "160728.904000", "160728.907000", "160728.909000", "160728.912000", "160728.915000", "160728.918000", "160728.921000", "160728.923000", "160728.926000", "160808.851000", "160808.854000", "160808.857000", "160808.860000", "160808.862000", "160808.865000", "160808.868000", "160808.871000", "160808.874000", "160808.877000", "160808.879000", "160808.882000", "160808.885000", "160808.888000", "160808.891000", "160808.894000", "160808.897000", "160808.900000", "160808.902000", "160808.905000", "160808.908000", "160808.911000", "160808.914000", "160808.916000", "160808.919000", "160808.922000", "160808.925000", "160848.851000", "160848.854000", "160848.857000", "160848.859000", "160848.862000", "160848.865000", "160848.868000", "160848.871000", "160848.874000", "160848.877000", "160848.879000", "160848.882000", "160848.885000", "160848.888000", "160848.891000", "160848.894000", "160848.897000", "160848.900000", "160848.903000", "160848.906000", "160848.909000", "160848.911000", "160848.914000", "160848.917000", "160848.920000", "160848.923000", "160848.926000", "160855.907000", "160855.910000", "160855.913000", "160855.916000", "160855.918000"],
