{
  "AcquisitionMatrixPE": 104,
  "AcquisitionNumber": 1,
  "AcquisitionTime": "15:20:56.662500",
  "BandwidthPerPixelPhaseEncode": 17.17,
  "BaseResolution": 104,
  "BodyPartExamined": "BRAIN",
  "CoilString": "HC1-7;NC1_2",
  "ConsistencyInfo": "N4_VE11C_LATEST_20160120",
  "ConversionSoftware": "dcm2niix",
  "ConversionSoftwareVersion": "v1.0.20190902",
  "DerivedVendorReportedEchoSpacing": 0.000560011,
  "DeviceSerialNumber": "167006",
  "DwellTime": 2.1e-06,
  "EchoTime": 0.037,
  "EchoTrainLength": 104,
  "EffectiveEchoSpacing": 0.000560011,
  "FlipAngle": 52,
  "ImageComments": "Unaliased_MB4_PE3_LB",
  "ImageOrientationPatientDICOM": [0.999355, -0.0305504, -0.0188565, 0.021806, 0.933778, -0.357189],
  "ImageType": [
    "ORIGINAL",
    "PRIMARY",
    "M",
    "MB",
    "ND",
    "MOSAIC"
],
  "ImagingFrequency": 123.259,
  "InPlanePhaseEncodingDirectionDICOM": "COL",
  "InstitutionAddress": "Chemin_Queen-Mary_4565_Montreal_District_CA_H3W_1W5",
  "InstitutionName": "IUGM",
  "InstitutionalDepartmentName": "Department",
  "MRAcquisitionType": "2D",
  "MagneticFieldStrength": 3,
  "Manufacturer": "Siemens",
  "ManufacturersModelName": "Prisma_fit",
  "Modality": "MR",
  "MultibandAccelerationFactor": 4,
  "PartialFourier": 1,
  "PatientPosition": "HFS",
  "PercentPhaseFOV": 100,
  "PhaseEncodingDirection": "j",
  "PhaseEncodingSteps": 104,
  "PhaseResolution": 1,
  "PixelBandwidth": 2290,
  "ProcedureStepDescription": "video_friends",
  "ProtocolName": "func_task-friends-s03e12a",
  "PulseSequenceDetails": "%CustomerSeq%_cmrr_mbep2d_bold",
  "ReceiveCoilActiveElements": "HC1-7;NC1,2",
  "ReceiveCoilName": "HeadNeck_64",
  "ReconMatrixPE": 104,
  "RepetitionTime": 1.49,
  "SAR": 0.0396856,
  "ScanOptions": "FS",
  "ScanningSequence": "EP",
  "SequenceName": "epfid2d1_104",
  "SequenceVariant": "SK_SS",
  "SeriesDescription": "func_task-friends-s03e12a",
  "SeriesNumber": 9,
  "ShimSetting": [609, -7283, -8814, 455, 0, -416, 59, 47],
  "SliceThickness": 2,
  "SliceTiming": [0, 0.785, 0.0975, 0.8825, 0.195, 0.98, 0.295, 1.0775, 0.3925, 1.175, 0.49, 1.275, 0.5875, 1.3725, 0.685, 0, 0.785, 0.0975, 0.8825, 0.195, 0.98, 0.295, 1.0775, 0.3925, 1.175, 0.49, 1.275, 0.5875, 1.3725, 0.685, 0, 0.785, 0.0975, 0.8825, 0.195, 0.98, 0.295, 1.0775, 0.3925, 1.175, 0.49, 1.275, 0.5875, 1.3725, 0.685, 0, 0.785, 0.0975, 0.8825, 0.195, 0.98, 0.295, 1.0775, 0.3925, 1.175, 0.49, 1.275, 0.5875, 1.3725, 0.685],
  "SoftwareVersions": "syngo_MR_E11",
  "SpacingBetweenSlices": 2,
  "StationName": "MRC35049",
  "TaskName": "s03e12a",
  "TotalReadoutTime": 0.0576811,
  "TxRefAmp": 243.212,
  "WipMemBlock": "0f1b7397-4b06-4b1b-8295-706b084928b5||Sequence: R016 ve11c/master r/e634e98; Dec 19 2017 11:00:25 by eja",
  "dcmmeta_affine": [
    [-1.9987106323242188, 0.0436120331287384, -0.057040054351091385, 98.90607452392578],
    [0.0611007995903492, 1.8675553798675537, -0.7130942940711975, -73.64800262451172],
    [-0.037712983787059784, 0.7143771648406982, 1.8676838874816895, -58.189292907714844],
    [0.0, 0.0, 0.0, 1.0]
],
  "dcmmeta_reorient_transform": [
    [0.0, -1.0, 0.0, 103.0],
    [1.0, 0.0, 0.0, 0.0],
    [0.0, 0.0, 1.0, 0.0],
    [0.0, 0.0, 0.0, 1.0]
],
  "dcmmeta_shape": [104, 104, 60, 464],
  "dcmmeta_slice_dim": 2,
  "dcmmeta_version": 0.6,
  "global": {
    "const": {
      "AcquisitionMatrix": [104, 0, 0, 104],
      "AngioFlag": "N",
      "BitsAllocated": 16,
      "BitsStored": 16,
      "BodyPartExamined": "BRAIN",
      "Columns": 832,
      "EchoNumbers": 1,
      "EchoTime": 37.0,
      "EchoTrainLength": 104,
      "FlipAngle": 52.0,
      "HighBit": 15,
      "ImageOrientationPatient": [0.99935534507607, -0.0305504004969, -0.0188564921807, 0.02180601647753, 0.93377770855389, -0.3571885897579],
      "ImagePositionPatient": [-846.80358805582, -776.25968886113, 289.1523756045],
      "ImageType": [
        "ORIGINAL",
        "PRIMARY",
        "M",
        "MB",
        "ND",
        "MOSAIC"
],
      "ImagedNucleus": "1H",
      "ImagingFrequency": 123.258938,
      "InPlanePhaseEncodingDirection": "COL",
      "MRAcquisitionType": "2D",
      "MagneticFieldStrength": 3.0,
      "Manufacturer": "SIEMENS",
      "ManufacturerModelName": "Prisma_fit",
      "Modality": "MR",
      "NumberOfAverages": 1.0,
      "NumberOfPhaseEncodingSteps": 104,
      "PercentPhaseFieldOfView": 100.0,
      "PercentSampling": 100.0,
      "PerformedProcedureStepStartTime": "145930.634000",
      "PhotometricInterpretation": "MONOCHROME2",
      "PixelBandwidth": 2290.0,
      "PixelRepresentation": 0,
      "PixelSpacing": [2.0, 2.0],
      "ProtocolName": "func_task-friends-s03e12a",
      "RepetitionTime": 1490.0,
      "Rows": 832,
      "SAR": 0.03968556913492,
      "SamplesPerPixel": 1,
      "ScanOptions": "FS",
      "ScanningSequence": "EP",
      "SequenceName": "epfid2d1_104",
      "SequenceVariant": [
        "SK",
        "SS"
],
      "SeriesDescription": "func_task-friends-s03e12a",
      "SeriesNumber": 9,
      "SeriesTime": "152228.894000",
      "SliceLocation": -30.901422298618,
      "SliceThickness": 2.0,
      "SmallestImagePixelValue": 0,
      "SoftwareVersions": "syngo MR E11",
      "SpacingBetweenSlices": 2.000000060526,
      "SpecificCharacterSet": "ISO_IR 100",
      "StudyID": "1",
      "StudyTime": "145930.588000",
      "TransmitCoilName": "Body",
      "VariableFlipAngleFlag": "N",
      "WindowCenterWidthExplanation": "Algo1",
      "dBdt": 0.0},
    "slices": {}
  },
  "time": {
    "samples": {
      "AcquisitionNumber": [1, 2, 3, 4, 5, 6, 7, 8, 9, 10, 11, 12, 13, 14, 15, 16, 17, 18, 19, 20, 21, 22, 23, 24, 25, 26, 27, 28, 29, 30, 31, 32, 33, 34, 35, 36, 37, 38, 39, 40, 41, 42, 43, 44, 45, 46, 47, 48, 49, 50, 51, 52, 53, 54, 55, 56, 57, 58, 59, 60, 61, 62, 63, 64, 65, 66, 67, 68, 69, 70, 71, 72, 73, 74, 75, 76, 77, 78, 79, 80, 81, 82, 83, 84, 85, 86, 87, 88, 89, 90, 91, 92, 93, 94, 95, 96, 97, 98, 99, 100, 101, 102, 103, 104, 105, 106, 107, 108, 109, 110, 111, 112, 113, 114, 115, 116, 117, 118, 119, 120, 121, 122, 123, 124, 125, 126, 127, 128, 129, 130, 131, 132, 133, 134, 135, 136, 137, 138, 139, 140, 141, 142, 143, 144, 145, 146, 147, 148, 149, 150, 151, 152, 153, 154, 155, 156, 157, 158, 159, 160, 161, 162, 163, 164, 165, 166, 167, 168, 169, 170, 171, 172, 173, 174, 175, 176, 177, 178, 179, 180, 181, 182, 183, 184, 185, 186, 187, 188, 189, 190, 191, 192, 193, 194, 195, 196, 197, 198, 199, 200, 201, 202, 203, 204, 205, 206, 207, 208, 209, 210, 211, 212, 213, 214, 215, 216, 217, 218, 219, 220, 221, 222, 223, 224, 225, 226, 227, 228, 229, 230, 231, 232, 233, 234, 235, 236, 237, 238, 239, 240, 241, 242, 243, 244, 245, 246, 247, 248, 249, 250, 251, 252, 253, 254, 255, 256, 257, 258, 259, 260, 261, 262, 263, 264, 265, 266, 267, 268, 269, 270, 271, 272, 273, 274, 275, 276, 277, 278, 279, 280, 281, 282, 283, 284, 285, 286, 287, 288, 289, 290, 291, 292, 293, 294, 295, 296, 297, 298, 299, 300, 301, 302, 303, 304, 305, 306, 307, 308, 309, 310, 311, 312, 313, 314, 315, 316, 317, 318, 319, 320, 321, 322, 323, 324, 325, 326, 327, 328, 329, 330, 331, 332, 333, 334, 335, 336, 337, 338, 339, 340, 341, 342, 343, 344, 345, 346, 347, 348, 349, 350, 351, 352, 353, 354, 355, 356, 357, 358, 359, 360, 361, 362, 363, 364, 365, 366, 367, 368, 369, 370, 371, 372, 373, 374, 375, 376, 377, 378, 379, 380, 381, 382, 383, 384, 385, 386, 387, 388, 389, 390, 391, 392, 393, 394, 395, 396, 397, 398, 399, 400, 401, 402, 403, 404, 405, 406, 407, 408, 409, 410, 411, 412, 413, 414, 415, 416, 417, 418, 419, 420, 421, 422, 423, 424, 425, 426, 427, 428, 429, 430, 431, 432, 433, 434, 435, 436, 437, 438, 439, 440, 441, 442, 443, 444, 445, 446, 447, 448, 449, 450, 451, 452, 453, 454, 455, 456, 457, 458, 459, 460, 461, 462, 463, 464],
      "AcquisitionTime": ["152056.662500", "152058.152500", "152059.642500", "152101.132500", "152102.622500", "152104.112500", "152105.602500", "152107.092500", "152108.582500", "152110.072500", "152111.562500", "152113.052500", "152114.542500", "152116.032500", "152117.522500", "152119.012500", "152120.502500", "152121.992500", "152123.482500", "152124.972500", "152126.462500", "152127.952500", "152129.442500", "152130.932500", "152132.422500", "152133.912500", "152135.402500", "152136.892500", "152138.382500", "152139.872500", "152141.362500", "152142.852500", "152144.342500", "152145.832500", "152147.322500", "152148.812500", "152150.302500", "152151.792500", "152153.282500", "152154.772500", "152156.262500", "152157.752500", "152159.242500", "152200.732500", "152202.222500", "152203.712500", "152205.202500", "152206.692500", "152208.182500", "152209.672500", "152211.162500", "152212.652500", "152214.142500", "152215.632500", "152217.122500", "152218.612500", "152220.102500", "152221.592500", "152223.082500", "152224.572500", "152226.062500", "152227.552500", "152229.042500", "152230.532500", "152232.022500", "152233.512500", "152235.002500", "152236.492500", "152237.982500", "152239.472500", "152240.962500", "152242.452500", "152243.942500", "152245.432500", "152246.922500", "152248.412500", "152249.902500", "152251.392500", "152252.882500", "152254.372500", "152255.862500", "152257.352500", "152258.842500", "152300.332500", "152301.822500", "152303.312500", "152304.802500", "152306.292500", "152307.782500", "152309.272500", "152310.762500", "152312.252500", "152313.742500", "152315.232500", "152316.722500", "152318.212500", "152319.702500", "152321.192500", "152322.682500", "152324.172500", "152325.662500", "152327.152500", "152328.642500", "152330.132500", "152331.622500", "152333.112500", "152334.602500", "152336.092500", "152337.582500", "152339.072500", "152340.562500", "152342.052500", "152343.542500", "152345.032500", "152346.522500", "152348.012500", "152349.502500", "152350.992500", "152352.482500", "152353.972500", "152355.462500", "152356.952500", "152358.442500", "152359.932500", "152401.422500", "152402.912500", "152404.402500", "152405.892500", "152407.382500", "152408.872500", "152410.362500", "152411.852500", "152413.342500", "152414.832500", "152416.322500", "152417.812500", "152419.302500", "152420.792500", "152422.282500", "152423.772500", "152425.262500", "152426.752500", "152428.242500", "152429.732500", "152431.222500", "152432.712500", "152434.202500", "152435.692500", "152437.182500", "152438.672500", "152440.162500", "152441.652500", "152443.142500", "152444.632500", "152446.122500", "152447.612500", "152449.102500", "152450.592500", "152452.082500", "152453.572500", "152455.062500", "152456.552500", "152458.042500", "152459.532500", "152501.022500", "152502.512500", "152504.002500", "152505.492500", "152506.982500", "152508.472500", "152509.962500", "152511.452500", "152512.942500", "152514.432500", "152515.922500", "152517.412500", "152518.902500", "152520.392500", "152521.882500", "152523.372500", "152524.862500", "152526.352500", "152527.842500", "152529.332500", "152530.822500", "152532.312500", "152533.802500", "152535.292500", "152536.782500", "152538.272500", "152539.762500", "152541.252500", "152542.742500", "152544.232500", "152545.722500", "152547.212500", "152548.702500", "152550.192500", "152551.682500", "152553.172500", "152554.662500", "152556.152500", "152557.642500", "152559.132500", "152600.622500", "152602.112500", "152603.602500", "152605.092500", "152606.582500", "152608.072500", "152609.562500", "152611.052500", "152612.542500", "152614.032500", "152615.522500", "152617.012500", "152618.502500", "152619.992500", "152621.482500", "152622.972500", "152624.462500", "152625.952500", "152627.442500", "152628.932500", "152630.422500", "152631.912500", "152633.402500", "152634.892500", "152636.382500", "152637.872500", "152639.362500", "152640.852500", "152642.342500", "152643.832500", "152645.322500", "152646.812500", "152648.302500", "152649.792500", "152651.282500", "152652.772500", "152654.262500", "152655.752500", "152657.242500", "152658.732500", "152700.222500", "152701.712500", "152703.202500", "152704.692500", "152706.182500", "152707.672500", "152709.162500", "152710.652500", "152712.142500", "152713.632500", "152715.122500", "152716.612500", "152718.102500", "152719.592500", "152721.082500", "152722.572500", "152724.062500", "152725.552500", "152727.042500", "152728.532500", "152730.022500", "152731.512500", "152733.002500", "152734.492500", "152735.982500", "152737.472500", "152738.962500", "152740.452500", "152741.942500", "152743.432500", "152744.922500", "152746.412500", "152747.902500", "152749.392500", "152750.882500", "152752.372500", "152753.862500", "152755.352500", "152756.842500", "152758.332500", "152759.822500", "152801.312500", "152802.802500", "152804.292500", "152805.782500", "152807.272500", "152808.762500", "152810.252500", "152811.742500", "152813.232500", "152814.722500", "152816.212500", "152817.702500", "152819.192500", "152820.682500", "152822.172500", "152823.662500", "152825.152500", "152826.642500", "152828.132500", "152829.622500", "152831.112500", "152832.602500", "152834.092500", "152835.582500", "152837.072500", "152838.562500", "152840.052500", "152841.542500", "152843.032500", "152844.522500", "152846.012500", "152847.502500", "152848.992500", "152850.482500", "152851.972500", "152853.462500", "152854.952500", "152856.442500", "152857.932500", "152859.422500", "152900.912500", "152902.402500", "152903.892500", "152905.382500", "152906.872500", "152908.362500", "152909.852500", "152911.342500", "152912.832500", "152914.322500", "152915.812500", "152917.302500", "152918.792500", "152920.282500", "152921.772500", "152923.262500", "152924.752500", "152926.242500", "152927.732500", "152929.222500", "152930.712500", "152932.202500", "152933.692500", "152935.182500", "152936.672500", "152938.162500", "152939.652500", "152941.142500", "152942.632500", "152944.122500", "152945.612500", "152947.102500", "152948.592500", "152950.082500", "152951.572500", "152953.062500", "152954.552500", "152956.042500", "152957.532500", "152959.022500", "153000.512500", "153002.002500", "153003.492500", "153004.982500", "153006.472500", "153007.962500", "153009.452500", "153010.942500", "153012.432500", "153013.922500", "153015.412500", "153016.902500", "153018.392500", "153019.882500", "153021.372500", "153022.862500", "153024.352500", "153025.842500", "153027.332500", "153028.822500", "153030.312500", "153031.802500", "153033.292500", "153034.782500", "153036.272500", "153037.762500", "153039.252500", "153040.742500", "153042.232500", "153043.722500", "153045.212500", "153046.702500", "153048.192500", "153049.682500", "153051.172500", "153052.662500", "153054.152500", "153055.642500", "153057.132500", "153058.622500", "153100.112500", "153101.602500", "153103.092500", "153104.582500", "153106.072500", "153107.562500", "153109.052500", "153110.542500", "153112.032500", "153113.522500", "153115.012500", "153116.502500", "153117.992500", "153119.482500", "153120.972500", "153122.462500", "153123.952500", "153125.442500", "153126.932500", "153128.422500", "153129.912500", "153131.402500", "153132.892500", "153134.382500", "153135.872500", "153137.362500", "153138.852500", "153140.342500", "153141.832500", "153143.322500", "153144.812500", "153146.302500", "153147.792500", "153149.282500", "153150.772500", "153152.262500", "153153.752500", "153155.242500", "153156.732500", "153158.222500", "153159.712500", "153201.202500", "153202.692500", "153204.182500", "153205.672500", "153207.162500", "153208.652500", "153210.142500", "153211.632500", "153213.122500", "153214.612500", "153216.102500", "153217.592500", "153219.082500", "153220.572500", "153222.062500", "153223.552500", "153225.042500", "153226.532500"],
      "ContentTime": ["152228.896000", "152228.900000", "152228.903000", "152228.905000", "152228.908000", "152228.911000", "152228.914000", "152228.917000", "152228.920000", "152228.923000", "152228.926000", "152228.929000", "152228.932000", "152228.935000", "152228.938000", "152228.941000", "152228.943000", "152228.946000", "152228.949000", "152228.952000", "152228.955000", "152228.958000", "152228.960000", "152228.963000", "152228.966000", "152228.969000", "152228.972000", "152228.975000", "152228.977000", "152228.980000", "152228.987000", "152228.989000", "152228.992000", "152228.995000", "152228.998000", "152229.002000", "152229.005000", "152229.008000", "152248.851000", "152248.868000", "152248.871000", "152248.874000", "152248.877000", "152248.879000", "152248.882000", "152248.885000", "152248.888000", "152248.891000", "152248.894000", "152248.897000", "152248.899000", "152248.902000", "152248.930000", "152248.933000", "152248.936000", "152248.939000", "152248.941000", "152248.944000", "152308.851000", "152308.854000", "152308.857000", "152308.860000", "152308.862000", "152308.865000", "152308.868000", "152308.871000", "152308.874000", "152308.877000", "152308.879000", "152308.882000", "152308.885000", "152308.888000", "152308.891000", "152308.894000", "152308.897000", "152308.899000", "152308.902000", "152308.905000", "152328.851000", "152328.855000", "152328.858000", "152328.861000", "152328.863000", "152328.867000", "152328.869000", "152328.872000", "152328.875000", "152328.878000", "152328.881000", "152328.884000", "152328.886000", "152328.889000", "152328.892000", "152328.895000", "152328.898000", "152328.901000", "152328.904000", "152328.906000", "152328.909000", "152408.851000", "152408.854000", "152408.856000", "152408.859000", "152408.862000", "152408.865000", "152408.868000", "152408.871000", "152408.874000", "152408.877000", "152408.880000", "152408.882000", "152408.885000", "152408.888000", "152408.891000", "152408.894000", "152408.897000", "152408.899000", "152408.909000", "152408.911000", "152408.914000", "152408.917000", "152408.920000", "152408.923000", "152408.926000", "152408.928000", "152408.931000", "152408.934000", "152408.937000", "152448.851000", "152448.854000", "152448.857000", "152448.859000", "152448.862000", "152448.865000", "152448.868000", "152448.871000", "152448.874000", "152448.876000", "152448.879000", "152448.882000", "152448.885000", "152448.888000", "152448.891000", "152448.893000", "152448.896000", "152448.899000", "152448.902000", "152448.905000", "152448.908000", "152448.910000", "152448.913000", "152448.916000", "152448.919000", "152448.922000", "152448.924000", "152528.851000", "152528.854000", "152528.857000", "152528.860000", "152528.863000", "152528.865000", "152528.868000", "152528.871000", "152528.874000", "152528.877000", "152528.880000", "152528.883000", "152528.886000", "152528.888000", "152528.891000", "152528.894000", "152528.897000", "152528.900000", "152528.903000", "152528.906000", "152528.908000", "152528.911000", "152528.914000", "152528.917000", "152528.920000", "152528.923000", "152528.926000", "152608.851000", "152608.854000", "152608.857000", "152608.860000", "152608.862000", "152608.866000", "152608.868000", "152608.871000", "152608.874000", "152608.877000", "152608.880000", "152608.883000", "152608.886000", "152608.889000", "152608.891000", "152608.894000", "152608.897000", "152608.900000", "152608.903000", "152608.906000", "152608.909000", "152608.912000", "152608.915000", "152608.917000", "152608.920000", "152608.923000", "152608.926000", "152648.851000", "152648.854000", "152648.857000", "152648.860000", "152648.862000", "152648.865000", "152648.868000", "152648.872000", "152648.875000", "152648.878000", "152648.881000", "152648.884000", "152648.887000", "152648.890000", "152648.893000", "152648.895000", "152648.898000", "152648.901000", "152648.904000", "152648.907000", "152648.910000", "152648.913000", "152648.916000", "152648.918000", "152648.921000", "152648.924000", "152728.851000", "152728.854000", "152728.857000", "152728.860000", "152728.862000", "152728.881000", "152728.884000", "152728.887000", "152728.890000", "152728.893000", "152728.896000", "152728.899000", "152728.902000", "152728.904000", "152728.908000", "152728.910000", "152728.913000", "152728.916000", "152728.919000", "152728.922000", "152728.925000", "152728.928000", "152728.931000", "152728.933000", "152728.936000", "152728.939000", "152728.942000", "152808.852000", "152808.855000", "152808.858000", "152808.861000", "152808.864000", "152808.867000", "152808.870000", "152808.872000", "152808.875000", "152808.878000", "152808.881000", "152808.884000", "152808.887000", "152808.890000", "152808.893000", "152808.896000", "152808.899000", "152808.902000", "152808.904000", "152808.907000", "152808.910000", "152808.913000", "152808.916000", "152808.919000", "152808.921000", "152808.924000", "152808.927000", "152848.851000", "152848.854000", "152848.857000", "152848.859000", "152848.862000", "152848.865000", "152848.868000", "152848.871000", "152848.874000", "152848.877000", "152848.880000", "152848.883000", "152848.886000", "152848.888000", "152848.891000", "152848.894000", "152848.897000", "152848.900000", "152848.903000", "152848.906000", "152848.909000", "152848.912000", "152848.914000", "152848.917000", "152848.920000", "152848.923000", "152848.926000", "152928.851000", "152928.854000", "152928.857000", "152928.860000", "152928.863000", "152928.865000", "152928.868000", "152928.871000", "152928.874000", "152928.877000", "152928.880000", "152928.883000", "152928.885000", "152928.888000", "152928.891000", "152928.894000", "152928.897000", "152928.900000", "152928.903000", "152928.906000", "152928.909000", "152928.911000", "152928.914000", "152928.917000", "152928.920000", "152928.923000", "152928.926000", "153008.851000", "153008.854000", "153008.857000", "153008.860000", "153008.862000", "153008.865000", "153008.868000", "153008.871000", "153008.874000", "153008.877000", "153008.880000", "153008.883000", "153008.886000", "153008.888000", "153008.891000", "153008.894000", "153008.897000", "153008.900000", "153008.903000", "153008.906000", "153008.909000", "153008.911000", "153008.914000", "153008.917000", "153008.920000", "153008.923000", "153008.926000", "153048.851000", "153048.854000", "153048.857000", "153048.860000", "153048.863000", "153048.865000", "153048.868000", "153048.871000", "153048.874000", "153048.877000", "153048.880000", "153048.883000", "153048.886000", "153048.889000", "153048.892000", "153048.895000", "153048.898000", "153048.902000", "153048.905000", "153048.908000", "153048.911000", "153048.914000", "153048.917000", "153048.919000", "153048.922000", "153048.925000", "153128.851000", "153128.854000", "153128.857000", "153128.860000", "153128.863000", "153128.866000", "153128.869000", "153128.872000", "153128.874000", "153128.877000", "153128.880000", "153128.883000", "153128.886000", "153128.889000", "153128.891000", "153128.894000", "153128.897000", "153128.900000", "153128.903000", "153128.906000", "153128.909000", "153128.912000", "153128.915000", "153128.918000", "153128.920000", "153128.923000", "153128.926000", "153208.851000", "153208.854000", "153208.857000", "153208.859000", "153208.862000", "153208.865000", "153208.868000", "153208.871000", "153208.874000", "153208.877000", "153208.879000", "153208.882000", "153208.885000", "153208.888000", "153208.891000", "153208.894000", "153208.897000", "153208.899000", "153208.903000", "153208.906000", "153208.908000", "153208.911000", "153208.914000", "153208.917000", "153208.920000", "153208.923000", "153208.926000", "153228.775000", "153228.778000", "153228.781000", "153228.791000", "153228.794000", "153228.797000", "153228.800000", "153228.803000", "153228.806000", "153228.809000", "153228.812000", "153228.815000", "153228.818000", "153228.821000"],
