{
  "AcquisitionMatrixPE": 104,
  "AcquisitionNumber": 1,
  "AcquisitionTime": "14:26:28.087500",
  "BandwidthPerPixelPhaseEncode": 17.17,
  "BaseResolution": 104,
  "BodyPartExamined": "BRAIN",
  "CoilCombinationMethod": "Sum of Squares",
  "ConsistencyInfo": "N4_VE11C_LATEST_20160120",
  "ConversionSoftware": "dcm2niix",
  "ConversionSoftwareVersion": "v1.0.20230411",
  "DerivedVendorReportedEchoSpacing": 0.000560011,
  "DeviceSerialNumber": "167006",
  "DwellTime": 2.1e-06,
  "EchoTime": 0.037,
  "EchoTrainLength": 104,
  "EffectiveEchoSpacing": 0.000560011,
  "FlipAngle": 52,
  "HeudiconvVersion": "0.5.3.post861+ge7d3c7f",
  "ImageComments": "Unaliased MB4/PE3/LB",
  "ImageOrientationPatientDICOM": [0.999681, 0.00486113, -0.0248005, -0.0108181, 0.969185, -0.246095],
  "ImageOrientationText": "Tra>Cor(-14.3)>Sag(-1.3)",
  "ImageType": [
    "ORIGINAL",
    "PRIMARY",
    "M",
    "MB",
    "ND",
    "MOSAIC"
],
  "ImagingFrequency": 123.249415,
  "InPlanePhaseEncodingDirectionDICOM": "COL",
  "InstitutionAddress": "Chemin Queen-Mary 4565,Montreal,District,CA,H3W 1W5",
  "InstitutionName": "IUGM",
  "InstitutionalDepartmentName": "Department",
  "MRAcquisitionType": "2D",
  "MagneticFieldStrength": 3,
  "Manufacturer": "Siemens",
  "ManufacturersModelName": "Prisma_fit",
  "MatrixCoilMode": "SENSE",
  "Modality": "MR",
  "MultibandAccelerationFactor": 4,
  "NonlinearGradientCorrection": false,
  "PartialFourier": 1,
  "PatientPosition": "HFS",
  "PercentPhaseFOV": 100,
  "PercentSampling": 100,
  "PhaseEncodingDirection": "j",
  "PhaseEncodingSteps": 104,
  "PhaseResolution": 1,
  "PixelBandwidth": 2290,
  "ProcedureStepDescription": "video^friends",
  "ProtocolName": "func_task-friends-s07e11a",
  "PulseSequenceDetails": "%CustomerSeq%\\cmrr_mbep2d_bold",
  "ReceiveCoilActiveElements": "HC1-7;NC1,2",
  "ReceiveCoilName": "HeadNeck_64",
  "ReconMatrixPE": 104,
  "RepetitionTime": 1.49,
  "SAR": 0.111882,
  "ScanOptions": "FS",
  "ScanningSequence": "EP",
  "SequenceName": "epfid2d1_104",
  "SequenceVariant": "SK\\SS",
  "SeriesDescription": "func_task-friends-s07e11a",
  "SeriesNumber": 12,
  "ShimSetting": [599, -7250, -8794, 657, 61, -35, -20, 38],
  "SliceThickness": 2,
  "SliceTiming": [0, 0.785, 0.1, 0.8825, 0.1975, 0.98, 0.295, 1.08, 0.3925, 1.1775, 0.49, 1.275, 0.59, 1.3725, 0.6875, 0, 0.785, 0.1, 0.8825, 0.1975, 0.98, 0.295, 1.08, 0.3925, 1.1775, 0.49, 1.275, 0.59, 1.3725, 0.6875, 0, 0.785, 0.1, 0.8825, 0.1975, 0.98, 0.295, 1.08, 0.3925, 1.1775, 0.49, 1.275, 0.59, 1.3725, 0.6875, 0, 0.785, 0.1, 0.8825, 0.1975, 0.98, 0.295, 1.08, 0.3925, 1.1775, 0.49, 1.275, 0.59, 1.3725, 0.6875],
  "SoftwareVersions": "syngo MR E11",
  "SpacingBetweenSlices": 2,
  "StationName": "MRC35049",
  "TaskName": "s07e11a",
  "TotalReadoutTime": 0.0576811,
  "TxRefAmp": 290.455,
  "WipMemBlock": "b7db281d-4164-4f86-9857-77b8810d7f45||Sequence: R017 ve11c/master r/75a17815+; Jun 28 2022 16:32:11 by eja",
  "dcmmeta_affine": [
    [-1.9993611574172974, -0.021636109799146652, -0.04567987471818924, 107.61925506591797],
    [-0.009722254239022732, 1.938370704650879, -0.492569237947464, -83.53307342529297],
    [-0.049600906670093536, 0.49218985438346863, 1.9378567934036255, -59.66671371459961],
    [0.0, 0.0, 0.0, 1.0]
],
  "dcmmeta_reorient_transform": [
    [0.0, -1.0, 0.0, 103.0],
    [1.0, 0.0, 0.0, 0.0],
    [0.0, 0.0, 1.0, 0.0],
    [0.0, 0.0, 0.0, 1.0]
],
  "dcmmeta_shape": [104, 104, 60, 464],
  "dcmmeta_slice_dim": 2,
  "dcmmeta_version": 0.6,
  "global": {
    "const": {
      "AcquisitionMatrix": [104, 0, 0, 104],
      "AngioFlag": "N",
      "BitsAllocated": 16,
      "BitsStored": 16,
      "BodyPartExamined": "BRAIN",
      "Columns": 832,
      "EchoNumbers": 1,
      "EchoTime": 37.0,
      "EchoTrainLength": 104,
      "FlipAngle": 52.0,
      "HighBit": 15,
      "ImageOrientationPatient": [0.99968060246283, 0.00486112731657, -0.0248004536404, -0.0108180544785, 0.96918535745804, -0.2460949259661],
      "ImagePositionPatient": [-825.28267070378, -825.22495078414, 188.24067635256],
      "ImageType": [
        "ORIGINAL",
        "PRIMARY",
        "M",
        "MB",
        "ND",
        "MOSAIC"
],
      "ImagedNucleus": "1H",
      "ImagingFrequency": 123.249415,
      "InPlanePhaseEncodingDirection": "COL",
      "MRAcquisitionType": "2D",
      "MagneticFieldStrength": 3.0,
      "Manufacturer": "SIEMENS",
      "ManufacturerModelName": "Prisma_fit",
      "Modality": "MR",
      "NumberOfAverages": 1.0,
      "NumberOfPhaseEncodingSteps": 104,
      "PercentPhaseFieldOfView": 100.0,
      "PercentSampling": 100.0,
      "PerformedProcedureStepStartTime": "140837.479000",
      "PhotometricInterpretation": "MONOCHROME2",
      "PixelBandwidth": 2290.0,
      "PixelRepresentation": 0,
      "PixelSpacing": [2.0, 2.0],
      "ProtocolName": "func_task-friends-s07e11a",
      "RepetitionTime": 1490.0,
      "Rows": 832,
      "SAR": 0.11188185330693,
      "SamplesPerPixel": 1,
      "ScanOptions": "FS",
      "ScanningSequence": "EP",
      "SequenceName": "epfid2d1_104",
      "SequenceVariant": [
        "SK",
        "SS"
],
      "SeriesDescription": "func_task-friends-s07e11a",
      "SeriesNumber": 12,
      "SeriesTime": "142742.560000",
      "SliceLocation": -39.697879904929,
      "SliceThickness": 2.0,
      "SmallestImagePixelValue": 0,
      "SoftwareVersions": "syngo MR E11",
      "SpacingBetweenSlices": 1.999999994677,
      "SpecificCharacterSet": "ISO_IR 100",
      "StudyID": "1",
      "StudyTime": "140837.384000",
      "TransmitCoilName": "Body",
      "VariableFlipAngleFlag": "N",
      "WindowCenterWidthExplanation": "Algo1",
      "dBdt": 0.0},
    "slices": {}
  },
  "time": {
    "samples": {
      "AcquisitionNumber": [1, 2, 3, 4, 5, 6, 7, 8, 9, 10, 11, 12, 13, 14, 15, 16, 17, 18, 19, 20, 21, 22, 23, 24, 25, 26, 27, 28, 29, 30, 31, 32, 33, 34, 35, 36, 37, 38, 39, 40, 41, 42, 43, 44, 45, 46, 47, 48, 49, 50, 51, 52, 53, 54, 55, 56, 57, 58, 59, 60, 61, 62, 63, 64, 65, 66, 67, 68, 69, 70, 71, 72, 73, 74, 75, 76, 77, 78, 79, 80, 81, 82, 83, 84, 85, 86, 87, 88, 89, 90, 91, 92, 93, 94, 95, 96, 97, 98, 99, 100, 101, 102, 103, 104, 105, 106, 107, 108, 109, 110, 111, 112, 113, 114, 115, 116, 117, 118, 119, 120, 121, 122, 123, 124, 125, 126, 127, 128, 129, 130, 131, 132, 133, 134, 135, 136, 137, 138, 139, 140, 141, 142, 143, 144, 145, 146, 147, 148, 149, 150, 151, 152, 153, 154, 155, 156, 157, 158, 159, 160, 161, 162, 163, 164, 165, 166, 167, 168, 169, 170, 171, 172, 173, 174, 175, 176, 177, 178, 179, 180, 181, 182, 183, 184, 185, 186, 187, 188, 189, 190, 191, 192, 193, 194, 195, 196, 197, 198, 199, 200, 201, 202, 203, 204, 205, 206, 207, 208, 209, 210, 211, 212, 213, 214, 215, 216, 217, 218, 219, 220, 221, 222, 223, 224, 225, 226, 227, 228, 229, 230, 231, 232, 233, 234, 235, 236, 237, 238, 239, 240, 241, 242, 243, 244, 245, 246, 247, 248, 249, 250, 251, 252, 253, 254, 255, 256, 257, 258, 259, 260, 261, 262, 263, 264, 265, 266, 267, 268, 269, 270, 271, 272, 273, 274, 275, 276, 277, 278, 279, 280, 281, 282, 283, 284, 285, 286, 287, 288, 289, 290, 291, 292, 293, 294, 295, 296, 297, 298, 299, 300, 301, 302, 303, 304, 305, 306, 307, 308, 309, 310, 311, 312, 313, 314, 315, 316, 317, 318, 319, 320, 321, 322, 323, 324, 325, 326, 327, 328, 329, 330, 331, 332, 333, 334, 335, 336, 337, 338, 339, 340, 341, 342, 343, 344, 345, 346, 347, 348, 349, 350, 351, 352, 353, 354, 355, 356, 357, 358, 359, 360, 361, 362, 363, 364, 365, 366, 367, 368, 369, 370, 371, 372, 373, 374, 375, 376, 377, 378, 379, 380, 381, 382, 383, 384, 385, 386, 387, 388, 389, 390, 391, 392, 393, 394, 395, 396, 397, 398, 399, 400, 401, 402, 403, 404, 405, 406, 407, 408, 409, 410, 411, 412, 413, 414, 415, 416, 417, 418, 419, 420, 421, 422, 423, 424, 425, 426, 427, 428, 429, 430, 431, 432, 433, 434, 435, 436, 437, 438, 439, 440, 441, 442, 443, 444, 445, 446, 447, 448, 449, 450, 451, 452, 453, 454, 455, 456, 457, 458, 459, 460, 461, 462, 463, 464],
      "AcquisitionTime": ["142628.087500", "142629.577500", "142631.067500", "142632.557500", "142634.047500", "142635.537500", "142637.027500", "142638.517500", "142640.007500", "142641.497500", "142642.987500", "142644.477500", "142645.967500", "142647.457500", "142648.947500", "142650.437500", "142651.927500", "142653.417500", "142654.907500", "142656.397500", "142657.887500", "142659.377500", "142700.867500", "142702.357500", "142703.847500", "142705.337500", "142706.827500", "142708.317500", "142709.807500", "142711.297500", "142712.787500", "142714.277500", "142715.767500", "142717.257500", "142718.747500", "142720.237500", "142721.727500", "142723.217500", "142724.707500", "142726.197500", "142727.687500", "142729.177500", "142730.667500", "142732.157500", "142733.647500", "142735.137500", "142736.627500", "142738.117500", "142739.607500", "142741.097500", "142742.587500", "142744.077500", "142745.567500", "142747.057500", "142748.547500", "142750.037500", "142751.527500", "142753.017500", "142754.507500", "142755.997500", "142757.487500", "142758.977500", "142800.467500", "142801.957500", "142803.447500", "142804.937500", "142806.427500", "142807.917500", "142809.407500", "142810.897500", "142812.387500", "142813.877500", "142815.367500", "142816.857500", "142818.347500", "142819.837500", "142821.327500", "142822.817500", "142824.307500", "142825.797500", "142827.287500", "142828.777500", "142830.267500", "142831.757500", "142833.247500", "142834.737500", "142836.227500", "142837.717500", "142839.207500", "142840.697500", "142842.187500", "142843.677500", "142845.167500", "142846.657500", "142848.147500", "142849.637500", "142851.127500", "142852.617500", "142854.107500", "142855.597500", "142857.087500", "142858.577500", "142900.067500", "142901.557500", "142903.047500", "142904.537500", "142906.027500", "142907.517500", "142909.007500", "142910.497500", "142911.987500", "142913.477500", "142914.967500", "142916.457500", "142917.947500", "142919.437500", "142920.927500", "142922.417500", "142923.907500", "142925.397500", "142926.887500", "142928.377500", "142929.867500", "142931.357500", "142932.847500", "142934.337500", "142935.827500", "142937.317500", "142938.807500", "142940.297500", "142941.787500", "142943.277500", "142944.767500", "142946.257500", "142947.747500", "142949.237500", "142950.727500", "142952.217500", "142953.707500", "142955.197500", "142956.687500", "142958.177500", "142959.667500", "143001.157500", "143002.647500", "143004.137500", "143005.627500", "143007.117500", "143008.607500", "143010.097500", "143011.587500", "143013.077500", "143014.567500", "143016.057500", "143017.547500", "143019.037500", "143020.527500", "143022.017500", "143023.507500", "143024.997500", "143026.487500", "143027.977500", "143029.467500", "143030.957500", "143032.447500", "143033.937500", "143035.427500", "143036.917500", "143038.407500", "143039.897500", "143041.387500", "143042.877500", "143044.367500", "143045.857500", "143047.347500", "143048.837500", "143050.327500", "143051.817500", "143053.307500", "143054.797500", "143056.287500", "143057.777500", "143059.267500", "143100.757500", "143102.247500", "143103.737500", "143105.227500", "143106.717500", "143108.207500", "143109.697500", "143111.187500", "143112.677500", "143114.167500", "143115.657500", "143117.147500", "143118.637500", "143120.127500", "143121.617500", "143123.107500", "143124.597500", "143126.087500", "143127.577500", "143129.067500", "143130.557500", "143132.047500", "143133.537500", "143135.027500", "143136.517500", "143138.007500", "143139.497500", "143140.987500", "143142.477500", "143143.967500", "143145.457500", "143146.947500", "143148.437500", "143149.927500", "143151.417500", "143152.907500", "143154.397500", "143155.887500", "143157.377500", "143158.867500", "143200.357500", "143201.847500", "143203.337500", "143204.827500", "143206.317500", "143207.807500", "143209.297500", "143210.787500", "143212.277500", "143213.767500", "143215.257500", "143216.747500", "143218.237500", "143219.727500", "143221.217500", "143222.707500", "143224.197500", "143225.687500", "143227.177500", "143228.667500", "143230.157500", "143231.647500", "143233.137500", "143234.627500", "143236.117500", "143237.607500", "143239.097500", "143240.587500", "143242.077500", "143243.567500", "143245.057500", "143246.547500", "143248.037500", "143249.527500", "143251.017500", "143252.507500", "143253.997500", "143255.487500", "143256.977500", "143258.467500", "143259.957500", "143301.447500", "143302.937500", "143304.427500", "143305.917500", "143307.407500", "143308.897500", "143310.387500", "143311.877500", "143313.367500", "143314.857500", "143316.347500", "143317.837500", "143319.327500", "143320.817500", "143322.307500", "143323.797500", "143325.287500", "143326.777500", "143328.267500", "143329.757500", "143331.247500", "143332.737500", "143334.227500", "143335.717500", "143337.207500", "143338.697500", "143340.187500", "143341.677500", "143343.167500", "143344.657500", "143346.147500", "143347.637500", "143349.127500", "143350.617500", "143352.107500", "143353.597500", "143355.087500", "143356.577500", "143358.067500", "143359.557500", "143401.047500", "143402.537500", "143404.027500", "143405.517500", "143407.007500", "143408.497500", "143409.987500", "143411.477500", "143412.967500", "143414.457500", "143415.947500", "143417.437500", "143418.927500", "143420.417500", "143421.907500", "143423.397500", "143424.887500", "143426.377500", "143427.867500", "143429.357500", "143430.847500", "143432.337500", "143433.827500", "143435.317500", "143436.807500", "143438.297500", "143439.787500", "143441.277500", "143442.767500", "143444.257500", "143445.747500", "143447.237500", "143448.727500", "143450.217500", "143451.707500", "143453.197500", "143454.687500", "143456.177500", "143457.667500", "143459.157500", "143500.647500", "143502.137500", "143503.627500", "143505.117500", "143506.607500", "143508.097500", "143509.587500", "143511.077500", "143512.567500", "143514.057500", "143515.547500", "143517.037500", "143518.527500", "143520.017500", "143521.507500", "143522.997500", "143524.487500", "143525.977500", "143527.467500", "143528.957500", "143530.447500", "143531.937500", "143533.427500", "143534.917500", "143536.407500", "143537.897500", "143539.387500", "143540.877500", "143542.367500", "143543.857500", "143545.347500", "143546.837500", "143548.327500", "143549.817500", "143551.307500", "143552.797500", "143554.287500", "143555.777500", "143557.267500", "143558.757500", "143600.247500", "143601.737500", "143603.227500", "143604.717500", "143606.207500", "143607.697500", "143609.187500", "143610.677500", "143612.167500", "143613.657500", "143615.147500", "143616.637500", "143618.127500", "143619.617500", "143621.107500", "143622.597500", "143624.087500", "143625.577500", "143627.067500", "143628.557500", "143630.047500", "143631.537500", "143633.027500", "143634.517500", "143636.007500", "143637.497500", "143638.987500", "143640.477500", "143641.967500", "143643.457500", "143644.947500", "143646.437500", "143647.927500", "143649.417500", "143650.907500", "143652.397500", "143653.887500", "143655.377500", "143656.867500", "143658.357500", "143659.847500", "143701.337500", "143702.827500", "143704.317500", "143705.807500", "143707.297500", "143708.787500", "143710.277500", "143711.767500", "143713.257500", "143714.747500", "143716.237500", "143717.727500", "143719.217500", "143720.707500", "143722.197500", "143723.687500", "143725.177500", "143726.667500", "143728.157500", "143729.647500", "143731.137500", "143732.627500", "143734.117500", "143735.607500", "143737.097500", "143738.587500", "143740.077500", "143741.567500", "143743.057500", "143744.547500", "143746.037500", "143747.527500", "143749.017500", "143750.507500", "143751.997500", "143753.487500", "143754.977500", "143756.467500", "143757.957500"],
      "ContentTime": ["142742.563000", "142742.566000", "142742.569000", "142742.572000", "142742.575000", "142742.578000", "142742.581000", "142742.584000", "142742.587000", "142742.590000", "142742.593000", "142742.595000", "142742.598000", "142742.601000", "142742.604000", "142742.607000", "142742.610000", "142742.613000", "142742.616000", "142742.618000", "142742.621000", "142742.624000", "142742.627000", "142742.630000", "142742.633000", "142742.636000", "142742.639000", "142802.532000", "142802.535000", "142802.538000", "142802.541000", "142802.548000", "142802.551000", "142802.553000", "142802.556000", "142802.559000", "142802.562000", "142802.565000", "142802.568000", "142802.571000", "142802.574000", "142802.576000", "142802.579000", "142802.582000", "142802.585000", "142802.588000", "142802.591000", "142822.531000", "142822.534000", "142822.537000", "142822.540000", "142822.543000", "142822.545000", "142822.548000", "142822.558000", "142822.561000", "142822.564000", "142822.567000", "142822.570000", "142822.573000", "142822.576000", "142822.578000", "142822.581000", "142822.584000", "142822.587000", "142822.590000", "142822.593000", "142842.531000", "142842.534000", "142842.537000", "142842.540000", "142842.543000", "142842.545000", "142842.548000", "142842.551000", "142842.554000", "142842.557000", "142842.560000", "142842.563000", "142842.566000", "142842.569000", "142842.571000", "142842.574000", "142842.577000", "142842.580000", "142842.589000", "142842.592000", "142922.532000", "142922.541000", "142922.544000", "142922.547000", "142922.550000", "142922.553000", "142922.556000", "142922.558000", "142922.561000", "142922.564000", "142922.567000", "142922.570000", "142922.573000", "142922.576000", "142922.579000", "142922.582000", "142922.584000", "142922.587000", "142922.590000", "142922.593000", "142922.596000", "142922.599000", "142922.602000", "142922.605000", "142922.608000", "142922.610000", "142922.614000", "142922.616000", "142922.619000", "143002.532000", "143002.535000", "143002.538000", "143002.541000", "143002.544000", "143002.547000", "143002.550000", "143002.553000", "143002.556000", "143002.559000", "143002.562000", "143002.564000", "143002.567000", "143002.570000", "143002.573000", "143002.576000", "143002.579000", "143002.582000", "143002.585000", "143002.588000", "143002.590000", "143002.593000", "143002.596000", "143002.599000", "143002.602000", "143002.605000", "143002.608000", "143042.531000", "143042.534000", "143042.537000", "143042.540000", "143042.543000", "143042.546000", "143042.548000", "143042.551000", "143042.554000", "143042.557000", "143042.560000", "143042.563000", "143042.566000", "143042.569000", "143042.572000", "143042.575000", "143042.577000", "143042.595000", "143042.597000", "143042.600000", "143042.603000", "143042.606000", "143042.609000", "143042.612000", "143042.615000", "143042.618000", "143042.620000", "143122.532000", "143122.535000", "143122.538000", "143122.541000", "143122.544000", "143122.547000", "143122.550000", "143122.552000", "143122.555000", "143122.558000", "143122.561000", "143122.564000", "143122.567000", "143122.570000", "143122.573000", "143122.576000", "143122.578000", "143122.581000", "143122.584000", "143122.587000", "143122.590000", "143122.593000", "143122.596000", "143122.599000", "143122.602000", "143122.605000", "143122.607000", "143202.532000", "143202.535000", "143202.538000", "143202.541000", "143202.545000", "143202.548000", "143202.551000", "143202.554000", "143202.557000", "143202.560000", "143202.566000", "143202.569000", "143202.572000", "143202.575000", "143202.578000", "143202.581000", "143202.584000", "143202.587000", "143202.589000", "143202.592000", "143202.595000", "143202.598000", "143202.601000", "143202.604000", "143202.607000", "143202.610000", "143242.532000", "143242.535000", "143242.538000", "143242.541000", "143242.544000", "143242.547000", "143242.550000", "143242.552000", "143242.555000", "143242.558000", "143242.561000", "143242.564000", "143242.567000", "143242.570000", "143242.573000", "143242.576000", "143242.579000", "143242.582000", "143242.585000", "143242.587000", "143242.590000", "143242.593000", "143242.596000", "143242.599000", "143242.602000", "143242.605000", "143242.608000", "143322.531000", "143322.534000", "143322.537000", "143322.540000", "143322.544000", "143322.547000", "143322.550000", "143322.553000", "143322.556000", "143322.559000", "143322.562000", "143322.564000", "143322.567000", "143322.570000", "143322.573000", "143322.576000", "143322.579000", "143322.582000", "143322.585000", "143322.588000", "143322.591000", "143322.594000", "143322.597000", "143322.600000", "143322.603000", "143322.606000", "143322.608000", "143402.532000", "143402.535000", "143402.538000", "143402.541000", "143402.544000", "143402.547000", "143402.550000", "143402.552000", "143402.555000", "143402.558000", "143402.561000", "143402.564000", "143402.567000", "143402.570000", "143402.573000", "143402.576000", "143402.579000", "143402.582000", "143402.585000", "143402.588000", "143402.596000", "143402.599000", "143402.602000", "143402.605000", "143402.608000", "143402.611000", "143402.614000", "143442.532000", "143442.535000", "143442.538000", "143442.541000", "143442.544000", "143442.547000", "143442.550000", "143442.553000", "143442.556000", "143442.559000", "143442.561000", "143442.564000", "143442.567000", "143442.570000", "143442.573000", "143442.576000", "143442.579000", "143442.582000", "143442.585000", "143442.587000", "143442.590000", "143442.593000", "143442.596000", "143442.605000", "143442.608000", "143442.610000", "143442.613000", "143522.531000", "143522.534000", "143522.537000", "143522.540000", "143522.543000", "143522.546000", "143522.549000", "143522.551000", "143522.554000", "143522.557000", "143522.560000", "143522.563000", "143522.566000", "143522.569000", "143522.572000", "143522.575000", "143522.578000", "143522.593000", "143522.596000", "143522.599000", "143522.601000", "143522.604000", "143522.607000", "143522.610000", "143522.613000", "143522.616000", "143522.619000", "143602.532000", "143602.535000", "143602.538000", "143602.541000", "143602.544000", "143602.547000", "143602.550000", "143602.553000", "143602.556000", "143602.559000", "143602.562000", "143602.565000", "143602.567000", "143602.570000", "143602.573000", "143602.576000", "143602.579000", "143602.582000", "143602.585000", "143602.588000", "143602.591000", "143602.593000", "143602.596000", "143602.599000", "143602.602000", "143602.605000", "143642.532000", "143642.535000", "143642.538000", "143642.541000", "143642.544000", "143642.547000", "143642.550000", "143642.553000", "143642.556000", "143642.558000", "143642.561000", "143642.564000", "143642.567000", "143642.570000", "143642.573000", "143642.576000", "143642.579000", "143642.582000", "143642.584000", "143642.587000", "143642.590000", "143642.593000", "143642.596000", "143642.599000", "143642.602000", "143642.605000", "143642.608000", "143722.532000", "143722.535000", "143722.538000", "143722.541000", "143722.544000", "143722.547000", "143722.550000", "143722.552000", "143722.555000", "143722.558000", "143722.561000", "143722.564000", "143722.567000", "143722.570000", "143722.573000", "143722.576000", "143722.579000", "143722.582000", "143722.585000", "143722.588000", "143722.590000", "143722.593000", "143722.596000", "143722.599000", "143722.602000", "143722.605000", "143722.608000", "143800.298000", "143800.301000", "143800.304000", "143800.307000", "143800.310000", "143800.313000", "143800.316000", "143800.319000", "143800.322000", "143800.325000", "143800.328000", "143800.331000", "143800.334000", "143800.337000", "143800.340000", "143800.343000", "143800.346000", "143800.349000", "143800.352000", "143800.355000", "143800.358000", "143800.361000", "143800.364000", "143800.367000", "143800.370000", "143800.373000"],
