{
  "AcquisitionMatrixPE": 104,
  "AcquisitionNumber": 1,
  "AcquisitionTime": "13:26:0.317500",
  "BandwidthPerPixelPhaseEncode": 17.17,
  "BaseResolution": 104,
  "BodyPartExamined": "BRAIN",
  "CoilString": "HC1-7;NC1_2",
  "ConsistencyInfo": "N4_VE11C_LATEST_20160120",
  "ConversionSoftware": "dcm2niix",
  "ConversionSoftwareVersion": "v1.0.20190902",
  "DerivedVendorReportedEchoSpacing": 0.000560011,
  "DeviceSerialNumber": "167006",
  "DwellTime": 2.1e-06,
  "EchoTime": 0.037,
  "EchoTrainLength": 104,
  "EffectiveEchoSpacing": 0.000560011,
  "FlipAngle": 52,
  "ImageComments": "Unaliased_MB4_PE3_LB",
  "ImageOrientationPatientDICOM": [0.999973, 0.00636232, 0.00359197, -0.00506135, 0.957783, -0.287448],
  "ImageType": [
    "ORIGINAL",
    "PRIMARY",
    "M",
    "MB",
    "ND",
    "MOSAIC"
],
  "ImagingFrequency": 123.259,
  "InPlanePhaseEncodingDirectionDICOM": "COL",
  "InstitutionAddress": "Chemin_Queen-Mary_4565_Montreal_District_CA_H3W_1W5",
  "InstitutionName": "IUGM",
  "InstitutionalDepartmentName": "Department",
  "MRAcquisitionType": "2D",
  "MagneticFieldStrength": 3,
  "Manufacturer": "Siemens",
  "ManufacturersModelName": "Prisma_fit",
  "Modality": "MR",
  "MultibandAccelerationFactor": 4,
  "PartialFourier": 1,
  "PatientPosition": "HFS",
  "PercentPhaseFOV": 100,
  "PhaseEncodingDirection": "j",
  "PhaseEncodingSteps": 104,
  "PhaseResolution": 1,
  "PixelBandwidth": 2290,
  "ProcedureStepDescription": "video_friends",
  "ProtocolName": "func_task-friends-s04e16b",
  "PulseSequenceDetails": "%CustomerSeq%_cmrr_mbep2d_bold",
  "ReceiveCoilActiveElements": "HC1-7;NC1,2",
  "ReceiveCoilName": "HeadNeck_64",
  "ReconMatrixPE": 104,
  "RepetitionTime": 1.49,
  "SAR": 0.02847,
  "ScanOptions": "FS",
  "ScanningSequence": "EP",
  "SequenceName": "epfid2d1_104",
  "SequenceVariant": "SK_SS",
  "SeriesDescription": "func_task-friends-s04e16b",
  "SeriesNumber": 11,
  "ShimSetting": [639, -7209, -8807, 714, 41, 28, 95, -19],
  "SliceThickness": 2,
  "SliceTiming": [0, 0.785, 0.1, 0.8825, 0.1975, 0.98, 0.295, 1.08, 0.3925, 1.1775, 0.49, 1.275, 0.59, 1.3725, 0.6875, 0, 0.785, 0.1, 0.8825, 0.1975, 0.98, 0.295, 1.08, 0.3925, 1.1775, 0.49, 1.275, 0.59, 1.3725, 0.6875, 0, 0.785, 0.1, 0.8825, 0.1975, 0.98, 0.295, 1.08, 0.3925, 1.1775, 0.49, 1.275, 0.59, 1.3725, 0.6875, 0, 0.785, 0.1, 0.8825, 0.1975, 0.98, 0.295, 1.08, 0.3925, 1.1775, 0.49, 1.275, 0.59, 1.3725, 0.6875],
  "SoftwareVersions": "syngo_MR_E11",
  "SpacingBetweenSlices": 2,
  "StationName": "MRC35049",
  "TaskName": "s04e16b",
  "TotalReadoutTime": 0.0576811,
  "TxRefAmp": 205.968,
  "WipMemBlock": "d447df31-87c6-4b94-80b2-447b97f724eb||Sequence: R016 ve11c/master r/e634e98; Dec 19 2017 11:00:25 by eja",
  "dcmmeta_affine": [
    [-1.9999465942382812, -0.010122707113623619, 0.010538322851061821, 105.44522857666016],
    [-0.012724638916552067, 1.9155659675598145, -0.5748434066772461, -80.14727020263672],
    [0.00718394061550498, 0.5748951435089111, 1.9155791997909546, -66.36995697021484],
    [0.0, 0.0, 0.0, 1.0]
],
  "dcmmeta_reorient_transform": [
    [0.0, -1.0, 0.0, 103.0],
    [1.0, 0.0, 0.0, 0.0],
    [0.0, 0.0, 1.0, 0.0],
    [0.0, 0.0, 0.0, 1.0]
],
  "dcmmeta_shape": [104, 104, 60, 487],
  "dcmmeta_slice_dim": 2,
  "dcmmeta_version": 0.6,
  "global": {
    "const": {
      "AcquisitionMatrix": [104, 0, 0, 104],
      "AngioFlag": "N",
      "BitsAllocated": 16,
      "BitsStored": 16,
      "BodyPartExamined": "BRAIN",
      "Columns": 832,
      "EchoNumbers": 1,
      "EchoTime": 37.0,
      "EchoTrainLength": 104,
      "FlipAngle": 52.0,
      "HighBit": 15,
      "ImageOrientationPatient": [0.99997330896356, 0.00636231948882, 0.0035919703775, -0.0050613534112, 0.95778300224888, -0.2874475661834],
      "ImagePositionPatient": [-828.69849570777, -819.05382017661, 199.49111315682],
      "ImageType": [
        "ORIGINAL",
        "PRIMARY",
        "M",
        "MB",
        "ND",
        "MOSAIC"
],
      "ImagedNucleus": "1H",
      "ImagingFrequency": 123.259061,
      "InPlanePhaseEncodingDirection": "COL",
      "MRAcquisitionType": "2D",
      "MagneticFieldStrength": 3.0,
      "Manufacturer": "SIEMENS",
      "ManufacturerModelName": "Prisma_fit",
      "Modality": "MR",
      "NumberOfAverages": 1.0,
      "NumberOfPhaseEncodingSteps": 104,
      "PercentPhaseFieldOfView": 100.0,
      "PercentSampling": 100.0,
      "PerformedProcedureStepStartTime": "124849.728000",
      "PhotometricInterpretation": "MONOCHROME2",
      "PixelBandwidth": 2290.0,
      "PixelRepresentation": 0,
      "PixelSpacing": [2.0, 2.0],
      "ProtocolName": "func_task-friends-s04e16b",
      "RepetitionTime": 1490.0,
      "Rows": 832,
      "SAR": 0.02846999557849,
      "SamplesPerPixel": 1,
      "ScanOptions": "FS",
      "ScanningSequence": "EP",
      "SequenceName": "epfid2d1_104",
      "SequenceVariant": [
        "SK",
        "SS"
],
      "SeriesDescription": "func_task-friends-s04e16b",
      "SeriesNumber": 11,
      "SeriesTime": "132716.576000",
      "SliceLocation": -39.97678499517,
      "SliceThickness": 2.0,
      "SmallestImagePixelValue": 0,
      "SoftwareVersions": "syngo MR E11",
      "SpacingBetweenSlices": 1.9999999200312,
      "SpecificCharacterSet": "ISO_IR 100",
      "StudyID": "1",
      "StudyTime": "124849.602000",
      "TransmitCoilName": "Body",
      "VariableFlipAngleFlag": "N",
      "WindowCenterWidthExplanation": "Algo1",
      "dBdt": 0.0},
    "slices": {}
  },
  "time": {
    "samples": {
      "AcquisitionNumber": [1, 2, 3, 4, 5, 6, 7, 8, 9, 10, 11, 12, 13, 14, 15, 16, 17, 18, 19, 20, 21, 22, 23, 24, 25, 26, 27, 28, 29, 30, 31, 32, 33, 34, 35, 36, 37, 38, 39, 40, 41, 42, 43, 44, 45, 46, 47, 48, 49, 50, 51, 52, 53, 54, 55, 56, 57, 58, 59, 60, 61, 62, 63, 64, 65, 66, 67, 68, 69, 70, 71, 72, 73, 74, 75, 76, 77, 78, 79, 80, 81, 82, 83, 84, 85, 86, 87, 88, 89, 90, 91, 92, 93, 94, 95, 96, 97, 98, 99, 100, 101, 102, 103, 104, 105, 106, 107, 108, 109, 110, 111, 112, 113, 114, 115, 116, 117, 118, 119, 120, 121, 122, 123, 124, 125, 126, 127, 128, 129, 130, 131, 132, 133, 134, 135, 136, 137, 138, 139, 140, 141, 142, 143, 144, 145, 146, 147, 148, 149, 150, 151, 152, 153, 154, 155, 156, 157, 158, 159, 160, 161, 162, 163, 164, 165, 166, 167, 168, 169, 170, 171, 172, 173, 174, 175, 176, 177, 178, 179, 180, 181, 182, 183, 184, 185, 186, 187, 188, 189, 190, 191, 192, 193, 194, 195, 196, 197, 198, 199, 200, 201, 202, 203, 204, 205, 206, 207, 208, 209, 210, 211, 212, 213, 214, 215, 216, 217, 218, 219, 220, 221, 222, 223, 224, 225, 226, 227, 228, 229, 230, 231, 232, 233, 234, 235, 236, 237, 238, 239, 240, 241, 242, 243, 244, 245, 246, 247, 248, 249, 250, 251, 252, 253, 254, 255, 256, 257, 258, 259, 260, 261, 262, 263, 264, 265, 266, 267, 268, 269, 270, 271, 272, 273, 274, 275, 276, 277, 278, 279, 280, 281, 282, 283, 284, 285, 286, 287, 288, 289, 290, 291, 292, 293, 294, 295, 296, 297, 298, 299, 300, 301, 302, 303, 304, 305, 306, 307, 308, 309, 310, 311, 312, 313, 314, 315, 316, 317, 318, 319, 320, 321, 322, 323, 324, 325, 326, 327, 328, 329, 330, 331, 332, 333, 334, 335, 336, 337, 338, 339, 340, 341, 342, 343, 344, 345, 346, 347, 348, 349, 350, 351, 352, 353, 354, 355, 356, 357, 358, 359, 360, 361, 362, 363, 364, 365, 366, 367, 368, 369, 370, 371, 372, 373, 374, 375, 376, 377, 378, 379, 380, 381, 382, 383, 384, 385, 386, 387, 388, 389, 390, 391, 392, 393, 394, 395, 396, 397, 398, 399, 400, 401, 402, 403, 404, 405, 406, 407, 408, 409, 410, 411, 412, 413, 414, 415, 416, 417, 418, 419, 420, 421, 422, 423, 424, 425, 426, 427, 428, 429, 430, 431, 432, 433, 434, 435, 436, 437, 438, 439, 440, 441, 442, 443, 444, 445, 446, 447, 448, 449, 450, 451, 452, 453, 454, 455, 456, 457, 458, 459, 460, 461, 462, 463, 464, 465, 466, 467, 468, 469, 470, 471, 472, 473, 474, 475, 476, 477, 478, 479, 480, 481, 482, 483, 484, 485, 486, 487],
      "AcquisitionTime": ["132600.317500", "132601.807500", "132603.297500", "132604.787500", "132606.277500", "132607.767500", "132609.257500", "132610.747500", "132612.237500", "132613.727500", "132615.217500", "132616.707500", "132618.197500", "132619.687500", "132621.177500", "132622.667500", "132624.157500", "132625.647500", "132627.137500", "132628.627500", "132630.117500", "132631.607500", "132633.097500", "132634.587500", "132636.077500", "132637.567500", "132639.057500", "132640.547500", "132642.037500", "132643.527500", "132645.017500", "132646.507500", "132647.997500", "132649.487500", "132650.977500", "132652.467500", "132653.957500", "132655.447500", "132656.937500", "132658.427500", "132659.917500", "132701.407500", "132702.897500", "132704.387500", "132705.877500", "132707.367500", "132708.857500", "132710.347500", "132711.837500", "132713.327500", "132714.817500", "132716.307500", "132717.797500", "132719.287500", "132720.777500", "132722.267500", "132723.757500", "132725.247500", "132726.737500", "132728.227500", "132729.717500", "132731.207500", "132732.697500", "132734.187500", "132735.677500", "132737.167500", "132738.657500", "132740.147500", "132741.637500", "132743.127500", "132744.617500", "132746.107500", "132747.597500", "132749.087500", "132750.577500", "132752.067500", "132753.557500", "132755.047500", "132756.537500", "132758.027500", "132759.517500", "132801.007500", "132802.497500", "132803.987500", "132805.477500", "132806.967500", "132808.457500", "132809.947500", "132811.437500", "132812.927500", "132814.417500", "132815.907500", "132817.397500", "132818.887500", "132820.377500", "132821.867500", "132823.357500", "132824.847500", "132826.337500", "132827.827500", "132829.317500", "132830.807500", "132832.297500", "132833.787500", "132835.277500", "132836.767500", "132838.257500", "132839.747500", "132841.237500", "132842.727500", "132844.217500", "132845.707500", "132847.197500", "132848.687500", "132850.177500", "132851.667500", "132853.157500", "132854.647500", "132856.137500", "132857.627500", "132859.117500", "132900.607500", "132902.097500", "132903.587500", "132905.077500", "132906.567500", "132908.057500", "132909.547500", "132911.037500", "132912.527500", "132914.017500", "132915.507500", "132916.997500", "132918.487500", "132919.977500", "132921.467500", "132922.957500", "132924.447500", "132925.937500", "132927.427500", "132928.917500", "132930.407500", "132931.897500", "132933.387500", "132934.877500", "132936.367500", "132937.857500", "132939.347500", "132940.837500", "132942.327500", "132943.817500", "132945.307500", "132946.797500", "132948.287500", "132949.777500", "132951.267500", "132952.757500", "132954.247500", "132955.737500", "132957.227500", "132958.717500", "133000.207500", "133001.697500", "133003.187500", "133004.677500", "133006.167500", "133007.657500", "133009.147500", "133010.637500", "133012.127500", "133013.617500", "133015.107500", "133016.597500", "133018.087500", "133019.577500", "133021.067500", "133022.557500", "133024.047500", "133025.537500", "133027.027500", "133028.517500", "133030.007500", "133031.497500", "133032.987500", "133034.477500", "133035.967500", "133037.457500", "133038.947500", "133040.437500", "133041.927500", "133043.417500", "133044.907500", "133046.397500", "133047.887500", "133049.377500", "133050.867500", "133052.357500", "133053.847500", "133055.337500", "133056.827500", "133058.317500", "133059.807500", "133101.297500", "133102.787500", "133104.277500", "133105.767500", "133107.257500", "133108.747500", "133110.237500", "133111.727500", "133113.217500", "133114.707500", "133116.197500", "133117.687500", "133119.177500", "133120.667500", "133122.157500", "133123.647500", "133125.137500", "133126.627500", "133128.117500", "133129.607500", "133131.097500", "133132.587500", "133134.077500", "133135.567500", "133137.057500", "133138.547500", "133140.037500", "133141.527500", "133143.017500", "133144.507500", "133145.997500", "133147.487500", "133148.977500", "133150.467500", "133151.957500", "133153.447500", "133154.937500", "133156.427500", "133157.917500", "133159.407500", "133200.897500", "133202.387500", "133203.877500", "133205.367500", "133206.857500", "133208.347500", "133209.837500", "133211.327500", "133212.817500", "133214.307500", "133215.797500", "133217.287500", "133218.777500", "133220.267500", "133221.757500", "133223.247500", "133224.737500", "133226.227500", "133227.717500", "133229.207500", "133230.697500", "133232.187500", "133233.677500", "133235.167500", "133236.657500", "133238.147500", "133239.637500", "133241.127500", "133242.617500", "133244.107500", "133245.597500", "133247.087500", "133248.577500", "133250.067500", "133251.557500", "133253.047500", "133254.537500", "133256.027500", "133257.517500", "133259.007500", "133300.497500", "133301.987500", "133303.477500", "133304.967500", "133306.457500", "133307.947500", "133309.437500", "133310.927500", "133312.417500", "133313.907500", "133315.397500", "133316.887500", "133318.377500", "133319.867500", "133321.357500", "133322.847500", "133324.337500", "133325.827500", "133327.317500", "133328.807500", "133330.297500", "133331.787500", "133333.277500", "133334.767500", "133336.257500", "133337.747500", "133339.237500", "133340.727500", "133342.217500", "133343.707500", "133345.197500", "133346.687500", "133348.177500", "133349.667500", "133351.157500", "133352.647500", "133354.137500", "133355.627500", "133357.117500", "133358.607500", "133400.097500", "133401.587500", "133403.077500", "133404.567500", "133406.057500", "133407.547500", "133409.037500", "133410.527500", "133412.017500", "133413.507500", "133414.997500", "133416.487500", "133417.977500", "133419.467500", "133420.957500", "133422.447500", "133423.937500", "133425.427500", "133426.917500", "133428.407500", "133429.897500", "133431.387500", "133432.877500", "133434.367500", "133435.857500", "133437.347500", "133438.837500", "133440.327500", "133441.817500", "133443.307500", "133444.797500", "133446.287500", "133447.777500", "133449.267500", "133450.757500", "133452.247500", "133453.737500", "133455.227500", "133456.717500", "133458.207500", "133459.697500", "133501.187500", "133502.677500", "133504.167500", "133505.657500", "133507.147500", "133508.637500", "133510.127500", "133511.617500", "133513.107500", "133514.597500", "133516.087500", "133517.577500", "133519.067500", "133520.557500", "133522.047500", "133523.537500", "133525.027500", "133526.517500", "133528.007500", "133529.497500", "133530.987500", "133532.477500", "133533.967500", "133535.457500", "133536.947500", "133538.437500", "133539.927500", "133541.417500", "133542.907500", "133544.397500", "133545.887500", "133547.377500", "133548.867500", "133550.357500", "133551.847500", "133553.337500", "133554.827500", "133556.317500", "133557.807500", "133559.297500", "133600.787500", "133602.277500", "133603.767500", "133605.257500", "133606.747500", "133608.237500", "133609.727500", "133611.217500", "133612.707500", "133614.197500", "133615.687500", "133617.177500", "133618.667500", "133620.157500", "133621.647500", "133623.137500", "133624.627500", "133626.117500", "133627.607500", "133629.097500", "133630.587500", "133632.077500", "133633.567500", "133635.057500", "133636.547500", "133638.037500", "133639.527500", "133641.017500", "133642.507500", "133643.997500", "133645.487500", "133646.977500", "133648.467500", "133649.957500", "133651.447500", "133652.937500", "133654.427500", "133655.917500", "133657.407500", "133658.897500", "133700.387500", "133701.877500", "133703.367500", "133704.857500", "133706.347500", "133707.837500", "133709.327500", "133710.817500", "133712.307500", "133713.797500", "133715.287500", "133716.777500", "133718.267500", "133719.757500", "133721.247500", "133722.737500", "133724.227500", "133725.717500", "133727.207500", "133728.697500", "133730.187500", "133731.677500", "133733.167500", "133734.657500", "133736.147500", "133737.637500", "133739.127500", "133740.617500", "133742.107500", "133743.597500", "133745.087500", "133746.577500", "133748.067500", "133749.557500", "133751.047500", "133752.537500", "133754.027500", "133755.517500", "133757.007500", "133758.497500", "133759.987500", "133801.477500", "133802.967500", "133804.457500"],
      "ContentTime": ["132716.578000", "132716.582000", "132716.584000", "132716.587000", "132716.590000", "132716.593000", "132716.596000", "132716.599000", "132716.602000", "132716.605000", "132716.615000", "132716.618000", "132716.627000", "132716.630000", "132716.636000", "132716.638000", "132716.641000", "132716.644000", "132716.647000", "132716.650000", "132716.653000", "132736.577000", "132736.580000", "132736.583000", "132736.586000", "132736.589000", "132736.591000", "132736.595000", "132736.597000", "132736.600000", "132736.603000", "132736.606000", "132736.609000", "132736.612000", "132736.615000", "132736.618000", "132736.621000", "132736.623000", "132736.626000", "132736.629000", "132736.632000", "132756.578000", "132756.581000", "132756.584000", "132756.587000", "132756.590000", "132756.592000", "132756.595000", "132756.598000", "132756.601000", "132756.604000", "132756.607000", "132756.610000", "132756.613000", "132756.616000", "132756.619000", "132756.622000", "132756.624000", "132756.627000", "132756.630000", "132756.633000", "132816.578000", "132816.581000", "132816.584000", "132816.587000", "132816.590000", "132816.592000", "132816.595000", "132816.598000", "132816.601000", "132816.604000", "132816.607000", "132816.610000", "132816.613000", "132816.616000", "132816.619000", "132816.622000", "132816.634000", "132816.637000", "132816.640000", "132816.642000", "132836.578000", "132836.581000", "132836.584000", "132836.587000", "132836.589000", "132836.592000", "132836.595000", "132836.598000", "132836.601000", "132836.604000", "132836.607000", "132836.609000", "132836.612000", "132836.615000", "132836.618000", "132836.621000", "132836.624000", "132836.626000", "132836.629000", "132836.632000", "132836.635000", "132916.577000", "132916.580000", "132916.583000", "132916.586000", "132916.588000", "132916.591000", "132916.594000", "132916.597000", "132916.600000", "132916.603000", "132916.606000", "132916.608000", "132916.611000", "132916.614000", "132916.629000", "132916.632000", "132916.635000", "132916.638000", "132916.641000", "132916.644000", "132916.647000", "132916.649000", "132916.652000", "132916.655000", "132916.658000", "132916.661000", "132916.664000", "132916.667000", "132916.669000", "132956.577000", "132956.580000", "132956.583000", "132956.586000", "132956.588000", "132956.591000", "132956.594000", "132956.597000", "132956.600000", "132956.603000", "132956.606000", "132956.608000", "132956.611000", "132956.614000", "132956.617000", "132956.620000", "132956.623000", "132956.626000", "132956.629000", "132956.631000", "132956.634000", "132956.637000", "132956.640000", "132956.643000", "132956.646000", "132956.649000", "132956.652000", "133036.578000", "133036.581000", "133036.584000", "133036.587000", "133036.590000", "133036.592000", "133036.595000", "133036.598000", "133036.601000", "133036.604000", "133036.607000", "133036.610000", "133036.612000", "133036.615000", "133036.618000", "133036.621000", "133036.624000", "133036.627000", "133036.630000", "133036.632000", "133036.635000", "133036.638000", "133036.641000", "133036.644000", "133036.647000", "133036.650000", "133036.652000", "133116.577000", "133116.580000", "133116.583000", "133116.586000", "133116.589000", "133116.591000", "133116.594000", "133116.597000", "133116.600000", "133116.603000", "133116.606000", "133116.609000", "133116.612000", "133116.616000", "133116.619000", "133116.621000", "133116.624000", "133116.627000", "133116.630000", "133116.633000", "133116.636000", "133116.639000", "133116.641000", "133116.644000", "133116.647000", "133116.650000", "133156.577000", "133156.588000", "133156.591000", "133156.594000", "133156.597000", "133156.600000", "133156.603000", "133156.606000", "133156.609000", "133156.612000", "133156.615000", "133156.618000", "133156.621000", "133156.624000", "133156.627000", "133156.629000", "133156.632000", "133156.635000", "133156.638000", "133156.641000", "133156.644000", "133156.647000", "133156.650000", "133156.653000", "133156.656000", "133156.658000", "133156.662000", "133236.578000", "133236.581000", "133236.584000", "133236.587000", "133236.590000", "133236.593000", "133236.596000", "133236.599000", "133236.601000", "133236.605000", "133236.608000", "133236.610000", "133236.613000", "133236.616000", "133236.619000", "133236.622000", "133236.625000", "133236.628000", "133236.631000", "133236.634000", "133236.637000", "133236.640000", "133236.643000", "133236.646000", "133236.648000", "133236.651000", "133236.654000", "133316.578000", "133316.581000", "133316.584000", "133316.587000", "133316.590000", "133316.593000", "133316.596000", "133316.599000", "133316.602000", "133316.621000", "133316.624000", "133316.627000", "133316.630000", "133316.633000", "133316.635000", "133316.638000", "133316.641000", "133316.644000", "133316.647000", "133316.650000", "133316.653000", "133316.656000", "133316.659000", "133316.662000", "133316.665000", "133316.668000", "133316.670000", "133356.577000", "133356.580000", "133356.583000", "133356.586000", "133356.589000", "133356.592000", "133356.594000", "133356.598000", "133356.600000", "133356.603000", "133356.606000", "133356.609000", "133356.612000", "133356.615000", "133356.618000", "133356.621000", "133356.624000", "133356.627000", "133356.630000", "133356.633000", "133356.636000", "133356.639000", "133356.641000", "133356.644000", "133356.647000", "133356.650000", "133356.653000", "133436.578000", "133436.581000", "133436.584000", "133436.587000", "133436.590000", "133436.593000", "133436.596000", "133436.599000", "133436.601000", "133436.604000", "133436.607000", "133436.610000", "133436.613000", "133436.616000", "133436.619000", "133436.622000", "133436.625000", "133436.628000", "133436.630000", "133436.633000", "133436.636000", "133436.639000", "133436.642000", "133436.645000", "133436.648000", "133436.651000", "133436.654000", "133516.578000", "133516.581000", "133516.584000", "133516.587000", "133516.590000", "133516.593000", "133516.596000", "133516.599000", "133516.602000", "133516.605000", "133516.608000", "133516.611000", "133516.613000", "133516.616000", "133516.619000", "133516.622000", "133516.625000", "133516.628000", "133516.631000", "133516.635000", "133516.638000", "133516.641000", "133516.644000", "133516.647000", "133516.650000", "133516.653000", "133556.577000", "133556.580000", "133556.583000", "133556.586000", "133556.589000", "133556.592000", "133556.595000", "133556.598000", "133556.601000", "133556.604000", "133556.606000", "133556.610000", "133556.612000", "133556.615000", "133556.618000", "133556.621000", "133556.624000", "133556.627000", "133556.630000", "133556.633000", "133556.636000", "133556.639000", "133556.641000", "133556.644000", "133556.647000", "133556.650000", "133556.653000", "133636.577000", "133636.580000", "133636.583000", "133636.586000", "133636.589000", "133636.592000", "133636.595000", "133636.598000", "133636.601000", "133636.603000", "133636.607000", "133636.609000", "133636.612000", "133636.615000", "133636.618000", "133636.621000", "133636.624000", "133636.627000", "133636.630000", "133636.633000", "133636.636000", "133636.639000", "133636.642000", "133636.644000", "133636.647000", "133636.650000", "133636.653000", "133716.578000", "133716.581000", "133716.584000", "133716.587000", "133716.590000", "133716.593000", "133716.596000", "133716.599000", "133716.602000", "133716.605000", "133716.608000", "133716.610000", "133716.613000", "133716.616000", "133716.619000", "133716.622000", "133716.625000", "133716.628000", "133716.631000", "133716.634000", "133716.637000", "133716.640000", "133716.643000", "133716.646000", "133716.648000", "133716.651000", "133716.654000", "133756.578000", "133756.581000", "133756.584000", "133756.587000", "133756.590000", "133756.593000", "133756.596000", "133756.599000", "133756.602000", "133756.604000", "133756.607000", "133756.610000", "133756.613000", "133756.616000", "133756.619000", "133756.622000", "133756.625000", "133756.628000", "133756.631000", "133756.634000", "133756.637000", "133756.639000", "133756.642000", "133756.645000", "133756.648000", "133756.651000", "133756.654000", "133806.548000", "133806.551000", "133806.554000", "133806.557000", "133806.560000", "133806.563000", "133806.566000"],
