{
  "AcquisitionMatrixPE": 104,
  "AcquisitionNumber": 1,
  "AcquisitionTime": "13:50:55.227500",
  "BandwidthPerPixelPhaseEncode": 17.17,
  "BaseResolution": 104,
  "BodyPartExamined": "BRAIN",
  "CoilString": "HC1-7;NC1_2",
  "ConsistencyInfo": "N4_VE11C_LATEST_20160120",
  "ConversionSoftware": "dcm2niix",
  "ConversionSoftwareVersion": "v1.0.20190902",
  "DerivedVendorReportedEchoSpacing": 0.000560011,
  "DeviceSerialNumber": "167006",
  "DwellTime": 2.1e-06,
  "EchoTime": 0.037,
  "EchoTrainLength": 104,
  "EffectiveEchoSpacing": 0.000560011,
  "FlipAngle": 52,
  "ImageComments": "Unaliased_MB4_PE3_LB",
  "ImageOrientationPatientDICOM": [0.999973, 0.00636232, 0.00359197, -0.00506135, 0.957783, -0.287448],
  "ImageType": [
    "ORIGINAL",
    "PRIMARY",
    "M",
    "MB",
    "ND",
    "MOSAIC"
],
  "ImagingFrequency": 123.259,
  "InPlanePhaseEncodingDirectionDICOM": "COL",
  "InstitutionAddress": "Chemin_Queen-Mary_4565_Montreal_District_CA_H3W_1W5",
  "InstitutionName": "IUGM",
  "InstitutionalDepartmentName": "Department",
  "MRAcquisitionType": "2D",
  "MagneticFieldStrength": 3,
  "Manufacturer": "Siemens",
  "ManufacturersModelName": "Prisma_fit",
  "Modality": "MR",
  "MultibandAccelerationFactor": 4,
  "PartialFourier": 1,
  "PatientPosition": "HFS",
  "PercentPhaseFOV": 100,
  "PhaseEncodingDirection": "j",
  "PhaseEncodingSteps": 104,
  "PhaseResolution": 1,
  "PixelBandwidth": 2290,
  "ProcedureStepDescription": "video_friends",
  "ProtocolName": "func_task-friends-s04e17b",
  "PulseSequenceDetails": "%CustomerSeq%_cmrr_mbep2d_bold",
  "ReceiveCoilActiveElements": "HC1-7;NC1,2",
  "ReceiveCoilName": "HeadNeck_64",
  "ReconMatrixPE": 104,
  "RepetitionTime": 1.49,
  "SAR": 0.0284678,
  "ScanOptions": "FS",
  "ScanningSequence": "EP",
  "SequenceName": "epfid2d1_104",
  "SequenceVariant": "SK_SS",
  "SeriesDescription": "func_task-friends-s04e17b",
  "SeriesNumber": 15,
  "ShimSetting": [639, -7209, -8807, 714, 41, 28, 95, -19],
  "SliceThickness": 2,
  "SliceTiming": [0, 0.7825, 0.0975, 0.88, 0.195, 0.98, 0.2925, 1.0775, 0.39, 1.175, 0.49, 1.2725, 0.5875, 1.37, 0.685, 0, 0.7825, 0.0975, 0.88, 0.195, 0.98, 0.2925, 1.0775, 0.39, 1.175, 0.49, 1.2725, 0.5875, 1.37, 0.685, 0, 0.7825, 0.0975, 0.88, 0.195, 0.98, 0.2925, 1.0775, 0.39, 1.175, 0.49, 1.2725, 0.5875, 1.37, 0.685, 0, 0.7825, 0.0975, 0.88, 0.195, 0.98, 0.2925, 1.0775, 0.39, 1.175, 0.49, 1.2725, 0.5875, 1.37, 0.685],
  "SoftwareVersions": "syngo_MR_E11",
  "SpacingBetweenSlices": 2,
  "StationName": "MRC35049",
  "TaskName": "s04e17b",
  "TotalReadoutTime": 0.0576811,
  "TxRefAmp": 205.968,
  "WipMemBlock": "cecc575f-2609-4b53-ae0b-bf8a4e25decc||Sequence: R016 ve11c/master r/e634e98; Dec 19 2017 11:00:25 by eja",
  "dcmmeta_affine": [
    [-1.9999465942382812, -0.010122707113623619, 0.010538322851061821, 105.44522857666016],
    [-0.012724638916552067, 1.9155659675598145, -0.5748434066772461, -80.14727020263672],
    [0.00718394061550498, 0.5748951435089111, 1.9155791997909546, -66.36995697021484],
    [0.0, 0.0, 0.0, 1.0]
],
  "dcmmeta_reorient_transform": [
    [0.0, -1.0, 0.0, 103.0],
    [1.0, 0.0, 0.0, 0.0],
    [0.0, 0.0, 1.0, 0.0],
    [0.0, 0.0, 0.0, 1.0]
],
  "dcmmeta_shape": [104, 104, 60, 478],
  "dcmmeta_slice_dim": 2,
  "dcmmeta_version": 0.6,
  "global": {
    "const": {
      "AcquisitionMatrix": [104, 0, 0, 104],
      "AngioFlag": "N",
      "BitsAllocated": 16,
      "BitsStored": 16,
      "BodyPartExamined": "BRAIN",
      "Columns": 832,
      "EchoNumbers": 1,
      "EchoTime": 37.0,
      "EchoTrainLength": 104,
      "FlipAngle": 52.0,
      "HighBit": 15,
      "ImageOrientationPatient": [0.99997330896356, 0.00636231948882, 0.0035919703775, -0.0050613534112, 0.95778300224888, -0.2874475661834],
      "ImagePositionPatient": [-828.69849570777, -819.05382017661, 199.49111315682],
      "ImageType": [
        "ORIGINAL",
        "PRIMARY",
        "M",
        "MB",
        "ND",
        "MOSAIC"
],
      "ImagedNucleus": "1H",
      "ImagingFrequency": 123.259068,
      "InPlanePhaseEncodingDirection": "COL",
      "MRAcquisitionType": "2D",
      "MagneticFieldStrength": 3.0,
      "Manufacturer": "SIEMENS",
      "ManufacturerModelName": "Prisma_fit",
      "Modality": "MR",
      "NumberOfAverages": 1.0,
      "NumberOfPhaseEncodingSteps": 104,
      "PercentPhaseFieldOfView": 100.0,
      "PercentSampling": 100.0,
      "PerformedProcedureStepStartTime": "124849.728000",
      "PhotometricInterpretation": "MONOCHROME2",
      "PixelBandwidth": 2290.0,
      "PixelRepresentation": 0,
      "PixelSpacing": [2.0, 2.0],
      "ProtocolName": "func_task-friends-s04e17b",
      "RepetitionTime": 1490.0,
      "Rows": 832,
      "SAR": 0.02846781725272,
      "SamplesPerPixel": 1,
      "ScanOptions": "FS",
      "ScanningSequence": "EP",
      "SequenceName": "epfid2d1_104",
      "SequenceVariant": [
        "SK",
        "SS"
],
      "SeriesDescription": "func_task-friends-s04e17b",
      "SeriesNumber": 15,
      "SeriesTime": "135216.430000",
      "SliceLocation": -39.97678499517,
      "SliceThickness": 2.0,
      "SmallestImagePixelValue": 0,
      "SoftwareVersions": "syngo MR E11",
      "SpacingBetweenSlices": 1.9999999200312,
      "SpecificCharacterSet": "ISO_IR 100",
      "StudyID": "1",
      "StudyTime": "124849.602000",
      "TransmitCoilName": "Body",
      "VariableFlipAngleFlag": "N",
      "WindowCenterWidthExplanation": "Algo1",
      "dBdt": 0.0},
    "slices": {}
  },
  "time": {
    "samples": {
      "AcquisitionNumber": [1, 2, 3, 4, 5, 6, 7, 8, 9, 10, 11, 12, 13, 14, 15, 16, 17, 18, 19, 20, 21, 22, 23, 24, 25, 26, 27, 28, 29, 30, 31, 32, 33, 34, 35, 36, 37, 38, 39, 40, 41, 42, 43, 44, 45, 46, 47, 48, 49, 50, 51, 52, 53, 54, 55, 56, 57, 58, 59, 60, 61, 62, 63, 64, 65, 66, 67, 68, 69, 70, 71, 72, 73, 74, 75, 76, 77, 78, 79, 80, 81, 82, 83, 84, 85, 86, 87, 88, 89, 90, 91, 92, 93, 94, 95, 96, 97, 98, 99, 100, 101, 102, 103, 104, 105, 106, 107, 108, 109, 110, 111, 112, 113, 114, 115, 116, 117, 118, 119, 120, 121, 122, 123, 124, 125, 126, 127, 128, 129, 130, 131, 132, 133, 134, 135, 136, 137, 138, 139, 140, 141, 142, 143, 144, 145, 146, 147, 148, 149, 150, 151, 152, 153, 154, 155, 156, 157, 158, 159, 160, 161, 162, 163, 164, 165, 166, 167, 168, 169, 170, 171, 172, 173, 174, 175, 176, 177, 178, 179, 180, 181, 182, 183, 184, 185, 186, 187, 188, 189, 190, 191, 192, 193, 194, 195, 196, 197, 198, 199, 200, 201, 202, 203, 204, 205, 206, 207, 208, 209, 210, 211, 212, 213, 214, 215, 216, 217, 218, 219, 220, 221, 222, 223, 224, 225, 226, 227, 228, 229, 230, 231, 232, 233, 234, 235, 236, 237, 238, 239, 240, 241, 242, 243, 244, 245, 246, 247, 248, 249, 250, 251, 252, 253, 254, 255, 256, 257, 258, 259, 260, 261, 262, 263, 264, 265, 266, 267, 268, 269, 270, 271, 272, 273, 274, 275, 276, 277, 278, 279, 280, 281, 282, 283, 284, 285, 286, 287, 288, 289, 290, 291, 292, 293, 294, 295, 296, 297, 298, 299, 300, 301, 302, 303, 304, 305, 306, 307, 308, 309, 310, 311, 312, 313, 314, 315, 316, 317, 318, 319, 320, 321, 322, 323, 324, 325, 326, 327, 328, 329, 330, 331, 332, 333, 334, 335, 336, 337, 338, 339, 340, 341, 342, 343, 344, 345, 346, 347, 348, 349, 350, 351, 352, 353, 354, 355, 356, 357, 358, 359, 360, 361, 362, 363, 364, 365, 366, 367, 368, 369, 370, 371, 372, 373, 374, 375, 376, 377, 378, 379, 380, 381, 382, 383, 384, 385, 386, 387, 388, 389, 390, 391, 392, 393, 394, 395, 396, 397, 398, 399, 400, 401, 402, 403, 404, 405, 406, 407, 408, 409, 410, 411, 412, 413, 414, 415, 416, 417, 418, 419, 420, 421, 422, 423, 424, 425, 426, 427, 428, 429, 430, 431, 432, 433, 434, 435, 436, 437, 438, 439, 440, 441, 442, 443, 444, 445, 446, 447, 448, 449, 450, 451, 452, 453, 454, 455, 456, 457, 458, 459, 460, 461, 462, 463, 464, 465, 466, 467, 468, 469, 470, 471, 472, 473, 474, 475, 476, 477, 478],
      "AcquisitionTime": ["135055.227500", "135056.717500", "135058.207500", "135059.697500", "135101.187500", "135102.677500", "135104.167500", "135105.657500", "135107.147500", "135108.637500", "135110.127500", "135111.617500", "135113.107500", "135114.597500", "135116.087500", "135117.577500", "135119.067500", "135120.557500", "135122.047500", "135123.537500", "135125.027500", "135126.517500", "135128.007500", "135129.497500", "135130.987500", "135132.477500", "135133.967500", "135135.457500", "135136.947500", "135138.437500", "135139.927500", "135141.417500", "135142.907500", "135144.397500", "135145.887500", "135147.377500", "135148.867500", "135150.357500", "135151.847500", "135153.337500", "135154.827500", "135156.317500", "135157.807500", "135159.297500", "135200.787500", "135202.277500", "135203.767500", "135205.257500", "135206.747500", "135208.237500", "135209.727500", "135211.217500", "135212.707500", "135214.197500", "135215.687500", "135217.177500", "135218.667500", "135220.157500", "135221.647500", "135223.137500", "135224.627500", "135226.117500", "135227.607500", "135229.097500", "135230.587500", "135232.077500", "135233.567500", "135235.057500", "135236.547500", "135238.037500", "135239.527500", "135241.017500", "135242.507500", "135243.997500", "135245.487500", "135246.977500", "135248.467500", "135249.957500", "135251.447500", "135252.937500", "135254.427500", "135255.917500", "135257.407500", "135258.897500", "135300.387500", "135301.877500", "135303.367500", "135304.857500", "135306.347500", "135307.837500", "135309.327500", "135310.817500", "135312.307500", "135313.797500", "135315.287500", "135316.777500", "135318.267500", "135319.757500", "135321.247500", "135322.737500", "135324.227500", "135325.717500", "135327.207500", "135328.697500", "135330.187500", "135331.677500", "135333.167500", "135334.657500", "135336.147500", "135337.637500", "135339.127500", "135340.617500", "135342.107500", "135343.597500", "135345.087500", "135346.577500", "135348.067500", "135349.557500", "135351.047500", "135352.537500", "135354.027500", "135355.517500", "135357.007500", "135358.497500", "135359.987500", "135401.477500", "135402.967500", "135404.457500", "135405.947500", "135407.437500", "135408.927500", "135410.417500", "135411.907500", "135413.397500", "135414.887500", "135416.377500", "135417.867500", "135419.357500", "135420.847500", "135422.337500", "135423.827500", "135425.317500", "135426.807500", "135428.297500", "135429.787500", "135431.277500", "135432.767500", "135434.257500", "135435.747500", "135437.237500", "135438.727500", "135440.217500", "135441.707500", "135443.197500", "135444.687500", "135446.177500", "135447.667500", "135449.157500", "135450.647500", "135452.137500", "135453.627500", "135455.117500", "135456.607500", "135458.097500", "135459.587500", "135501.077500", "135502.567500", "135504.057500", "135505.547500", "135507.037500", "135508.527500", "135510.017500", "135511.507500", "135512.997500", "135514.487500", "135515.977500", "135517.467500", "135518.957500", "135520.447500", "135521.937500", "135523.427500", "135524.917500", "135526.407500", "135527.897500", "135529.387500", "135530.877500", "135532.367500", "135533.857500", "135535.347500", "135536.837500", "135538.327500", "135539.817500", "135541.307500", "135542.797500", "135544.287500", "135545.777500", "135547.267500", "135548.757500", "135550.247500", "135551.737500", "135553.227500", "135554.717500", "135556.207500", "135557.697500", "135559.187500", "135600.677500", "135602.167500", "135603.657500", "135605.147500", "135606.637500", "135608.127500", "135609.617500", "135611.107500", "135612.597500", "135614.087500", "135615.577500", "135617.067500", "135618.557500", "135620.047500", "135621.537500", "135623.027500", "135624.517500", "135626.007500", "135627.497500", "135628.987500", "135630.477500", "135631.967500", "135633.457500", "135634.947500", "135636.437500", "135637.927500", "135639.417500", "135640.907500", "135642.397500", "135643.887500", "135645.377500", "135646.867500", "135648.357500", "135649.847500", "135651.337500", "135652.827500", "135654.317500", "135655.807500", "135657.297500", "135658.787500", "135700.277500", "135701.767500", "135703.257500", "135704.747500", "135706.237500", "135707.727500", "135709.217500", "135710.707500", "135712.197500", "135713.687500", "135715.177500", "135716.667500", "135718.157500", "135719.647500", "135721.137500", "135722.627500", "135724.117500", "135725.607500", "135727.097500", "135728.587500", "135730.077500", "135731.567500", "135733.057500", "135734.547500", "135736.037500", "135737.527500", "135739.017500", "135740.507500", "135741.997500", "135743.487500", "135744.977500", "135746.467500", "135747.957500", "135749.447500", "135750.937500", "135752.427500", "135753.917500", "135755.407500", "135756.897500", "135758.387500", "135759.877500", "135801.367500", "135802.857500", "135804.347500", "135805.837500", "135807.327500", "135808.817500", "135810.307500", "135811.797500", "135813.287500", "135814.777500", "135816.267500", "135817.757500", "135819.247500", "135820.737500", "135822.227500", "135823.717500", "135825.207500", "135826.697500", "135828.187500", "135829.677500", "135831.167500", "135832.657500", "135834.147500", "135835.637500", "135837.127500", "135838.617500", "135840.107500", "135841.597500", "135843.087500", "135844.577500", "135846.067500", "135847.557500", "135849.047500", "135850.537500", "135852.027500", "135853.517500", "135855.007500", "135856.497500", "135857.987500", "135859.477500", "135900.967500", "135902.457500", "135903.947500", "135905.437500", "135906.927500", "135908.417500", "135909.907500", "135911.397500", "135912.887500", "135914.377500", "135915.867500", "135917.357500", "135918.847500", "135920.337500", "135921.827500", "135923.317500", "135924.807500", "135926.297500", "135927.787500", "135929.277500", "135930.767500", "135932.257500", "135933.747500", "135935.237500", "135936.727500", "135938.217500", "135939.707500", "135941.197500", "135942.687500", "135944.177500", "135945.667500", "135947.157500", "135948.647500", "135950.137500", "135951.627500", "135953.117500", "135954.607500", "135956.097500", "135957.587500", "135959.077500", "140000.567500", "140002.057500", "140003.547500", "140005.037500", "140006.527500", "140008.017500", "140009.507500", "140010.997500", "140012.487500", "140013.977500", "140015.467500", "140016.957500", "140018.447500", "140019.937500", "140021.427500", "140022.917500", "140024.407500", "140025.897500", "140027.387500", "140028.877500", "140030.367500", "140031.857500", "140033.347500", "140034.837500", "140036.327500", "140037.817500", "140039.307500", "140040.797500", "140042.287500", "140043.777500", "140045.267500", "140046.757500", "140048.247500", "140049.737500", "140051.227500", "140052.717500", "140054.207500", "140055.697500", "140057.187500", "140058.677500", "140100.167500", "140101.657500", "140103.147500", "140104.637500", "140106.127500", "140107.617500", "140109.107500", "140110.597500", "140112.087500", "140113.577500", "140115.067500", "140116.557500", "140118.047500", "140119.537500", "140121.027500", "140122.517500", "140124.007500", "140125.497500", "140126.987500", "140128.477500", "140129.967500", "140131.457500", "140132.947500", "140134.437500", "140135.927500", "140137.417500", "140138.907500", "140140.397500", "140141.887500", "140143.377500", "140144.867500", "140146.357500", "140147.847500", "140149.337500", "140150.827500", "140152.317500", "140153.807500", "140155.297500", "140156.787500", "140158.277500", "140159.767500", "140201.257500", "140202.747500", "140204.237500", "140205.727500", "140207.217500", "140208.707500", "140210.197500", "140211.687500", "140213.177500", "140214.667500", "140216.157500", "140217.647500", "140219.137500", "140220.627500", "140222.117500", "140223.607500", "140225.097500", "140226.587500", "140228.077500", "140229.567500", "140231.057500", "140232.547500", "140234.037500", "140235.527500", "140237.017500", "140238.507500", "140239.997500", "140241.487500", "140242.977500", "140244.467500", "140245.957500"],
      "ContentTime": ["135216.432000", "135216.436000", "135216.446000", "135216.449000", "135216.452000", "135216.454000", "135216.457000", "135216.460000", "135216.463000", "135216.466000", "135216.468000", "135216.479000", "135216.482000", "135216.485000", "135216.488000", "135216.491000", "135216.494000", "135216.496000", "135216.499000", "135216.502000", "135216.505000", "135216.508000", "135216.511000", "135216.513000", "135216.516000", "135236.418000", "135236.422000", "135236.425000", "135236.427000", "135236.430000", "135236.433000", "135236.436000", "135236.439000", "135236.442000", "135236.444000", "135236.447000", "135236.450000", "135236.453000", "135236.456000", "135236.459000", "135236.461000", "135236.464000", "135236.467000", "135236.474000", "135236.476000", "135236.479000", "135256.405000", "135256.408000", "135256.411000", "135256.414000", "135256.417000", "135256.419000", "135256.422000", "135256.425000", "135256.428000", "135256.435000", "135256.438000", "135256.441000", "135256.444000", "135256.447000", "135256.449000", "135256.452000", "135256.455000", "135256.458000", "135256.461000", "135256.463000", "135316.406000", "135316.409000", "135316.412000", "135316.415000", "135316.417000", "135316.420000", "135316.423000", "135316.426000", "135316.429000", "135316.432000", "135316.434000", "135316.437000", "135316.440000", "135316.443000", "135316.446000", "135316.449000", "135316.451000", "135316.454000", "135316.457000", "135316.460000", "135336.406000", "135336.409000", "135336.412000", "135336.414000", "135336.417000", "135336.420000", "135336.423000", "135336.426000", "135336.429000", "135336.431000", "135336.434000", "135336.437000", "135336.440000", "135336.443000", "135336.446000", "135336.448000", "135336.451000", "135336.454000", "135336.457000", "135336.460000", "135416.405000", "135416.408000", "135416.411000", "135416.414000", "135416.416000", "135416.419000", "135416.422000", "135416.425000", "135416.428000", "135416.431000", "135416.434000", "135416.436000", "135416.439000", "135416.442000", "135416.445000", "135416.455000", "135416.458000", "135416.460000", "135416.463000", "135416.466000", "135416.469000", "135416.472000", "135416.475000", "135416.477000", "135416.480000", "135416.483000", "135416.486000", "135416.489000", "135456.405000", "135456.408000", "135456.411000", "135456.414000", "135456.417000", "135456.419000", "135456.422000", "135456.425000", "135456.428000", "135456.431000", "135456.434000", "135456.437000", "135456.440000", "135456.443000", "135456.446000", "135456.448000", "135456.451000", "135456.454000", "135456.457000", "135456.460000", "135456.462000", "135456.465000", "135456.468000", "135456.471000", "135456.474000", "135456.477000", "135456.480000", "135536.406000", "135536.409000", "135536.412000", "135536.415000", "135536.419000", "135536.423000", "135536.426000", "135536.428000", "135536.432000", "135536.435000", "135536.438000", "135536.441000", "135536.444000", "135536.447000", "135536.450000", "135536.453000", "135536.456000", "135536.459000", "135536.462000", "135536.464000", "135536.467000", "135536.470000", "135536.473000", "135536.476000", "135536.479000", "135536.481000", "135556.406000", "135556.409000", "135556.412000", "135556.415000", "135556.418000", "135556.420000", "135556.423000", "135556.426000", "135556.429000", "135556.432000", "135556.435000", "135556.437000", "135556.440000", "135556.443000", "135636.405000", "135636.408000", "135636.411000", "135636.414000", "135636.417000", "135636.419000", "135636.422000", "135636.431000", "135636.434000", "135636.437000", "135636.440000", "135636.443000", "135636.446000", "135636.449000", "135636.451000", "135636.454000", "135636.457000", "135636.460000", "135636.463000", "135636.466000", "135636.468000", "135636.471000", "135636.474000", "135636.477000", "135636.480000", "135636.483000", "135636.504000", "135716.405000", "135716.408000", "135716.411000", "135716.414000", "135716.416000", "135716.419000", "135716.422000", "135716.425000", "135716.428000", "135716.431000", "135716.434000", "135716.436000", "135716.439000", "135716.442000", "135716.445000", "135716.448000", "135716.451000", "135716.454000", "135716.457000", "135716.460000", "135716.462000", "135716.465000", "135716.468000", "135716.471000", "135716.474000", "135716.477000", "135716.479000", "135756.406000", "135756.409000", "135756.412000", "135756.415000", "135756.418000", "135756.421000", "135756.423000", "135756.426000", "135756.429000", "135756.432000", "135756.435000", "135756.438000", "135756.441000", "135756.443000", "135756.446000", "135756.449000", "135756.452000", "135756.455000", "135756.457000", "135756.460000", "135756.463000", "135756.466000", "135756.469000", "135756.472000", "135756.475000", "135756.477000", "135836.405000", "135836.408000", "135836.411000", "135836.414000", "135836.416000", "135836.419000", "135836.422000", "135836.425000", "135836.428000", "135836.431000", "135836.434000", "135836.436000", "135836.439000", "135836.442000", "135836.445000", "135836.448000", "135836.451000", "135836.454000", "135836.457000", "135836.459000", "135836.462000", "135836.465000", "135836.468000", "135836.471000", "135836.474000", "135836.477000", "135836.479000", "135916.405000", "135916.408000", "135916.411000", "135916.414000", "135916.417000", "135916.419000", "135916.422000", "135916.432000", "135916.435000", "135916.437000", "135916.440000", "135916.443000", "135916.446000", "135916.449000", "135916.452000", "135916.455000", "135916.458000", "135916.460000", "135916.463000", "135916.466000", "135916.469000", "135916.472000", "135916.475000", "135916.478000", "135916.481000", "135916.483000", "135916.486000", "135956.405000", "135956.408000", "135956.411000", "135956.414000", "135956.417000", "135956.419000", "135956.422000", "135956.425000", "135956.428000", "135956.431000", "135956.434000", "135956.436000", "135956.439000", "135956.442000", "135956.445000", "135956.448000", "135956.451000", "135956.454000", "135956.456000", "135956.459000", "135956.462000", "135956.465000", "135956.468000", "135956.471000", "135956.473000", "135956.476000", "135956.479000", "140036.405000", "140036.408000", "140036.411000", "140036.414000", "140036.416000", "140036.419000", "140036.422000", "140036.425000", "140036.428000", "140036.431000", "140036.434000", "140036.436000", "140036.439000", "140036.442000", "140036.445000", "140036.448000", "140036.451000", "140036.454000", "140036.457000", "140036.459000", "140036.462000", "140036.465000", "140036.468000", "140036.471000", "140036.474000", "140036.476000", "140036.479000", "140116.405000", "140116.408000", "140116.411000", "140116.414000", "140116.417000", "140116.419000", "140116.422000", "140116.425000", "140116.428000", "140116.431000", "140116.434000", "140116.437000", "140116.439000", "140116.442000", "140116.445000", "140116.448000", "140116.451000", "140116.454000", "140116.457000", "140116.460000", "140116.462000", "140116.465000", "140116.468000", "140116.471000", "140116.474000", "140116.477000", "140116.491000", "140156.405000", "140156.408000", "140156.411000", "140156.414000", "140156.422000", "140156.425000", "140156.428000", "140156.431000", "140156.434000", "140156.437000", "140156.439000", "140156.442000", "140156.445000", "140156.448000", "140156.451000", "140156.454000", "140156.457000", "140156.460000", "140156.463000", "140156.466000", "140156.469000", "140156.471000", "140156.474000", "140156.477000", "140156.480000", "140156.483000", "140156.486000", "140236.406000", "140236.409000", "140236.412000", "140236.415000", "140236.418000", "140236.420000", "140236.423000", "140236.426000", "140236.429000", "140236.432000", "140236.435000", "140236.437000", "140236.440000", "140236.443000", "140236.446000", "140236.449000", "140236.452000", "140236.455000", "140236.458000", "140236.460000", "140236.463000", "140236.466000", "140236.469000", "140236.472000", "140236.476000", "140236.479000", "140248.605000", "140248.608000", "140248.611000", "140248.614000", "140248.617000", "140248.620000", "140248.623000", "140248.626000", "140248.629000"],
