{
  "AcquisitionMatrixPE": 104,
  "AcquisitionNumber": 1,
  "AcquisitionTime": "16:28:38.137500",
  "BandwidthPerPixelPhaseEncode": 17.17,
  "BaseResolution": 104,
  "BodyPartExamined": "BRAIN",
  "CoilCombinationMethod": "Sum of Squares",
  "ConsistencyInfo": "N4_VE11C_LATEST_20160120",
  "ConversionSoftware": "dcm2niix",
  "ConversionSoftwareVersion": "v1.0.20230411",
  "DerivedVendorReportedEchoSpacing": 0.000560011,
  "DeviceSerialNumber": "167006",
  "DwellTime": 2.1e-06,
  "EchoTime": 0.037,
  "EchoTrainLength": 104,
  "EffectiveEchoSpacing": 0.000560011,
  "FlipAngle": 52,
  "HeudiconvVersion": "0.5.3.post861+ge7d3c7f",
  "ImageComments": "Unaliased MB4/PE3/LB",
  "ImageOrientationPatientDICOM": [0.999785, 0.020722, 0.00107471, -0.016404, 0.821048, -0.570624],
  "ImageOrientationText": "Tra>Cor(-34.8)>Sag(0.7)",
  "ImageType": [
    "ORIGINAL",
    "PRIMARY",
    "M",
    "MB",
    "ND",
    "MOSAIC"
],
  "ImagingFrequency": 123.24955,
  "InPlanePhaseEncodingDirectionDICOM": "COL",
  "InstitutionAddress": "Chemin Queen-Mary 4565,Montreal,District,CA,H3W 1W5",
  "InstitutionName": "IUGM",
  "InstitutionalDepartmentName": "Department",
  "MRAcquisitionType": "2D",
  "MagneticFieldStrength": 3,
  "Manufacturer": "Siemens",
  "ManufacturersModelName": "Prisma_fit",
  "MatrixCoilMode": "SENSE",
  "Modality": "MR",
  "MultibandAccelerationFactor": 4,
  "NonlinearGradientCorrection": false,
  "PartialFourier": 1,
  "PatientPosition": "HFS",
  "PercentPhaseFOV": 100,
  "PercentSampling": 100,
  "PhaseEncodingDirection": "j",
  "PhaseEncodingSteps": 104,
  "PhaseResolution": 1,
  "PixelBandwidth": 2290,
  "ProcedureStepDescription": "video^friends",
  "ProtocolName": "func_task-friends-s07e15b",
  "PulseSequenceDetails": "%CustomerSeq%\\cmrr_mbep2d_bold",
  "ReceiveCoilActiveElements": "HC1-7;NC1,2",
  "ReceiveCoilName": "HeadNeck_64",
  "ReconMatrixPE": 104,
  "RepetitionTime": 1.49,
  "SAR": 0.0607087,
  "ScanOptions": "FS",
  "ScanningSequence": "EP",
  "SequenceName": "epfid2d1_104",
  "SequenceVariant": "SK\\SS",
  "SeriesDescription": "func_task-friends-s07e15b",
  "SeriesNumber": 16,
  "ShimSetting": [591, -7230, -8808, 295, 26, -237, -186, 53],
  "SliceThickness": 2,
  "SliceTiming": [0, 0.785, 0.1, 0.8825, 0.1975, 0.98, 0.295, 1.0775, 0.3925, 1.1775, 0.49, 1.275, 0.5875, 1.3725, 0.6875, 0, 0.785, 0.1, 0.8825, 0.1975, 0.98, 0.295, 1.0775, 0.3925, 1.1775, 0.49, 1.275, 0.5875, 1.3725, 0.6875, 0, 0.785, 0.1, 0.8825, 0.1975, 0.98, 0.295, 1.0775, 0.3925, 1.1775, 0.49, 1.275, 0.5875, 1.3725, 0.6875, 0, 0.785, 0.1, 0.8825, 0.1975, 0.98, 0.295, 1.0775, 0.3925, 1.1775, 0.49, 1.275, 0.5875, 1.3725, 0.6875],
  "SoftwareVersions": "syngo MR E11",
  "SpacingBetweenSlices": 2,
  "StationName": "MRC35049",
  "TaskName": "s07e15b",
  "TotalReadoutTime": 0.0576811,
  "TxRefAmp": 286.325,
  "WipMemBlock": "a9936acd-ac64-439f-a0ea-877b57567d24||Sequence: R017 ve11c/master r/75a17815+; Jun 28 2022 16:32:11 by eja",
  "dcmmeta_affine": [
    [-1.9995694160461426, -0.0328080914914608, 0.025413740426301956, 104.27767181396484],
    [-0.041444048285484314, 1.6420950889587402, -1.1409671306610107, -49.24172592163086],
    [0.0021494135726243258, 1.141248106956482, 1.6424213647842407, -77.67454528808594],
    [0.0, 0.0, 0.0, 1.0]
],
  "dcmmeta_reorient_transform": [
    [0.0, -1.0, 0.0, 103.0],
    [1.0, 0.0, 0.0, 0.0],
    [0.0, 0.0, 1.0, 0.0],
    [0.0, 0.0, 0.0, 1.0]
],
  "dcmmeta_shape": [104, 104, 60, 600],
  "dcmmeta_slice_dim": 2,
  "dcmmeta_version": 0.6,
  "global": {
    "const": {
      "AcquisitionMatrix": [104, 0, 0, 104],
      "AngioFlag": "N",
      "BitsAllocated": 16,
      "BitsStored": 16,
      "BodyPartExamined": "BRAIN",
      "Columns": 832,
      "EchoNumbers": 1,
      "EchoTime": 37.0,
      "EchoTrainLength": 104,
      "FlipAngle": 52.0,
      "HighBit": 15,
      "ImageOrientationPatient": [0.99978469819132, 0.02072202373884, 0.00107470677598, -0.0164040452969, 0.82104755932988, -0.5706240554133],
      "ImagePositionPatient": [-816.7995540516, -732.70232591957, 454.50593483629],
      "ImageType": [
        "ORIGINAL",
        "PRIMARY",
        "M",
        "MB",
        "ND",
        "MOSAIC"
],
      "ImagedNucleus": "1H",
      "ImagingFrequency": 123.24955,
      "InPlanePhaseEncodingDirection": "COL",
      "MRAcquisitionType": "2D",
      "MagneticFieldStrength": 3.0,
      "Manufacturer": "SIEMENS",
      "ManufacturerModelName": "Prisma_fit",
      "Modality": "MR",
      "NumberOfAverages": 1.0,
      "NumberOfPhaseEncodingSteps": 104,
      "PercentPhaseFieldOfView": 100.0,
      "PercentSampling": 100.0,
      "PerformedProcedureStepStartTime": "160739.972000",
      "PhotometricInterpretation": "MONOCHROME2",
      "PixelBandwidth": 2290.0,
      "PixelRepresentation": 0,
      "PixelSpacing": [2.0, 2.0],
      "ProtocolName": "func_task-friends-s07e15b",
      "RepetitionTime": 1490.0,
      "Rows": 832,
      "SAR": 0.06070873444233,
      "SamplesPerPixel": 1,
      "ScanOptions": "FS",
      "ScanningSequence": "EP",
      "SequenceName": "epfid2d1_104",
      "SequenceVariant": [
        "SK",
        "SS"
],
      "SeriesDescription": "func_task-friends-s07e15b",
      "SeriesNumber": 16,
      "SeriesTime": "163000.255000",
      "SliceLocation": -34.370529975196,
      "SliceThickness": 2.0,
      "SmallestImagePixelValue": 0,
      "SoftwareVersions": "syngo MR E11",
      "SpacingBetweenSlices": 1.9999999917975,
      "SpecificCharacterSet": "ISO_IR 100",
      "StudyID": "1",
      "StudyTime": "160739.892000",
      "TransmitCoilName": "Body",
      "VariableFlipAngleFlag": "N",
      "WindowCenterWidthExplanation": "Algo1",
      "dBdt": 0.0},
    "slices": {}
  },
  "time": {
    "samples": {
      "AcquisitionNumber": [1, 2, 3, 4, 5, 6, 7, 8, 9, 10, 11, 12, 13, 14, 15, 16, 17, 18, 19, 20, 21, 22, 23, 24, 25, 26, 27, 28, 29, 30, 31, 32, 33, 34, 35, 36, 37, 38, 39, 40, 41, 42, 43, 44, 45, 46, 47, 48, 49, 50, 51, 52, 53, 54, 55, 56, 57, 58, 59, 60, 61, 62, 63, 64, 65, 66, 67, 68, 69, 70, 71, 72, 73, 74, 75, 76, 77, 78, 79, 80, 81, 82, 83, 84, 85, 86, 87, 88, 89, 90, 91, 92, 93, 94, 95, 96, 97, 98, 99, 100, 101, 102, 103, 104, 105, 106, 107, 108, 109, 110, 111, 112, 113, 114, 115, 116, 117, 118, 119, 120, 121, 122, 123, 124, 125, 126, 127, 128, 129, 130, 131, 132, 133, 134, 135, 136, 137, 138, 139, 140, 141, 142, 143, 144, 145, 146, 147, 148, 149, 150, 151, 152, 153, 154, 155, 156, 157, 158, 159, 160, 161, 162, 163, 164, 165, 166, 167, 168, 169, 170, 171, 172, 173, 174, 175, 176, 177, 178, 179, 180, 181, 182, 183, 184, 185, 186, 187, 188, 189, 190, 191, 192, 193, 194, 195, 196, 197, 198, 199, 200, 201, 202, 203, 204, 205, 206, 207, 208, 209, 210, 211, 212, 213, 214, 215, 216, 217, 218, 219, 220, 221, 222, 223, 224, 225, 226, 227, 228, 229, 230, 231, 232, 233, 234, 235, 236, 237, 238, 239, 240, 241, 242, 243, 244, 245, 246, 247, 248, 249, 250, 251, 252, 253, 254, 255, 256, 257, 258, 259, 260, 261, 262, 263, 264, 265, 266, 267, 268, 269, 270, 271, 272, 273, 274, 275, 276, 277, 278, 279, 280, 281, 282, 283, 284, 285, 286, 287, 288, 289, 290, 291, 292, 293, 294, 295, 296, 297, 298, 299, 300, 301, 302, 303, 304, 305, 306, 307, 308, 309, 310, 311, 312, 313, 314, 315, 316, 317, 318, 319, 320, 321, 322, 323, 324, 325, 326, 327, 328, 329, 330, 331, 332, 333, 334, 335, 336, 337, 338, 339, 340, 341, 342, 343, 344, 345, 346, 347, 348, 349, 350, 351, 352, 353, 354, 355, 356, 357, 358, 359, 360, 361, 362, 363, 364, 365, 366, 367, 368, 369, 370, 371, 372, 373, 374, 375, 376, 377, 378, 379, 380, 381, 382, 383, 384, 385, 386, 387, 388, 389, 390, 391, 392, 393, 394, 395, 396, 397, 398, 399, 400, 401, 402, 403, 404, 405, 406, 407, 408, 409, 410, 411, 412, 413, 414, 415, 416, 417, 418, 419, 420, 421, 422, 423, 424, 425, 426, 427, 428, 429, 430, 431, 432, 433, 434, 435, 436, 437, 438, 439, 440, 441, 442, 443, 444, 445, 446, 447, 448, 449, 450, 451, 452, 453, 454, 455, 456, 457, 458, 459, 460, 461, 462, 463, 464, 465, 466, 467, 468, 469, 470, 471, 472, 473, 474, 475, 476, 477, 478, 479, 480, 481, 482, 483, 484, 485, 486, 487, 488, 489, 490, 491, 492, 493, 494, 495, 496, 497, 498, 499, 500, 501, 502, 503, 504, 505, 506, 507, 508, 509, 510, 511, 512, 513, 514, 515, 516, 517, 518, 519, 520, 521, 522, 523, 524, 525, 526, 527, 528, 529, 530, 531, 532, 533, 534, 535, 536, 537, 538, 539, 540, 541, 542, 543, 544, 545, 546, 547, 548, 549, 550, 551, 552, 553, 554, 555, 556, 557, 558, 559, 560, 561, 562, 563, 564, 565, 566, 567, 568, 569, 570, 571, 572, 573, 574, 575, 576, 577, 578, 579, 580, 581, 582, 583, 584, 585, 586, 587, 588, 589, 590, 591, 592, 593, 594, 595, 596, 597, 598, 599, 600],
      "AcquisitionTime": ["162838.137500", "162839.627500", "162841.117500", "162842.607500", "162844.097500", "162845.587500", "162847.077500", "162848.567500", "162850.057500", "162851.547500", "162853.037500", "162854.527500", "162856.017500", "162857.507500", "162858.997500", "162900.487500", "162901.977500", "162903.467500", "162904.957500", "162906.447500", "162907.937500", "162909.427500", "162910.917500", "162912.407500", "162913.897500", "162915.387500", "162916.877500", "162918.367500", "162919.857500", "162921.347500", "162922.837500", "162924.327500", "162925.817500", "162927.307500", "162928.797500", "162930.287500", "162931.777500", "162933.267500", "162934.757500", "162936.247500", "162937.737500", "162939.227500", "162940.717500", "162942.207500", "162943.697500", "162945.187500", "162946.677500", "162948.167500", "162949.657500", "162951.147500", "162952.637500", "162954.127500", "162955.617500", "162957.107500", "162958.597500", "163000.087500", "163001.577500", "163003.067500", "163004.557500", "163006.047500", "163007.537500", "163009.027500", "163010.517500", "163012.007500", "163013.497500", "163014.987500", "163016.477500", "163017.967500", "163019.457500", "163020.947500", "163022.437500", "163023.927500", "163025.417500", "163026.907500", "163028.397500", "163029.887500", "163031.377500", "163032.867500", "163034.357500", "163035.847500", "163037.337500", "163038.827500", "163040.317500", "163041.807500", "163043.297500", "163044.787500", "163046.277500", "163047.767500", "163049.257500", "163050.747500", "163052.237500", "163053.727500", "163055.217500", "163056.707500", "163058.197500", "163059.687500", "163101.177500", "163102.667500", "163104.157500", "163105.647500", "163107.137500", "163108.627500", "163110.117500", "163111.607500", "163113.097500", "163114.587500", "163116.077500", "163117.567500", "163119.057500", "163120.547500", "163122.037500", "163123.527500", "163125.017500", "163126.507500", "163127.997500", "163129.487500", "163130.977500", "163132.467500", "163133.957500", "163135.447500", "163136.937500", "163138.427500", "163139.917500", "163141.407500", "163142.897500", "163144.387500", "163145.877500", "163147.367500", "163148.857500", "163150.347500", "163151.837500", "163153.327500", "163154.817500", "163156.307500", "163157.797500", "163159.287500", "163200.777500", "163202.267500", "163203.757500", "163205.247500", "163206.737500", "163208.227500", "163209.717500", "163211.207500", "163212.697500", "163214.187500", "163215.677500", "163217.167500", "163218.657500", "163220.147500", "163221.637500", "163223.127500", "163224.617500", "163226.107500", "163227.597500", "163229.087500", "163230.577500", "163232.067500", "163233.557500", "163235.047500", "163236.537500", "163238.027500", "163239.517500", "163241.007500", "163242.497500", "163243.987500", "163245.477500", "163246.967500", "163248.457500", "163249.947500", "163251.437500", "163252.927500", "163254.417500", "163255.907500", "163257.397500", "163258.887500", "163300.377500", "163301.867500", "163303.357500", "163304.847500", "163306.337500", "163307.827500", "163309.317500", "163310.807500", "163312.297500", "163313.787500", "163315.277500", "163316.767500", "163318.257500", "163319.747500", "163321.237500", "163322.727500", "163324.217500", "163325.707500", "163327.197500", "163328.687500", "163330.177500", "163331.667500", "163333.157500", "163334.647500", "163336.137500", "163337.627500", "163339.117500", "163340.607500", "163342.097500", "163343.587500", "163345.077500", "163346.567500", "163348.057500", "163349.547500", "163351.037500", "163352.527500", "163354.017500", "163355.507500", "163356.997500", "163358.487500", "163359.977500", "163401.467500", "163402.957500", "163404.447500", "163405.937500", "163407.427500", "163408.917500", "163410.407500", "163411.897500", "163413.387500", "163414.877500", "163416.367500", "163417.857500", "163419.347500", "163420.837500", "163422.327500", "163423.817500", "163425.307500", "163426.797500", "163428.287500", "163429.777500", "163431.267500", "163432.757500", "163434.247500", "163435.737500", "163437.227500", "163438.717500", "163440.207500", "163441.697500", "163443.187500", "163444.677500", "163446.167500", "163447.657500", "163449.147500", "163450.637500", "163452.127500", "163453.617500", "163455.107500", "163456.597500", "163458.087500", "163459.577500", "163501.067500", "163502.557500", "163504.047500", "163505.537500", "163507.027500", "163508.517500", "163510.007500", "163511.497500", "163512.987500", "163514.477500", "163515.967500", "163517.457500", "163518.947500", "163520.437500", "163521.927500", "163523.417500", "163524.907500", "163526.397500", "163527.887500", "163529.377500", "163530.867500", "163532.357500", "163533.847500", "163535.337500", "163536.827500", "163538.317500", "163539.807500", "163541.297500", "163542.787500", "163544.277500", "163545.767500", "163547.257500", "163548.747500", "163550.237500", "163551.727500", "163553.217500", "163554.707500", "163556.197500", "163557.687500", "163559.177500", "163600.667500", "163602.157500", "163603.647500", "163605.137500", "163606.627500", "163608.117500", "163609.607500", "163611.097500", "163612.587500", "163614.077500", "163615.567500", "163617.057500", "163618.547500", "163620.037500", "163621.527500", "163623.017500", "163624.507500", "163625.997500", "163627.487500", "163628.977500", "163630.467500", "163631.957500", "163633.447500", "163634.937500", "163636.427500", "163637.917500", "163639.407500", "163640.897500", "163642.387500", "163643.877500", "163645.367500", "163646.857500", "163648.347500", "163649.837500", "163651.327500", "163652.817500", "163654.307500", "163655.797500", "163657.287500", "163658.777500", "163700.267500", "163701.757500", "163703.247500", "163704.737500", "163706.227500", "163707.717500", "163709.207500", "163710.697500", "163712.187500", "163713.677500", "163715.167500", "163716.657500", "163718.147500", "163719.637500", "163721.127500", "163722.617500", "163724.107500", "163725.597500", "163727.087500", "163728.577500", "163730.067500", "163731.557500", "163733.047500", "163734.537500", "163736.027500", "163737.517500", "163739.007500", "163740.497500", "163741.987500", "163743.477500", "163744.967500", "163746.457500", "163747.947500", "163749.437500", "163750.927500", "163752.417500", "163753.907500", "163755.397500", "163756.887500", "163758.377500", "163759.867500", "163801.357500", "163802.847500", "163804.337500", "163805.827500", "163807.317500", "163808.807500", "163810.297500", "163811.787500", "163813.277500", "163814.767500", "163816.257500", "163817.747500", "163819.237500", "163820.727500", "163822.217500", "163823.707500", "163825.197500", "163826.687500", "163828.177500", "163829.667500", "163831.157500", "163832.647500", "163834.137500", "163835.627500", "163837.117500", "163838.607500", "163840.097500", "163841.587500", "163843.077500", "163844.567500", "163846.057500", "163847.547500", "163849.037500", "163850.527500", "163852.017500", "163853.507500", "163854.997500", "163856.487500", "163857.977500", "163859.467500", "163900.957500", "163902.447500", "163903.937500", "163905.427500", "163906.917500", "163908.407500", "163909.897500", "163911.387500", "163912.877500", "163914.367500", "163915.857500", "163917.347500", "163918.837500", "163920.327500", "163921.817500", "163923.307500", "163924.797500", "163926.287500", "163927.777500", "163929.267500", "163930.757500", "163932.247500", "163933.737500", "163935.227500", "163936.717500", "163938.207500", "163939.697500", "163941.187500", "163942.677500", "163944.167500", "163945.657500", "163947.147500", "163948.637500", "163950.127500", "163951.617500", "163953.107500", "163954.597500", "163956.087500", "163957.577500", "163959.067500", "164000.557500", "164002.047500", "164003.537500", "164005.027500", "164006.517500", "164008.007500", "164009.497500", "164010.987500", "164012.477500", "164013.967500", "164015.457500", "164016.947500", "164018.437500", "164019.927500", "164021.417500", "164022.907500", "164024.397500", "164025.887500", "164027.377500", "164028.867500", "164030.357500", "164031.847500", "164033.337500", "164034.827500", "164036.317500", "164037.807500", "164039.297500", "164040.787500", "164042.277500", "164043.767500", "164045.257500", "164046.747500", "164048.237500", "164049.727500", "164051.217500", "164052.707500", "164054.197500", "164055.687500", "164057.177500", "164058.667500", "164100.157500", "164101.647500", "164103.137500", "164104.627500", "164106.117500", "164107.607500", "164109.097500", "164110.587500", "164112.077500", "164113.567500", "164115.057500", "164116.547500", "164118.037500", "164119.527500", "164121.017500", "164122.507500", "164123.997500", "164125.487500", "164126.977500", "164128.467500", "164129.957500", "164131.447500", "164132.937500", "164134.427500", "164135.917500", "164137.407500", "164138.897500", "164140.387500", "164141.877500", "164143.367500", "164144.857500", "164146.347500", "164147.837500", "164149.327500", "164150.817500", "164152.307500", "164153.797500", "164155.287500", "164156.777500", "164158.267500", "164159.757500", "164201.247500", "164202.737500", "164204.227500", "164205.717500", "164207.207500", "164208.697500", "164210.187500", "164211.677500", "164213.167500", "164214.657500", "164216.147500", "164217.637500", "164219.127500", "164220.617500", "164222.107500", "164223.597500", "164225.087500", "164226.577500", "164228.067500", "164229.557500", "164231.047500", "164232.537500", "164234.027500", "164235.517500", "164237.007500", "164238.497500", "164239.987500", "164241.477500", "164242.967500", "164244.457500", "164245.947500", "164247.437500", "164248.927500", "164250.417500", "164251.907500", "164253.397500", "164254.887500", "164256.377500", "164257.867500", "164259.357500", "164300.847500", "164302.337500", "164303.827500", "164305.317500", "164306.807500", "164308.297500", "164309.787500", "164311.277500", "164312.767500", "164314.257500", "164315.747500", "164317.237500", "164318.727500", "164320.217500", "164321.707500", "164323.197500", "164324.687500", "164326.177500", "164327.667500", "164329.157500", "164330.647500"],
      "ContentTime": ["163000.258000", "163000.261000", "163000.264000", "163000.267000", "163000.277000", "163000.280000", "163000.283000", "163000.285000", "163000.288000", "163000.292000", "163000.295000", "163000.297000", "163000.301000", "163000.304000", "163000.307000", "163000.310000", "163000.313000", "163000.318000", "163000.321000", "163000.324000", "163000.327000", "163000.330000", "163000.333000", "163000.336000", "163020.219000", "163020.222000", "163020.225000", "163020.228000", "163020.231000", "163020.238000", "163020.241000", "163020.244000", "163020.247000", "163020.250000", "163020.253000", "163020.256000", "163020.259000", "163020.262000", "163020.265000", "163020.268000", "163020.271000", "163020.274000", "163020.277000", "163020.280000", "163040.219000", "163040.222000", "163040.225000", "163040.228000", "163040.231000", "163040.234000", "163040.237000", "163040.240000", "163040.243000", "163040.246000", "163040.249000", "163040.252000", "163040.255000", "163040.258000", "163040.261000", "163040.264000", "163040.267000", "163040.270000", "163040.273000", "163040.276000", "163100.219000", "163100.235000", "163100.239000", "163100.241000", "163100.244000", "163100.247000", "163100.251000", "163100.254000", "163100.257000", "163100.260000", "163100.263000", "163100.266000", "163100.269000", "163100.272000", "163100.275000", "163100.279000", "163100.281000", "163100.284000", "163100.287000", "163100.290000", "163100.293000", "163140.219000", "163140.222000", "163140.225000", "163140.228000", "163140.231000", "163140.234000", "163140.237000", "163140.240000", "163140.243000", "163140.246000", "163140.249000", "163140.252000", "163140.255000", "163140.258000", "163140.261000", "163140.264000", "163140.267000", "163140.270000", "163140.273000", "163140.276000", "163140.279000", "163140.282000", "163140.285000", "163140.288000", "163140.291000", "163140.294000", "163140.297000", "163140.300000", "163140.303000", "163140.306000", "163220.219000", "163220.222000", "163220.225000", "163220.228000", "163220.231000", "163220.235000", "163220.238000", "163220.241000", "163220.244000", "163220.247000", "163220.250000", "163220.253000", "163220.256000", "163220.259000", "163220.262000", "163220.265000", "163220.268000", "163220.271000", "163220.274000", "163220.277000", "163220.280000", "163220.283000", "163220.286000", "163220.289000", "163220.292000", "163220.295000", "163220.298000", "163240.219000", "163240.222000", "163240.225000", "163240.228000", "163240.231000", "163240.234000", "163240.237000", "163240.240000", "163240.243000", "163240.246000", "163240.249000", "163240.252000", "163240.255000", "163240.258000", "163320.219000", "163320.222000", "163320.225000", "163320.228000", "163320.231000", "163320.234000", "163320.237000", "163320.240000", "163320.243000", "163320.247000", "163320.250000", "163320.263000", "163320.266000", "163320.269000", "163320.272000", "163320.275000", "163320.278000", "163320.281000", "163320.284000", "163320.287000", "163320.290000", "163320.293000", "163320.296000", "163320.299000", "163320.302000", "163320.305000", "163400.219000", "163400.222000", "163400.225000", "163400.228000", "163400.231000", "163400.234000", "163400.237000", "163400.240000", "163400.243000", "163400.246000", "163400.250000", "163400.253000", "163400.256000", "163400.259000", "163400.262000", "163400.265000", "163400.268000", "163400.271000", "163400.274000", "163400.277000", "163400.280000", "163400.283000", "163400.286000", "163400.289000", "163400.293000", "163400.296000", "163400.299000", "163440.219000", "163440.222000", "163440.225000", "163440.228000", "163440.231000", "163440.234000", "163440.237000", "163440.241000", "163440.243000", "163440.246000", "163440.249000", "163440.253000", "163440.256000", "163440.259000", "163440.262000", "163440.265000", "163440.268000", "163440.271000", "163440.274000", "163440.278000", "163440.281000", "163440.283000", "163440.286000", "163440.290000", "163440.293000", "163440.296000", "163440.298000", "163520.219000", "163520.222000", "163520.225000", "163520.228000", "163520.231000", "163520.234000", "163520.238000", "163520.241000", "163520.244000", "163520.246000", "163520.250000", "163520.253000", "163520.256000", "163520.259000", "163520.262000", "163520.265000", "163520.268000", "163520.271000", "163520.280000", "163520.283000", "163520.286000", "163520.289000", "163520.292000", "163520.295000", "163520.298000", "163520.300000", "163520.304000", "163600.219000", "163600.222000", "163600.225000", "163600.228000", "163600.231000", "163600.234000", "163600.237000", "163600.240000", "163600.243000", "163600.246000", "163600.249000", "163600.252000", "163600.255000", "163600.258000", "163600.261000", "163600.264000", "163600.267000", "163600.270000", "163600.274000", "163600.276000", "163600.279000", "163600.283000", "163600.286000", "163600.288000", "163600.291000", "163600.295000", "163600.298000", "163640.219000", "163640.222000", "163640.225000", "163640.228000", "163640.231000", "163640.234000", "163640.237000", "163640.240000", "163640.244000", "163640.247000", "163640.250000", "163640.253000", "163640.256000", "163640.259000", "163640.262000", "163640.265000", "163640.268000", "163640.271000", "163640.274000", "163640.277000", "163640.280000", "163640.283000", "163640.286000", "163640.289000", "163640.292000", "163640.295000", "163640.298000", "163720.219000", "163720.222000", "163720.225000", "163720.228000", "163720.232000", "163720.236000", "163720.240000", "163720.243000", "163720.246000", "163720.249000", "163720.252000", "163720.255000", "163720.258000", "163720.261000", "163720.275000", "163720.278000", "163720.281000", "163720.284000", "163720.287000", "163720.290000", "163720.293000", "163720.296000", "163720.299000", "163720.302000", "163720.305000", "163720.308000", "163800.219000", "163800.222000", "163800.225000", "163800.228000", "163800.231000", "163800.235000", "163800.237000", "163800.240000", "163800.243000", "163800.246000", "163800.249000", "163800.252000", "163800.255000", "163800.259000", "163800.262000", "163800.265000", "163800.268000", "163800.271000", "163800.274000", "163800.277000", "163800.280000", "163800.283000", "163800.286000", "163800.289000", "163800.292000", "163800.295000", "163800.298000", "163840.219000", "163840.222000", "163840.225000", "163840.228000", "163840.231000", "163840.234000", "163840.237000", "163840.240000", "163840.243000", "163840.246000", "163840.249000", "163840.253000", "163840.256000", "163840.259000", "163840.262000", "163840.265000", "163840.268000", "163840.271000", "163840.274000", "163840.277000", "163840.280000", "163840.283000", "163840.286000", "163840.289000", "163840.292000", "163840.295000", "163840.298000", "163920.219000", "163920.222000", "163920.225000", "163920.228000", "163920.231000", "163920.234000", "163920.237000", "163920.241000", "163920.244000", "163920.247000", "163920.250000", "163920.253000", "163920.256000", "163920.259000", "163920.262000", "163920.265000", "163920.268000", "163920.271000", "163920.274000", "163920.278000", "163920.281000", "163920.284000", "163920.287000", "163920.290000", "163920.293000", "163920.296000", "163920.299000", "164000.219000", "164000.222000", "164000.225000", "164000.228000", "164000.231000", "164000.234000", "164000.238000", "164000.240000", "164000.243000", "164000.246000", "164000.249000", "164000.252000", "164000.255000", "164000.258000", "164000.261000", "164000.264000", "164000.267000", "164000.270000", "164000.282000", "164000.285000", "164000.288000", "164000.291000", "164000.294000", "164000.297000", "164000.300000", "164000.303000", "164000.306000", "164040.219000", "164040.222000", "164040.225000", "164040.228000", "164040.231000", "164040.234000", "164040.237000", "164040.240000", "164040.243000", "164040.246000", "164040.249000", "164040.252000", "164040.255000", "164040.258000", "164040.261000", "164040.264000", "164040.267000", "164040.270000", "164040.273000", "164040.276000", "164040.279000", "164040.283000", "164040.285000", "164040.288000", "164040.291000", "164040.294000", "164040.297000", "164120.219000", "164120.222000", "164120.225000", "164120.228000", "164120.231000", "164120.234000", "164120.237000", "164120.240000", "164120.244000", "164120.246000", "164120.249000", "164120.252000", "164120.256000", "164120.259000", "164120.262000", "164120.264000", "164120.268000", "164120.271000", "164120.274000", "164120.277000", "164120.280000", "164120.283000", "164120.286000", "164120.289000", "164120.292000", "164120.295000", "164120.298000", "164200.220000", "164200.223000", "164200.226000", "164200.230000", "164200.233000", "164200.236000", "164200.239000", "164200.242000", "164200.245000", "164200.248000", "164200.251000", "164200.254000", "164200.257000", "164200.260000", "164200.263000", "164200.266000", "164200.269000", "164200.272000", "164200.275000", "164200.278000", "164200.281000", "164200.284000", "164200.287000", "164200.290000", "164200.293000", "164200.296000", "164240.219000", "164240.223000", "164240.226000", "164240.229000", "164240.231000", "164240.235000", "164240.238000", "164240.241000", "164240.244000", "164240.247000", "164240.250000", "164240.253000", "164240.256000", "164240.259000", "164240.262000", "164240.265000", "164240.268000", "164240.271000", "164240.274000", "164240.277000", "164240.280000", "164240.283000", "164240.286000", "164240.289000", "164240.292000", "164240.295000", "164240.298000", "164320.219000", "164320.222000", "164320.225000", "164320.228000", "164320.231000", "164320.234000", "164320.238000", "164320.241000", "164320.244000", "164320.247000", "164320.250000", "164320.253000", "164320.257000", "164320.260000", "164320.263000", "164320.265000", "164320.269000", "164320.272000", "164320.275000", "164320.278000", "164320.281000", "164320.284000", "164320.287000", "164320.290000", "164320.293000", "164320.296000", "164320.299000", "164341.710000", "164341.714000", "164341.716000", "164341.732000", "164341.735000", "164341.738000", "164341.741000", "164341.744000", "164341.747000", "164341.750000", "164341.753000", "164341.756000", "164341.759000", "164341.762000", "164341.765000"],
