{
  "AcquisitionMatrixPE": 104,
  "AcquisitionNumber": 1,
  "AcquisitionTime": "18:25:47.420000",
  "BandwidthPerPixelPhaseEncode": 17.17,
  "BaseResolution": 104,
  "BodyPartExamined": "BRAIN",
  "CoilCombinationMethod": "Sum of Squares",
  "ConsistencyInfo": "N4_VE11C_LATEST_20160120",
  "ConversionSoftware": "dcm2niix",
  "ConversionSoftwareVersion": "v1.0.20230411",
  "DerivedVendorReportedEchoSpacing": 0.000560011,
  "DeviceSerialNumber": "167006",
  "DwellTime": 2.1e-06,
  "EchoTime": 0.037,
  "EchoTrainLength": 104,
  "EffectiveEchoSpacing": 0.000560011,
  "FlipAngle": 52,
  "HeudiconvVersion": "0.5.3.post861+ge7d3c7f",
  "ImageComments": "Unaliased MB4/PE3/LB",
  "ImageOrientationPatientDICOM": [0.999519, -0.0310084, 0.000613101, 0.0289667, 0.926276, -0.375731],
  "ImageOrientationText": "Tra>Cor(-22.1)>Sag(-0.6)",
  "ImageType": [
    "ORIGINAL",
    "PRIMARY",
    "M",
    "MB",
    "ND",
    "MOSAIC"
],
  "ImagingFrequency": 123.249563,
  "InPlanePhaseEncodingDirectionDICOM": "COL",
  "InstitutionAddress": "Chemin Queen-Mary 4565,Montreal,District,CA,H3W 1W5",
  "InstitutionName": "IUGM",
  "InstitutionalDepartmentName": "Department",
  "MRAcquisitionType": "2D",
  "MagneticFieldStrength": 3,
  "Manufacturer": "Siemens",
  "ManufacturersModelName": "Prisma_fit",
  "MatrixCoilMode": "SENSE",
  "Modality": "MR",
  "MultibandAccelerationFactor": 4,
  "NonlinearGradientCorrection": false,
  "PartialFourier": 1,
  "PatientPosition": "HFS",
  "PercentPhaseFOV": 100,
  "PercentSampling": 100,
  "PhaseEncodingDirection": "j",
  "PhaseEncodingSteps": 104,
  "PhaseResolution": 1,
  "PixelBandwidth": 2290,
  "ProcedureStepDescription": "video^friends",
  "ProtocolName": "func_task-friends-s07e04a",
  "PulseSequenceDetails": "%CustomerSeq%\\cmrr_mbep2d_bold",
  "ReceiveCoilActiveElements": "HC1-7;NC1,2",
  "ReceiveCoilName": "HeadNeck_64",
  "ReconMatrixPE": 104,
  "RepetitionTime": 1.49,
  "SAR": 0.0617018,
  "ScanOptions": "FS",
  "ScanningSequence": "EP",
  "SequenceName": "epfid2d1_104",
  "SequenceVariant": "SK\\SS",
  "SeriesDescription": "func_task-friends-s07e04a",
  "SeriesNumber": 12,
  "ShimSetting": [592, -7292, -8817, 382, 15, -407, -36, 99],
  "SliceThickness": 2,
  "SliceTiming": [0, 0.785, 0.1, 0.8825, 0.1975, 0.98, 0.295, 1.0775, 0.3925, 1.1775, 0.49, 1.275, 0.59, 1.3725, 0.6875, 0, 0.785, 0.1, 0.8825, 0.1975, 0.98, 0.295, 1.0775, 0.3925, 1.1775, 0.49, 1.275, 0.59, 1.3725, 0.6875, 0, 0.785, 0.1, 0.8825, 0.1975, 0.98, 0.295, 1.0775, 0.3925, 1.1775, 0.49, 1.275, 0.59, 1.3725, 0.6875, 0, 0.785, 0.1, 0.8825, 0.1975, 0.98, 0.295, 1.0775, 0.3925, 1.1775, 0.49, 1.275, 0.59, 1.3725, 0.6875],
  "SoftwareVersions": "syngo MR E11",
  "SpacingBetweenSlices": 2,
  "StationName": "MRC35049",
  "TaskName": "s07e04a",
  "TotalReadoutTime": 0.0576811,
  "TxRefAmp": 275.792,
  "WipMemBlock": "7fbee723-5893-4f33-bdd6-42d1fff0102a||Sequence: R017 ve11c/master r/75a17815+; Jun 28 2022 16:32:11 by eja",
  "dcmmeta_affine": [
    [-1.9990378618240356, 0.05793333053588867, -0.022165849804878235, 98.2283706665039],
    [0.062016867101192474, 1.852552056312561, -0.7511357665061951, -72.94479370117188],
    [0.0012262029340490699, 0.7514617443084717, 1.8534572124481201, -64.02752685546875],
    [0.0, 0.0, 0.0, 1.0]
],
  "dcmmeta_reorient_transform": [
    [0.0, -1.0, 0.0, 103.0],
    [1.0, 0.0, 0.0, 0.0],
    [0.0, 0.0, 1.0, 0.0],
    [0.0, 0.0, 0.0, 1.0]
],
  "dcmmeta_shape": [104, 104, 60, 447],
  "dcmmeta_slice_dim": 2,
  "dcmmeta_version": 0.6,
  "global": {
    "const": {
      "AcquisitionMatrix": [104, 0, 0, 104],
      "AngioFlag": "N",
      "BitsAllocated": 16,
      "BitsStored": 16,
      "BodyPartExamined": "BRAIN",
      "Columns": 832,
      "EchoNumbers": 1,
      "EchoTime": 37.0,
      "EchoTrainLength": 104,
      "FlipAngle": 52.0,
      "HighBit": 15,
      "ImageOrientationPatient": [0.99951893484137, -0.0310084343391, 0.00061310147094, 0.0289666646539, 0.9262760037829, -0.3757308839513],
      "ImagePositionPatient": [-852.93302263482, -769.62285261004, 286.45877764693],
      "ImageType": [
        "ORIGINAL",
        "PRIMARY",
        "M",
        "MB",
        "ND",
        "MOSAIC"
],
      "ImagedNucleus": "1H",
      "ImagingFrequency": 123.249563,
      "InPlanePhaseEncodingDirection": "COL",
      "MRAcquisitionType": "2D",
      "MagneticFieldStrength": 3.0,
      "Manufacturer": "SIEMENS",
      "ManufacturerModelName": "Prisma_fit",
      "Modality": "MR",
      "NumberOfAverages": 1.0,
      "NumberOfPhaseEncodingSteps": 104,
      "PercentPhaseFieldOfView": 100.0,
      "PercentSampling": 100.0,
      "PerformedProcedureStepStartTime": "180742.138000",
      "PhotometricInterpretation": "MONOCHROME2",
      "PixelBandwidth": 2290.0,
      "PixelRepresentation": 0,
      "PixelSpacing": [2.0, 2.0],
      "ProtocolName": "func_task-friends-s07e04a",
      "RepetitionTime": 1490.0,
      "Rows": 832,
      "SAR": 0.06170182264974,
      "SamplesPerPixel": 1,
      "ScanOptions": "FS",
      "ScanningSequence": "EP",
      "SequenceName": "epfid2d1_104",
      "SequenceVariant": [
        "SK",
        "SS"
],
      "SeriesDescription": "func_task-friends-s07e04a",
      "SeriesNumber": 12,
      "SeriesTime": "182709.749000",
      "SliceLocation": -33.029079224757,
      "SliceThickness": 2.0,
      "SmallestImagePixelValue": 0,
      "SoftwareVersions": "syngo MR E11",
      "SpacingBetweenSlices": 2.0000000063418,
      "SpecificCharacterSet": "ISO_IR 100",
      "StudyID": "1",
      "StudyTime": "180742.064000",
      "TransmitCoilName": "Body",
      "VariableFlipAngleFlag": "N",
      "WindowCenterWidthExplanation": "Algo1",
      "dBdt": 0.0},
    "slices": {}
  },
  "time": {
    "samples": {
      "AcquisitionNumber": [1, 2, 3, 4, 5, 6, 7, 8, 9, 10, 11, 12, 13, 14, 15, 16, 17, 18, 19, 20, 21, 22, 23, 24, 25, 26, 27, 28, 29, 30, 31, 32, 33, 34, 35, 36, 37, 38, 39, 40, 41, 42, 43, 44, 45, 46, 47, 48, 49, 50, 51, 52, 53, 54, 55, 56, 57, 58, 59, 60, 61, 62, 63, 64, 65, 66, 67, 68, 69, 70, 71, 72, 73, 74, 75, 76, 77, 78, 79, 80, 81, 82, 83, 84, 85, 86, 87, 88, 89, 90, 91, 92, 93, 94, 95, 96, 97, 98, 99, 100, 101, 102, 103, 104, 105, 106, 107, 108, 109, 110, 111, 112, 113, 114, 115, 116, 117, 118, 119, 120, 121, 122, 123, 124, 125, 126, 127, 128, 129, 130, 131, 132, 133, 134, 135, 136, 137, 138, 139, 140, 141, 142, 143, 144, 145, 146, 147, 148, 149, 150, 151, 152, 153, 154, 155, 156, 157, 158, 159, 160, 161, 162, 163, 164, 165, 166, 167, 168, 169, 170, 171, 172, 173, 174, 175, 176, 177, 178, 179, 180, 181, 182, 183, 184, 185, 186, 187, 188, 189, 190, 191, 192, 193, 194, 195, 196, 197, 198, 199, 200, 201, 202, 203, 204, 205, 206, 207, 208, 209, 210, 211, 212, 213, 214, 215, 216, 217, 218, 219, 220, 221, 222, 223, 224, 225, 226, 227, 228, 229, 230, 231, 232, 233, 234, 235, 236, 237, 238, 239, 240, 241, 242, 243, 244, 245, 246, 247, 248, 249, 250, 251, 252, 253, 254, 255, 256, 257, 258, 259, 260, 261, 262, 263, 264, 265, 266, 267, 268, 269, 270, 271, 272, 273, 274, 275, 276, 277, 278, 279, 280, 281, 282, 283, 284, 285, 286, 287, 288, 289, 290, 291, 292, 293, 294, 295, 296, 297, 298, 299, 300, 301, 302, 303, 304, 305, 306, 307, 308, 309, 310, 311, 312, 313, 314, 315, 316, 317, 318, 319, 320, 321, 322, 323, 324, 325, 326, 327, 328, 329, 330, 331, 332, 333, 334, 335, 336, 337, 338, 339, 340, 341, 342, 343, 344, 345, 346, 347, 348, 349, 350, 351, 352, 353, 354, 355, 356, 357, 358, 359, 360, 361, 362, 363, 364, 365, 366, 367, 368, 369, 370, 371, 372, 373, 374, 375, 376, 377, 378, 379, 380, 381, 382, 383, 384, 385, 386, 387, 388, 389, 390, 391, 392, 393, 394, 395, 396, 397, 398, 399, 400, 401, 402, 403, 404, 405, 406, 407, 408, 409, 410, 411, 412, 413, 414, 415, 416, 417, 418, 419, 420, 421, 422, 423, 424, 425, 426, 427, 428, 429, 430, 431, 432, 433, 434, 435, 436, 437, 438, 439, 440, 441, 442, 443, 444, 445, 446, 447],
      "AcquisitionTime": ["182547.420000", "182548.910000", "182550.400000", "182551.890000", "182553.380000", "182554.870000", "182556.360000", "182557.850000", "182559.340000", "182600.830000", "182602.320000", "182603.810000", "182605.300000", "182606.790000", "182608.280000", "182609.770000", "182611.260000", "182612.750000", "182614.240000", "182615.730000", "182617.220000", "182618.710000", "182620.200000", "182621.690000", "182623.180000", "182624.670000", "182626.160000", "182627.650000", "182629.140000", "182630.630000", "182632.120000", "182633.610000", "182635.100000", "182636.590000", "182638.080000", "182639.570000", "182641.060000", "182642.550000", "182644.040000", "182645.530000", "182647.020000", "182648.510000", "182650.000000", "182651.490000", "182652.980000", "182654.470000", "182655.960000", "182657.450000", "182658.940000", "182700.430000", "182701.920000", "182703.410000", "182704.900000", "182706.390000", "182707.880000", "182709.370000", "182710.860000", "182712.350000", "182713.840000", "182715.330000", "182716.820000", "182718.310000", "182719.800000", "182721.290000", "182722.780000", "182724.270000", "182725.760000", "182727.250000", "182728.740000", "182730.230000", "182731.720000", "182733.210000", "182734.700000", "182736.190000", "182737.680000", "182739.170000", "182740.660000", "182742.150000", "182743.640000", "182745.130000", "182746.620000", "182748.110000", "182749.600000", "182751.090000", "182752.580000", "182754.070000", "182755.560000", "182757.050000", "182758.540000", "182800.030000", "182801.520000", "182803.010000", "182804.500000", "182805.990000", "182807.480000", "182808.970000", "182810.460000", "182811.950000", "182813.440000", "182814.930000", "182816.420000", "182817.910000", "182819.400000", "182820.890000", "182822.380000", "182823.870000", "182825.360000", "182826.850000", "182828.340000", "182829.830000", "182831.320000", "182832.810000", "182834.300000", "182835.790000", "182837.280000", "182838.770000", "182840.260000", "182841.750000", "182843.240000", "182844.730000", "182846.220000", "182847.710000", "182849.200000", "182850.690000", "182852.180000", "182853.670000", "182855.160000", "182856.650000", "182858.140000", "182859.630000", "182901.120000", "182902.610000", "182904.100000", "182905.590000", "182907.080000", "182908.570000", "182910.060000", "182911.550000", "182913.040000", "182914.530000", "182916.020000", "182917.510000", "182919.000000", "182920.490000", "182921.980000", "182923.470000", "182924.960000", "182926.450000", "182927.940000", "182929.430000", "182930.920000", "182932.410000", "182933.900000", "182935.390000", "182936.880000", "182938.370000", "182939.860000", "182941.350000", "182942.840000", "182944.330000", "182945.820000", "182947.310000", "182948.800000", "182950.290000", "182951.780000", "182953.270000", "182954.760000", "182956.250000", "182957.740000", "182959.230000", "183000.720000", "183002.210000", "183003.700000", "183005.190000", "183006.680000", "183008.170000", "183009.660000", "183011.150000", "183012.640000", "183014.130000", "183015.620000", "183017.110000", "183018.600000", "183020.090000", "183021.580000", "183023.070000", "183024.560000", "183026.050000", "183027.540000", "183029.030000", "183030.520000", "183032.010000", "183033.500000", "183034.990000", "183036.480000", "183037.970000", "183039.460000", "183040.950000", "183042.440000", "183043.930000", "183045.420000", "183046.910000", "183048.400000", "183049.890000", "183051.380000", "183052.870000", "183054.360000", "183055.850000", "183057.340000", "183058.830000", "183100.320000", "183101.810000", "183103.300000", "183104.790000", "183106.280000", "183107.770000", "183109.260000", "183110.750000", "183112.240000", "183113.730000", "183115.220000", "183116.710000", "183118.200000", "183119.690000", "183121.180000", "183122.670000", "183124.160000", "183125.650000", "183127.140000", "183128.630000", "183130.120000", "183131.610000", "183133.100000", "183134.590000", "183136.080000", "183137.570000", "183139.060000", "183140.550000", "183142.040000", "183143.530000", "183145.020000", "183146.510000", "183148.000000", "183149.490000", "183150.980000", "183152.470000", "183153.960000", "183155.450000", "183156.940000", "183158.430000", "183159.920000", "183201.410000", "183202.900000", "183204.390000", "183205.880000", "183207.370000", "183208.860000", "183210.350000", "183211.840000", "183213.330000", "183214.820000", "183216.310000", "183217.800000", "183219.290000", "183220.780000", "183222.270000", "183223.760000", "183225.250000", "183226.740000", "183228.230000", "183229.720000", "183231.210000", "183232.700000", "183234.190000", "183235.680000", "183237.170000", "183238.660000", "183240.150000", "183241.640000", "183243.130000", "183244.620000", "183246.110000", "183247.600000", "183249.090000", "183250.580000", "183252.070000", "183253.560000", "183255.050000", "183256.540000", "183258.030000", "183259.520000", "183301.010000", "183302.500000", "183303.990000", "183305.480000", "183306.970000", "183308.460000", "183309.950000", "183311.440000", "183312.930000", "183314.420000", "183315.910000", "183317.400000", "183318.890000", "183320.380000", "183321.870000", "183323.360000", "183324.850000", "183326.340000", "183327.830000", "183329.320000", "183330.810000", "183332.300000", "183333.790000", "183335.280000", "183336.770000", "183338.260000", "183339.750000", "183341.240000", "183342.730000", "183344.220000", "183345.710000", "183347.200000", "183348.690000", "183350.180000", "183351.670000", "183353.160000", "183354.650000", "183356.140000", "183357.630000", "183359.120000", "183400.610000", "183402.100000", "183403.590000", "183405.080000", "183406.570000", "183408.060000", "183409.550000", "183411.040000", "183412.530000", "183414.020000", "183415.510000", "183417.000000", "183418.490000", "183419.980000", "183421.470000", "183422.960000", "183424.450000", "183425.940000", "183427.430000", "183428.920000", "183430.410000", "183431.900000", "183433.390000", "183434.880000", "183436.370000", "183437.860000", "183439.350000", "183440.840000", "183442.330000", "183443.820000", "183445.310000", "183446.800000", "183448.290000", "183449.780000", "183451.270000", "183452.760000", "183454.250000", "183455.740000", "183457.230000", "183458.720000", "183500.210000", "183501.700000", "183503.190000", "183504.680000", "183506.170000", "183507.660000", "183509.150000", "183510.640000", "183512.130000", "183513.620000", "183515.110000", "183516.600000", "183518.090000", "183519.580000", "183521.070000", "183522.560000", "183524.050000", "183525.540000", "183527.030000", "183528.520000", "183530.010000", "183531.500000", "183532.990000", "183534.480000", "183535.970000", "183537.460000", "183538.950000", "183540.440000", "183541.930000", "183543.420000", "183544.910000", "183546.400000", "183547.890000", "183549.380000", "183550.870000", "183552.360000", "183553.850000", "183555.340000", "183556.830000", "183558.320000", "183559.810000", "183601.300000", "183602.790000", "183604.280000", "183605.770000", "183607.260000", "183608.750000", "183610.240000", "183611.730000", "183613.220000", "183614.710000", "183616.200000", "183617.690000", "183619.180000", "183620.670000", "183622.160000", "183623.650000", "183625.140000", "183626.630000", "183628.120000", "183629.610000", "183631.100000", "183632.590000", "183634.080000", "183635.570000", "183637.060000", "183638.550000", "183640.040000", "183641.530000", "183643.020000", "183644.510000", "183646.000000", "183647.490000", "183648.980000", "183650.470000", "183651.960000"],
      "ContentTime": ["182709.751000", "182709.755000", "182709.765000", "182709.768000", "182709.773000", "182709.776000", "182709.779000", "182709.782000", "182709.785000", "182709.787000", "182709.792000", "182709.795000", "182709.809000", "182709.814000", "182709.817000", "182709.820000", "182709.823000", "182709.826000", "182709.829000", "182709.832000", "182709.835000", "182729.714000", "182729.717000", "182729.720000", "182729.723000", "182729.726000", "182729.729000", "182729.732000", "182729.735000", "182729.738000", "182729.741000", "182729.744000", "182729.747000", "182729.750000", "182729.754000", "182729.757000", "182729.760000", "182729.763000", "182729.766000", "182729.769000", "182729.772000", "182749.714000", "182749.717000", "182749.720000", "182749.723000", "182749.726000", "182749.729000", "182749.732000", "182749.744000", "182749.747000", "182749.750000", "182749.753000", "182749.756000", "182749.759000", "182749.762000", "182749.764000", "182749.767000", "182749.770000", "182749.773000", "182749.776000", "182749.779000", "182809.714000", "182809.717000", "182809.720000", "182809.723000", "182809.726000", "182809.729000", "182809.732000", "182809.734000", "182809.737000", "182809.740000", "182809.743000", "182809.746000", "182809.749000", "182809.752000", "182809.755000", "182809.758000", "182809.761000", "182809.764000", "182809.767000", "182809.770000", "182849.714000", "182849.717000", "182849.720000", "182849.723000", "182849.726000", "182849.729000", "182849.731000", "182849.734000", "182849.737000", "182849.748000", "182849.750000", "182849.753000", "182849.756000", "182849.759000", "182849.762000", "182849.765000", "182849.768000", "182849.771000", "182849.774000", "182849.777000", "182849.780000", "182849.783000", "182849.786000", "182849.789000", "182849.792000", "182849.795000", "182849.798000", "182849.801000", "182849.804000", "182849.807000", "182849.810000", "182849.813000", "182849.816000", "182929.714000", "182929.717000", "182929.720000", "182929.723000", "182929.726000", "182929.729000", "182929.732000", "182929.735000", "182929.738000", "182929.740000", "182929.743000", "182929.746000", "182929.749000", "182929.752000", "182929.755000", "182929.758000", "182929.761000", "182929.764000", "182929.767000", "182929.770000", "182929.773000", "182929.776000", "182929.778000", "182929.781000", "182929.784000", "182929.787000", "182929.790000", "183009.714000", "183009.717000", "183009.720000", "183009.723000", "183009.726000", "183009.729000", "183009.731000", "183009.734000", "183009.737000", "183009.740000", "183009.743000", "183009.746000", "183009.749000", "183009.752000", "183009.755000", "183009.757000", "183009.760000", "183009.769000", "183009.772000", "183009.775000", "183009.778000", "183009.865000", "183009.868000", "183009.870000", "183009.873000", "183009.876000", "183009.879000", "183049.714000", "183049.717000", "183049.720000", "183049.723000", "183049.726000", "183049.729000", "183049.732000", "183049.734000", "183049.737000", "183049.740000", "183049.743000", "183049.746000", "183049.749000", "183049.752000", "183049.755000", "183049.758000", "183049.761000", "183049.764000", "183049.767000", "183049.770000", "183049.773000", "183049.776000", "183049.779000", "183049.782000", "183049.785000", "183049.788000", "183129.714000", "183129.717000", "183129.720000", "183129.723000", "183129.726000", "183129.729000", "183129.740000", "183129.743000", "183129.746000", "183129.749000", "183129.752000", "183129.755000", "183129.758000", "183129.761000", "183129.764000", "183129.766000", "183129.769000", "183129.772000", "183129.776000", "183129.779000", "183129.782000", "183129.784000", "183129.788000", "183129.791000", "183129.793000", "183129.796000", "183129.799000", "183209.714000", "183209.717000", "183209.720000", "183209.723000", "183209.726000", "183209.729000", "183209.732000", "183209.735000", "183209.738000", "183209.741000", "183209.744000", "183209.747000", "183209.750000", "183209.753000", "183209.756000", "183209.759000", "183209.762000", "183209.765000", "183209.768000", "183209.771000", "183209.774000", "183209.777000", "183209.780000", "183209.783000", "183209.786000", "183209.789000", "183209.792000", "183249.714000", "183249.717000", "183249.720000", "183249.723000", "183249.726000", "183249.729000", "183249.732000", "183249.735000", "183249.738000", "183249.741000", "183249.744000", "183249.747000", "183249.750000", "183249.753000", "183249.756000", "183249.759000", "183249.762000", "183249.765000", "183249.768000", "183249.914000", "183249.917000", "183249.920000", "183249.923000", "183249.926000", "183249.929000", "183249.932000", "183249.935000", "183309.714000", "183309.717000", "183309.720000", "183309.723000", "183309.726000", "183309.729000", "183309.732000", "183309.735000", "183309.738000", "183309.741000", "183309.744000", "183309.747000", "183309.749000", "183349.714000", "183349.717000", "183349.720000", "183349.723000", "183349.726000", "183349.729000", "183349.732000", "183349.735000", "183349.738000", "183349.741000", "183349.744000", "183349.747000", "183349.749000", "183349.752000", "183349.755000", "183349.758000", "183349.761000", "183349.764000", "183349.767000", "183349.770000", "183349.773000", "183349.776000", "183349.779000", "183349.782000", "183349.785000", "183349.788000", "183349.791000", "183429.714000", "183429.717000", "183429.720000", "183429.723000", "183429.726000", "183429.729000", "183429.732000", "183429.735000", "183429.738000", "183429.741000", "183429.743000", "183429.746000", "183429.749000", "183429.752000", "183429.755000", "183429.758000", "183429.761000", "183429.764000", "183429.767000", "183429.770000", "183429.773000", "183429.776000", "183429.779000", "183429.782000", "183429.785000", "183429.788000", "183429.791000", "183509.714000", "183509.717000", "183509.720000", "183509.723000", "183509.726000", "183509.729000", "183509.732000", "183509.734000", "183509.737000", "183509.740000", "183509.743000", "183509.746000", "183509.749000", "183509.752000", "183509.755000", "183509.758000", "183509.761000", "183509.815000", "183509.818000", "183509.821000", "183509.824000", "183509.827000", "183509.835000", "183509.838000", "183509.841000", "183509.843000", "183509.847000", "183549.714000", "183549.717000", "183549.720000", "183549.723000", "183549.726000", "183549.729000", "183549.732000", "183549.735000", "183549.738000", "183549.741000", "183549.744000", "183549.747000", "183549.750000", "183549.753000", "183549.755000", "183549.758000", "183549.761000", "183549.764000", "183549.767000", "183549.785000", "183549.788000", "183549.791000", "183549.794000", "183549.797000", "183549.800000", "183549.803000", "183549.806000", "183629.714000", "183629.717000", "183629.720000", "183629.723000", "183629.726000", "183629.729000", "183629.732000", "183629.735000", "183629.738000", "183629.741000", "183629.744000", "183629.747000", "183629.750000", "183629.753000", "183629.756000", "183629.759000", "183629.762000", "183629.765000", "183629.768000", "183629.771000", "183629.774000", "183629.777000", "183629.780000", "183629.783000", "183629.786000", "183629.789000", "183629.792000", "183705.393000", "183705.397000", "183705.400000", "183705.403000", "183705.406000", "183705.409000", "183705.412000", "183705.415000", "183705.418000", "183705.421000", "183705.424000", "183705.427000", "183705.430000", "183705.433000", "183705.436000", "183705.439000", "183705.442000", "183705.445000", "183705.448000", "183705.451000", "183705.454000", "183705.457000", "183705.460000", "183705.463000"],
