{
  "AcquisitionMatrixPE": 104,
  "AcquisitionNumber": 1,
  "AcquisitionTime": "14:41:28.032500",
  "BandwidthPerPixelPhaseEncode": 17.17,
  "BaseResolution": 104,
  "BodyPartExamined": "BRAIN",
  "CoilString": "HC1-7;NC1_2",
  "ConsistencyInfo": "N4_VE11C_LATEST_20160120",
  "ConversionSoftware": "dcm2niix",
  "ConversionSoftwareVersion": "v1.0.20190720  (JP2:OpenJPEG) GCC7.3.0",
  "DerivedVendorReportedEchoSpacing": 0.000560011,
  "DeviceSerialNumber": "167006",
  "DwellTime": 2.1e-06,
  "EchoTime": 0.037,
  "EchoTrainLength": 104,
  "EffectiveEchoSpacing": 0.000560011,
  "FlipAngle": 52,
  "ImageComments": "Unaliased_MB4_PE3_LB",
  "ImageOrientationPatientDICOM": [0.997778, -0.0652902, 0.0133042, 0.0653978, 0.921328, -0.383247],
  "ImageType": [
    "ORIGINAL",
    "PRIMARY",
    "M",
    "MB",
    "ND",
    "MOSAIC"
],
  "ImagingFrequency": 123.259,
  "InPlanePhaseEncodingDirectionDICOM": "COL",
  "InstitutionAddress": "Chemin_Queen-Mary_4565_Montreal_District_CA_H3W_1W5",
  "InstitutionName": "IUGM",
  "InstitutionalDepartmentName": "Department",
  "MRAcquisitionType": "2D",
  "MagneticFieldStrength": 3,
  "Manufacturer": "Siemens",
  "ManufacturersModelName": "Prisma_fit",
  "Modality": "MR",
  "MultibandAccelerationFactor": 4,
  "PartialFourier": 1,
  "PatientPosition": "HFS",
  "PercentPhaseFOV": 100,
  "PhaseEncodingDirection": "j",
  "PhaseEncodingSteps": 104,
  "PhaseResolution": 1,
  "PixelBandwidth": 2290,
  "ProcedureStepDescription": "video_friends",
  "ProtocolName": "func_task-friends-s02e08a",
  "PulseSequenceDetails": "%CustomerSeq%_cmrr_mbep2d_bold",
  "ReceiveCoilActiveElements": "HC1-7;NC1,2",
  "ReceiveCoilName": "HeadNeck_64",
  "ReconMatrixPE": 104,
  "RepetitionTime": 1.49,
  "SAR": 0.027746,
  "ScanOptions": "FS",
  "ScanningSequence": "EP",
  "SequenceName": "epfid2d1_104",
  "SequenceVariant": "SK_SS",
  "SeriesDescription": "func_task-friends-s02e08a",
  "SeriesNumber": 23,
  "ShimSetting": [643, -7264, -8834, 562, 39, -249, -82, -14],
  "SliceThickness": 2,
  "SliceTiming": [0, 0.785, 0.0975, 0.8825, 0.195, 0.98, 0.295, 1.0775, 0.3925, 1.175, 0.49, 1.275, 0.5875, 1.3725, 0.685, 0, 0.785, 0.0975, 0.8825, 0.195, 0.98, 0.295, 1.0775, 0.3925, 1.175, 0.49, 1.275, 0.5875, 1.3725, 0.685, 0, 0.785, 0.0975, 0.8825, 0.195, 0.98, 0.295, 1.0775, 0.3925, 1.175, 0.49, 1.275, 0.5875, 1.3725, 0.685, 0, 0.785, 0.0975, 0.8825, 0.195, 0.98, 0.295, 1.0775, 0.3925, 1.175, 0.49, 1.275, 0.5875, 1.3725, 0.685],
  "SoftwareVersions": "syngo_MR_E11",
  "SpacingBetweenSlices": 2,
  "StationName": "MRC35049",
  "TaskName": "friends",
  "TotalReadoutTime": 0.0576811,
  "TxRefAmp": 219.951,
  "WipMemBlock": "e49ffabe-991b-4384-b990-38621f9c63a2||Sequence: R016 ve11c/master r/e634e98; Dec 19 2017 11:00:25 by eja",
  "dcmmeta_affine": [
    [-1.9955552816390991, 0.13079559803009033, -0.025529570877552032, 95.7130126953125],
    [0.13058041036128998, 1.8426554203033447, -0.7665309309959412, -76.72988891601562],
    [0.026608329266309738, 0.7664942145347595, 1.8471001386642456, -69.96002197265625],
    [0.0, 0.0, 0.0, 1.0]
],
  "dcmmeta_reorient_transform": [
    [0.0, -1.0, 0.0, 103.0],
    [1.0, 0.0, 0.0, 0.0],
    [0.0, 0.0, 1.0, 0.0],
    [0.0, 0.0, 0.0, 1.0]
],
  "dcmmeta_shape": [104, 104, 60, 458],
  "dcmmeta_slice_dim": 2,
  "dcmmeta_version": 0.6,
  "global": {
    "const": {
      "AcquisitionMatrix": [104, 0, 0, 104],
      "AngioFlag": "N",
      "BitsAllocated": 16,
      "BitsStored": 16,
      "BodyPartExamined": "BRAIN",
      "Columns": 832,
      "EchoNumbers": 1,
      "EchoTime": 37.0,
      "EchoTrainLength": 104,
      "FlipAngle": 52.0,
      "HighBit": 15,
      "ImageOrientationPatient": [0.9977776248263, -0.0652902029402, 0.0133041646117, 0.06539779546057, 0.92132773019434, -0.3832471029556],
      "ImagePositionPatient": [-883.17666275145, -736.25894350062, 278.30733907895],
      "ImageType": [
        "ORIGINAL",
        "PRIMARY",
        "M",
        "MB",
        "ND",
        "MOSAIC"
],
      "ImagedNucleus": "1H",
      "ImagingFrequency": 123.259365,
      "InPlanePhaseEncodingDirection": "COL",
      "MRAcquisitionType": "2D",
      "MagneticFieldStrength": 3.0,
      "Manufacturer": "SIEMENS",
      "ManufacturerModelName": "Prisma_fit",
      "Modality": "MR",
      "NumberOfAverages": 1.0,
      "NumberOfPhaseEncodingSteps": 104,
      "PercentPhaseFieldOfView": 100.0,
      "PercentSampling": 100.0,
      "PerformedProcedureStepStartTime": "125925.462000",
      "PhotometricInterpretation": "MONOCHROME2",
      "PixelBandwidth": 2290.0,
      "PixelRepresentation": 0,
      "PixelSpacing": [2.0, 2.0],
      "ProtocolName": "func_task-friends-s02e08a",
      "RepetitionTime": 1490.0,
      "Rows": 832,
      "SAR": 0.02774595031373,
      "SamplesPerPixel": 1,
      "ScanOptions": "FS",
      "ScanningSequence": "EP",
      "SequenceName": "epfid2d1_104",
      "SequenceVariant": [
        "SK",
        "SS"
],
      "SeriesDescription": "func_task-friends-s02e08a",
      "SeriesNumber": 23,
      "SeriesTime": "144252.513000",
      "SliceLocation": -36.425422455977,
      "SliceThickness": 2.0,
      "SmallestImagePixelValue": 0,
      "SoftwareVersions": "syngo MR E11",
      "SpacingBetweenSlices": 2.0000000359876,
      "SpecificCharacterSet": "ISO_IR 100",
      "StudyID": "1",
      "StudyTime": "125925.368000",
      "TransmitCoilName": "Body",
      "VariableFlipAngleFlag": "N",
      "WindowCenterWidthExplanation": "Algo1",
      "dBdt": 0.0},
    "slices": {}
  },
  "time": {
    "samples": {
      "AcquisitionNumber": [1, 2, 3, 4, 5, 6, 7, 8, 9, 10, 11, 12, 13, 14, 15, 16, 17, 18, 19, 20, 21, 22, 23, 24, 25, 26, 27, 28, 29, 30, 31, 32, 33, 34, 35, 36, 37, 38, 39, 40, 41, 42, 43, 44, 45, 46, 47, 48, 49, 50, 51, 52, 53, 54, 55, 56, 57, 58, 59, 60, 61, 62, 63, 64, 65, 66, 67, 68, 69, 70, 71, 72, 73, 74, 75, 76, 77, 78, 79, 80, 81, 82, 83, 84, 85, 86, 87, 88, 89, 90, 91, 92, 93, 94, 95, 96, 97, 98, 99, 100, 101, 102, 103, 104, 105, 106, 107, 108, 109, 110, 111, 112, 113, 114, 115, 116, 117, 118, 119, 120, 121, 122, 123, 124, 125, 126, 127, 128, 129, 130, 131, 132, 133, 134, 135, 136, 137, 138, 139, 140, 141, 142, 143, 144, 145, 146, 147, 148, 149, 150, 151, 152, 153, 154, 155, 156, 157, 158, 159, 160, 161, 162, 163, 164, 165, 166, 167, 168, 169, 170, 171, 172, 173, 174, 175, 176, 177, 178, 179, 180, 181, 182, 183, 184, 185, 186, 187, 188, 189, 190, 191, 192, 193, 194, 195, 196, 197, 198, 199, 200, 201, 202, 203, 204, 205, 206, 207, 208, 209, 210, 211, 212, 213, 214, 215, 216, 217, 218, 219, 220, 221, 222, 223, 224, 225, 226, 227, 228, 229, 230, 231, 232, 233, 234, 235, 236, 237, 238, 239, 240, 241, 242, 243, 244, 245, 246, 247, 248, 249, 250, 251, 252, 253, 254, 255, 256, 257, 258, 259, 260, 261, 262, 263, 264, 265, 266, 267, 268, 269, 270, 271, 272, 273, 274, 275, 276, 277, 278, 279, 280, 281, 282, 283, 284, 285, 286, 287, 288, 289, 290, 291, 292, 293, 294, 295, 296, 297, 298, 299, 300, 301, 302, 303, 304, 305, 306, 307, 308, 309, 310, 311, 312, 313, 314, 315, 316, 317, 318, 319, 320, 321, 322, 323, 324, 325, 326, 327, 328, 329, 330, 331, 332, 333, 334, 335, 336, 337, 338, 339, 340, 341, 342, 343, 344, 345, 346, 347, 348, 349, 350, 351, 352, 353, 354, 355, 356, 357, 358, 359, 360, 361, 362, 363, 364, 365, 366, 367, 368, 369, 370, 371, 372, 373, 374, 375, 376, 377, 378, 379, 380, 381, 382, 383, 384, 385, 386, 387, 388, 389, 390, 391, 392, 393, 394, 395, 396, 397, 398, 399, 400, 401, 402, 403, 404, 405, 406, 407, 408, 409, 410, 411, 412, 413, 414, 415, 416, 417, 418, 419, 420, 421, 422, 423, 424, 425, 426, 427, 428, 429, 430, 431, 432, 433, 434, 435, 436, 437, 438, 439, 440, 441, 442, 443, 444, 445, 446, 447, 448, 449, 450, 451, 452, 453, 454, 455, 456, 457, 458],
      "AcquisitionTime": ["144128.032500", "144129.522500", "144131.012500", "144132.502500", "144133.992500", "144135.482500", "144136.972500", "144138.462500", "144139.952500", "144141.442500", "144142.932500", "144144.422500", "144145.912500", "144147.402500", "144148.892500", "144150.382500", "144151.872500", "144153.362500", "144154.852500", "144156.342500", "144157.832500", "144159.322500", "144200.812500", "144202.302500", "144203.792500", "144205.282500", "144206.772500", "144208.262500", "144209.752500", "144211.242500", "144212.732500", "144214.222500", "144215.712500", "144217.202500", "144218.692500", "144220.182500", "144221.672500", "144223.162500", "144224.652500", "144226.142500", "144227.632500", "144229.122500", "144230.612500", "144232.102500", "144233.592500", "144235.082500", "144236.572500", "144238.062500", "144239.552500", "144241.042500", "144242.532500", "144244.022500", "144245.512500", "144247.002500", "144248.492500", "144249.982500", "144251.472500", "144252.962500", "144254.452500", "144255.942500", "144257.432500", "144258.922500", "144300.412500", "144301.902500", "144303.392500", "144304.882500", "144306.372500", "144307.862500", "144309.352500", "144310.842500", "144312.332500", "144313.822500", "144315.312500", "144316.802500", "144318.292500", "144319.782500", "144321.272500", "144322.762500", "144324.252500", "144325.742500", "144327.232500", "144328.722500", "144330.212500", "144331.702500", "144333.192500", "144334.682500", "144336.172500", "144337.662500", "144339.152500", "144340.642500", "144342.132500", "144343.622500", "144345.112500", "144346.602500", "144348.092500", "144349.582500", "144351.072500", "144352.562500", "144354.052500", "144355.542500", "144357.032500", "144358.522500", "144400.012500", "144401.502500", "144402.992500", "144404.482500", "144405.972500", "144407.462500", "144408.952500", "144410.442500", "144411.932500", "144413.422500", "144414.912500", "144416.402500", "144417.892500", "144419.382500", "144420.872500", "144422.362500", "144423.852500", "144425.342500", "144426.832500", "144428.322500", "144429.812500", "144431.302500", "144432.792500", "144434.282500", "144435.772500", "144437.262500", "144438.752500", "144440.242500", "144441.732500", "144443.222500", "144444.712500", "144446.202500", "144447.692500", "144449.182500", "144450.672500", "144452.162500", "144453.652500", "144455.142500", "144456.632500", "144458.122500", "144459.612500", "144501.102500", "144502.592500", "144504.082500", "144505.572500", "144507.062500", "144508.552500", "144510.042500", "144511.532500", "144513.022500", "144514.512500", "144516.002500", "144517.492500", "144518.982500", "144520.472500", "144521.962500", "144523.452500", "144524.942500", "144526.432500", "144527.922500", "144529.412500", "144530.902500", "144532.392500", "144533.882500", "144535.372500", "144536.862500", "144538.352500", "144539.842500", "144541.332500", "144542.822500", "144544.312500", "144545.802500", "144547.292500", "144548.782500", "144550.272500", "144551.762500", "144553.252500", "144554.742500", "144556.232500", "144557.722500", "144559.212500", "144600.702500", "144602.192500", "144603.682500", "144605.172500", "144606.662500", "144608.152500", "144609.642500", "144611.132500", "144612.622500", "144614.112500", "144615.602500", "144617.092500", "144618.582500", "144620.072500", "144621.562500", "144623.052500", "144624.542500", "144626.032500", "144627.522500", "144629.012500", "144630.502500", "144631.992500", "144633.482500", "144634.972500", "144636.462500", "144637.952500", "144639.442500", "144640.932500", "144642.422500", "144643.912500", "144645.402500", "144646.892500", "144648.382500", "144649.872500", "144651.362500", "144652.852500", "144654.342500", "144655.832500", "144657.322500", "144658.812500", "144700.302500", "144701.792500", "144703.282500", "144704.772500", "144706.262500", "144707.752500", "144709.242500", "144710.732500", "144712.222500", "144713.712500", "144715.202500", "144716.692500", "144718.182500", "144719.672500", "144721.162500", "144722.652500", "144724.142500", "144725.632500", "144727.122500", "144728.612500", "144730.102500", "144731.592500", "144733.082500", "144734.572500", "144736.062500", "144737.552500", "144739.042500", "144740.532500", "144742.022500", "144743.512500", "144745.002500", "144746.492500", "144747.982500", "144749.472500", "144750.962500", "144752.452500", "144753.942500", "144755.432500", "144756.922500", "144758.412500", "144759.902500", "144801.392500", "144802.882500", "144804.372500", "144805.862500", "144807.352500", "144808.842500", "144810.332500", "144811.822500", "144813.312500", "144814.802500", "144816.292500", "144817.782500", "144819.272500", "144820.762500", "144822.252500", "144823.742500", "144825.232500", "144826.722500", "144828.212500", "144829.702500", "144831.192500", "144832.682500", "144834.172500", "144835.662500", "144837.152500", "144838.642500", "144840.132500", "144841.622500", "144843.112500", "144844.602500", "144846.092500", "144847.582500", "144849.072500", "144850.562500", "144852.052500", "144853.542500", "144855.032500", "144856.522500", "144858.012500", "144859.502500", "144900.992500", "144902.482500", "144903.972500", "144905.462500", "144906.952500", "144908.442500", "144909.932500", "144911.422500", "144912.912500", "144914.402500", "144915.892500", "144917.382500", "144918.872500", "144920.362500", "144921.852500", "144923.342500", "144924.832500", "144926.322500", "144927.812500", "144929.302500", "144930.792500", "144932.282500", "144933.772500", "144935.262500", "144936.752500", "144938.242500", "144939.732500", "144941.222500", "144942.712500", "144944.202500", "144945.692500", "144947.182500", "144948.672500", "144950.162500", "144951.652500", "144953.142500", "144954.632500", "144956.122500", "144957.612500", "144959.102500", "145000.592500", "145002.082500", "145003.572500", "145005.062500", "145006.552500", "145008.042500", "145009.532500", "145011.022500", "145012.512500", "145014.002500", "145015.492500", "145016.982500", "145018.472500", "145019.962500", "145021.452500", "145022.942500", "145024.432500", "145025.922500", "145027.412500", "145028.902500", "145030.392500", "145031.882500", "145033.372500", "145034.862500", "145036.352500", "145037.842500", "145039.332500", "145040.822500", "145042.312500", "145043.802500", "145045.292500", "145046.782500", "145048.272500", "145049.762500", "145051.252500", "145052.742500", "145054.232500", "145055.722500", "145057.212500", "145058.702500", "145100.192500", "145101.682500", "145103.172500", "145104.662500", "145106.152500", "145107.642500", "145109.132500", "145110.622500", "145112.112500", "145113.602500", "145115.092500", "145116.582500", "145118.072500", "145119.562500", "145121.052500", "145122.542500", "145124.032500", "145125.522500", "145127.012500", "145128.502500", "145129.992500", "145131.482500", "145132.972500", "145134.462500", "145135.952500", "145137.442500", "145138.932500", "145140.422500", "145141.912500", "145143.402500", "145144.892500", "145146.382500", "145147.872500", "145149.362500", "145150.852500", "145152.342500", "145153.832500", "145155.322500", "145156.812500", "145158.302500", "145159.792500", "145201.282500", "145202.772500", "145204.262500", "145205.752500", "145207.242500", "145208.732500", "145210.222500", "145211.712500", "145213.202500", "145214.692500", "145216.182500", "145217.672500", "145219.162500", "145220.652500", "145222.142500", "145223.632500", "145225.122500", "145226.612500", "145228.102500", "145229.592500", "145231.082500", "145232.572500", "145234.062500", "145235.552500", "145237.042500", "145238.532500", "145240.022500", "145241.512500", "145243.002500", "145244.492500", "145245.982500", "145247.472500", "145248.962500"],
      "ContentTime": ["144252.516000", "144252.520000", "144252.522000", "144252.525000", "144252.528000", "144252.531000", "144252.534000", "144252.536000", "144252.539000", "144252.542000", "144252.545000", "144252.548000", "144252.551000", "144252.553000", "144252.556000", "144252.559000", "144252.562000", "144252.565000", "144252.567000", "144252.570000", "144252.573000", "144252.576000", "144252.579000", "144252.581000", "144252.584000", "144252.587000", "144252.590000", "144252.593000", "144252.596000", "144252.598000", "144252.601000", "144312.482000", "144312.485000", "144312.488000", "144312.490000", "144312.493000", "144312.496000", "144312.499000", "144312.502000", "144312.504000", "144312.507000", "144312.510000", "144312.513000", "144312.516000", "144312.518000", "144312.521000", "144312.524000", "144312.527000", "144312.530000", "144312.532000", "144312.535000", "144332.482000", "144332.494000", "144332.497000", "144332.500000", "144332.502000", "144332.505000", "144332.508000", "144332.511000", "144332.514000", "144332.517000", "144332.520000", "144332.523000", "144332.526000", "144332.529000", "144332.532000", "144332.535000", "144332.537000", "144332.540000", "144332.543000", "144332.546000", "144352.482000", "144352.485000", "144352.487000", "144352.490000", "144352.493000", "144352.496000", "144352.499000", "144352.501000", "144352.504000", "144352.507000", "144352.510000", "144352.513000", "144352.515000", "144352.518000", "144352.521000", "144352.524000", "144352.527000", "144352.529000", "144352.532000", "144352.535000", "144352.538000", "144432.482000", "144432.485000", "144432.488000", "144432.490000", "144432.493000", "144432.496000", "144432.499000", "144432.502000", "144432.504000", "144432.507000", "144432.510000", "144432.513000", "144432.516000", "144432.518000", "144432.521000", "144432.524000", "144432.527000", "144432.530000", "144432.533000", "144432.535000", "144432.538000", "144432.541000", "144432.544000", "144432.547000", "144432.549000", "144432.552000", "144432.555000", "144432.558000", "144432.561000", "144432.564000", "144432.567000", "144512.482000", "144512.485000", "144512.488000", "144512.491000", "144512.493000", "144512.496000", "144512.499000", "144512.502000", "144512.505000", "144512.508000", "144512.511000", "144512.516000", "144512.519000", "144512.522000", "144512.525000", "144512.527000", "144512.530000", "144512.533000", "144512.536000", "144512.539000", "144512.541000", "144512.544000", "144512.547000", "144512.550000", "144512.553000", "144512.556000", "144512.559000", "144552.482000", "144552.485000", "144552.488000", "144552.490000", "144552.493000", "144552.496000", "144552.499000", "144552.502000", "144552.505000", "144552.507000", "144552.510000", "144552.513000", "144552.516000", "144552.519000", "144552.521000", "144552.530000", "144552.533000", "144552.536000", "144552.539000", "144552.542000", "144552.545000", "144552.547000", "144552.550000", "144552.553000", "144552.556000", "144552.559000", "144552.562000", "144632.482000", "144632.485000", "144632.488000", "144632.490000", "144632.493000", "144632.496000", "144632.499000", "144632.502000", "144632.504000", "144632.507000", "144632.510000", "144632.513000", "144632.516000", "144632.518000", "144632.521000", "144632.524000", "144632.527000", "144632.530000", "144632.533000", "144632.536000", "144632.539000", "144632.542000", "144632.545000", "144632.548000", "144632.551000", "144632.553000", "144712.482000", "144712.485000", "144712.488000", "144712.490000", "144712.493000", "144712.496000", "144712.499000", "144712.502000", "144712.504000", "144712.507000", "144712.510000", "144712.513000", "144712.516000", "144712.518000", "144712.521000", "144712.524000", "144712.527000", "144712.530000", "144712.533000", "144712.535000", "144712.538000", "144712.541000", "144712.544000", "144712.547000", "144712.549000", "144712.552000", "144712.555000", "144752.482000", "144752.485000", "144752.488000", "144752.490000", "144752.493000", "144752.496000", "144752.499000", "144752.511000", "144752.513000", "144752.516000", "144752.519000", "144752.522000", "144752.525000", "144752.528000", "144752.530000", "144752.533000", "144752.536000", "144752.539000", "144752.542000", "144752.545000", "144752.547000", "144752.550000", "144752.553000", "144752.556000", "144752.576000", "144752.579000", "144752.582000", "144832.482000", "144832.485000", "144832.488000", "144832.491000", "144832.493000", "144832.496000", "144832.499000", "144832.502000", "144832.505000", "144832.507000", "144832.510000", "144832.513000", "144832.516000", "144832.519000", "144832.521000", "144832.524000", "144832.527000", "144832.530000", "144832.533000", "144832.536000", "144832.538000", "144832.541000", "144832.544000", "144832.547000", "144832.550000", "144832.552000", "144832.555000", "144912.482000", "144912.485000", "144912.488000", "144912.490000", "144912.493000", "144912.496000", "144912.499000", "144912.502000", "144912.505000", "144912.507000", "144912.510000", "144912.513000", "144912.516000", "144912.519000", "144912.521000", "144912.524000", "144912.527000", "144912.530000", "144912.533000", "144912.536000", "144912.538000", "144912.541000", "144912.544000", "144912.547000", "144912.550000", "144912.553000", "144912.555000", "144952.482000", "144952.485000", "144952.488000", "144952.490000", "144952.493000", "144952.496000", "144952.499000", "144952.502000", "144952.504000", "144952.507000", "144952.510000", "144952.513000", "144952.516000", "144952.519000", "144952.521000", "144952.524000", "144952.527000", "144952.530000", "144952.533000", "144952.535000", "144952.538000", "144952.541000", "144952.544000", "144952.547000", "144952.549000", "144952.552000", "144952.555000", "145032.481000", "145032.484000", "145032.487000", "145032.490000", "145032.493000", "145032.496000", "145032.498000", "145032.501000", "145032.504000", "145032.507000", "145032.510000", "145032.513000", "145032.516000", "145032.518000", "145032.521000", "145032.524000", "145032.527000", "145032.530000", "145032.532000", "145032.535000", "145032.538000", "145032.541000", "145032.544000", "145032.547000", "145032.550000", "145032.552000", "145112.482000", "145112.485000", "145112.488000", "145112.490000", "145112.493000", "145112.496000", "145112.499000", "145112.502000", "145112.504000", "145112.507000", "145112.510000", "145112.513000", "145112.516000", "145112.519000", "145112.521000", "145112.524000", "145112.527000", "145112.530000", "145112.533000", "145112.535000", "145112.538000", "145112.541000", "145112.544000", "145112.547000", "145112.550000", "145112.553000", "145112.555000", "145152.482000", "145152.485000", "145152.488000", "145152.490000", "145152.493000", "145152.496000", "145152.499000", "145152.502000", "145152.504000", "145152.507000", "145152.510000", "145152.513000", "145152.516000", "145152.519000", "145152.521000", "145152.524000", "145152.527000", "145152.530000", "145152.533000", "145152.535000", "145152.538000", "145152.541000", "145152.544000", "145152.547000", "145152.549000", "145152.552000", "145152.555000", "145232.482000", "145232.485000", "145232.488000", "145232.490000", "145232.493000", "145232.496000", "145232.499000", "145232.502000", "145232.504000", "145232.507000", "145232.510000", "145232.513000", "145232.516000", "145232.519000", "145232.521000", "145232.524000", "145232.527000", "145232.530000", "145232.533000", "145232.535000", "145232.538000", "145232.541000", "145232.544000", "145232.547000", "145232.565000", "145232.568000", "145232.570000", "145251.180000", "145251.186000", "145251.189000", "145251.192000", "145251.194000", "145251.197000", "145251.200000", "145251.203000", "145251.206000", "145251.209000", "145251.212000", "145251.215000", "145251.217000"],
