{
  "AcquisitionMatrixPE": 104,
  "AcquisitionNumber": 1,
  "AcquisitionTime": "13:25:5.882500",
  "BandwidthPerPixelPhaseEncode": 17.17,
  "BaseResolution": 104,
  "BodyPartExamined": "BRAIN",
  "CoilString": "HC1-7;NC1_2",
  "ConsistencyInfo": "N4_VE11C_LATEST_20160120",
  "ConversionSoftware": "dcm2niix",
  "ConversionSoftwareVersion": "v1.0.20190720  (JP2:OpenJPEG) GCC7.3.0",
  "DerivedVendorReportedEchoSpacing": 0.000560011,
  "DeviceSerialNumber": "167006",
  "DwellTime": 2.1e-06,
  "EchoTime": 0.037,
  "EchoTrainLength": 104,
  "EffectiveEchoSpacing": 0.000560011,
  "FlipAngle": 52,
  "ImageComments": "Unaliased_MB4_PE3_LB",
  "ImageOrientationPatientDICOM": [0.997778, -0.0652902, 0.0133042, 0.0653978, 0.921328, -0.383247],
  "ImageType": [
    "ORIGINAL",
    "PRIMARY",
    "M",
    "MB",
    "ND",
    "MOSAIC"
],
  "ImagingFrequency": 123.259,
  "InPlanePhaseEncodingDirectionDICOM": "COL",
  "InstitutionAddress": "Chemin_Queen-Mary_4565_Montreal_District_CA_H3W_1W5",
  "InstitutionName": "IUGM",
  "InstitutionalDepartmentName": "Department",
  "MRAcquisitionType": "2D",
  "MagneticFieldStrength": 3,
  "Manufacturer": "Siemens",
  "ManufacturersModelName": "Prisma_fit",
  "Modality": "MR",
  "MultibandAccelerationFactor": 4,
  "PartialFourier": 1,
  "PatientPosition": "HFS",
  "PercentPhaseFOV": 100,
  "PhaseEncodingDirection": "j",
  "PhaseEncodingSteps": 104,
  "PhaseResolution": 1,
  "PixelBandwidth": 2290,
  "ProcedureStepDescription": "video_friends",
  "ProtocolName": "func_task-friends-s02e05a",
  "PulseSequenceDetails": "%CustomerSeq%_cmrr_mbep2d_bold",
  "ReceiveCoilActiveElements": "HC1-7;NC1,2",
  "ReceiveCoilName": "HeadNeck_64",
  "ReconMatrixPE": 104,
  "RepetitionTime": 1.49,
  "SAR": 0.0277452,
  "ScanOptions": "FS",
  "ScanningSequence": "EP",
  "SequenceName": "epfid2d1_104",
  "SequenceVariant": "SK_SS",
  "SeriesDescription": "func_task-friends-s02e05a",
  "SeriesNumber": 11,
  "ShimSetting": [643, -7264, -8834, 562, 39, -249, -82, -14],
  "SliceThickness": 2,
  "SliceTiming": [0, 0.785, 0.0975, 0.8825, 0.1975, 0.98, 0.295, 1.0775, 0.3925, 1.1775, 0.49, 1.275, 0.5875, 1.3725, 0.6875, 0, 0.785, 0.0975, 0.8825, 0.1975, 0.98, 0.295, 1.0775, 0.3925, 1.1775, 0.49, 1.275, 0.5875, 1.3725, 0.6875, 0, 0.785, 0.0975, 0.8825, 0.1975, 0.98, 0.295, 1.0775, 0.3925, 1.1775, 0.49, 1.275, 0.5875, 1.3725, 0.6875, 0, 0.785, 0.0975, 0.8825, 0.1975, 0.98, 0.295, 1.0775, 0.3925, 1.1775, 0.49, 1.275, 0.5875, 1.3725, 0.6875],
  "SoftwareVersions": "syngo_MR_E11",
  "SpacingBetweenSlices": 2,
  "StationName": "MRC35049",
  "TaskName": "friends",
  "TotalReadoutTime": 0.0576811,
  "TxRefAmp": 219.951,
  "WipMemBlock": "672a8406-01a5-42d9-9a67-619d90bf3c35||Sequence: R016 ve11c/master r/e634e98; Dec 19 2017 11:00:25 by eja",
  "dcmmeta_affine": [
    [-1.9955552816390991, 0.13079559803009033, -0.025529570877552032, 95.7130126953125],
    [0.13058041036128998, 1.8426554203033447, -0.7665309309959412, -76.72988891601562],
    [0.026608329266309738, 0.7664942145347595, 1.8471001386642456, -69.96002197265625],
    [0.0, 0.0, 0.0, 1.0]
],
  "dcmmeta_reorient_transform": [
    [0.0, -1.0, 0.0, 103.0],
    [1.0, 0.0, 0.0, 0.0],
    [0.0, 0.0, 1.0, 0.0],
    [0.0, 0.0, 0.0, 1.0]
],
  "dcmmeta_shape": [104, 104, 60, 455],
  "dcmmeta_slice_dim": 2,
  "dcmmeta_version": 0.6,
  "global": {
    "const": {
      "AcquisitionMatrix": [104, 0, 0, 104],
      "AngioFlag": "N",
      "BitsAllocated": 16,
      "BitsStored": 16,
      "BodyPartExamined": "BRAIN",
      "Columns": 832,
      "EchoNumbers": 1,
      "EchoTime": 37.0,
      "EchoTrainLength": 104,
      "FlipAngle": 52.0,
      "HighBit": 15,
      "ImageOrientationPatient": [0.9977776248263, -0.0652902029402, 0.0133041646117, 0.06539779546057, 0.92132773019434, -0.3832471029556],
      "ImagePositionPatient": [-883.17666275145, -736.25894350062, 278.30733907895],
      "ImageType": [
        "ORIGINAL",
        "PRIMARY",
        "M",
        "MB",
        "ND",
        "MOSAIC"
],
      "ImagedNucleus": "1H",
      "ImagingFrequency": 123.259335,
      "InPlanePhaseEncodingDirection": "COL",
      "MRAcquisitionType": "2D",
      "MagneticFieldStrength": 3.0,
      "Manufacturer": "SIEMENS",
      "ManufacturerModelName": "Prisma_fit",
      "Modality": "MR",
      "NumberOfAverages": 1.0,
      "NumberOfPhaseEncodingSteps": 104,
      "PercentPhaseFieldOfView": 100.0,
      "PercentSampling": 100.0,
      "PerformedProcedureStepStartTime": "125925.462000",
      "PhotometricInterpretation": "MONOCHROME2",
      "PixelBandwidth": 2290.0,
      "PixelRepresentation": 0,
      "PixelSpacing": [2.0, 2.0],
      "ProtocolName": "func_task-friends-s02e05a",
      "RepetitionTime": 1490.0,
      "Rows": 832,
      "SAR": 0.02774516479628,
      "SamplesPerPixel": 1,
      "ScanOptions": "FS",
      "ScanningSequence": "EP",
      "SequenceName": "epfid2d1_104",
      "SequenceVariant": [
        "SK",
        "SS"
],
      "SeriesDescription": "func_task-friends-s02e05a",
      "SeriesNumber": 11,
      "SeriesTime": "132632.524000",
      "SliceLocation": -36.425422455977,
      "SliceThickness": 2.0,
      "SmallestImagePixelValue": 0,
      "SoftwareVersions": "syngo MR E11",
      "SpacingBetweenSlices": 2.0000000359876,
      "SpecificCharacterSet": "ISO_IR 100",
      "StudyID": "1",
      "StudyTime": "125925.368000",
      "TransmitCoilName": "Body",
      "VariableFlipAngleFlag": "N",
      "WindowCenterWidthExplanation": "Algo1",
      "dBdt": 0.0},
    "slices": {}
  },
  "time": {
    "samples": {
      "AcquisitionNumber": [1, 2, 3, 4, 5, 6, 7, 8, 9, 10, 11, 12, 13, 14, 15, 16, 17, 18, 19, 20, 21, 22, 23, 24, 25, 26, 27, 28, 29, 30, 31, 32, 33, 34, 35, 36, 37, 38, 39, 40, 41, 42, 43, 44, 45, 46, 47, 48, 49, 50, 51, 52, 53, 54, 55, 56, 57, 58, 59, 60, 61, 62, 63, 64, 65, 66, 67, 68, 69, 70, 71, 72, 73, 74, 75, 76, 77, 78, 79, 80, 81, 82, 83, 84, 85, 86, 87, 88, 89, 90, 91, 92, 93, 94, 95, 96, 97, 98, 99, 100, 101, 102, 103, 104, 105, 106, 107, 108, 109, 110, 111, 112, 113, 114, 115, 116, 117, 118, 119, 120, 121, 122, 123, 124, 125, 126, 127, 128, 129, 130, 131, 132, 133, 134, 135, 136, 137, 138, 139, 140, 141, 142, 143, 144, 145, 146, 147, 148, 149, 150, 151, 152, 153, 154, 155, 156, 157, 158, 159, 160, 161, 162, 163, 164, 165, 166, 167, 168, 169, 170, 171, 172, 173, 174, 175, 176, 177, 178, 179, 180, 181, 182, 183, 184, 185, 186, 187, 188, 189, 190, 191, 192, 193, 194, 195, 196, 197, 198, 199, 200, 201, 202, 203, 204, 205, 206, 207, 208, 209, 210, 211, 212, 213, 214, 215, 216, 217, 218, 219, 220, 221, 222, 223, 224, 225, 226, 227, 228, 229, 230, 231, 232, 233, 234, 235, 236, 237, 238, 239, 240, 241, 242, 243, 244, 245, 246, 247, 248, 249, 250, 251, 252, 253, 254, 255, 256, 257, 258, 259, 260, 261, 262, 263, 264, 265, 266, 267, 268, 269, 270, 271, 272, 273, 274, 275, 276, 277, 278, 279, 280, 281, 282, 283, 284, 285, 286, 287, 288, 289, 290, 291, 292, 293, 294, 295, 296, 297, 298, 299, 300, 301, 302, 303, 304, 305, 306, 307, 308, 309, 310, 311, 312, 313, 314, 315, 316, 317, 318, 319, 320, 321, 322, 323, 324, 325, 326, 327, 328, 329, 330, 331, 332, 333, 334, 335, 336, 337, 338, 339, 340, 341, 342, 343, 344, 345, 346, 347, 348, 349, 350, 351, 352, 353, 354, 355, 356, 357, 358, 359, 360, 361, 362, 363, 364, 365, 366, 367, 368, 369, 370, 371, 372, 373, 374, 375, 376, 377, 378, 379, 380, 381, 382, 383, 384, 385, 386, 387, 388, 389, 390, 391, 392, 393, 394, 395, 396, 397, 398, 399, 400, 401, 402, 403, 404, 405, 406, 407, 408, 409, 410, 411, 412, 413, 414, 415, 416, 417, 418, 419, 420, 421, 422, 423, 424, 425, 426, 427, 428, 429, 430, 431, 432, 433, 434, 435, 436, 437, 438, 439, 440, 441, 442, 443, 444, 445, 446, 447, 448, 449, 450, 451, 452, 453, 454, 455],
      "AcquisitionTime": ["132505.882500", "132507.372500", "132508.862500", "132510.352500", "132511.842500", "132513.332500", "132514.822500", "132516.312500", "132517.802500", "132519.292500", "132520.782500", "132522.272500", "132523.762500", "132525.252500", "132526.742500", "132528.232500", "132529.722500", "132531.212500", "132532.702500", "132534.192500", "132535.682500", "132537.172500", "132538.662500", "132540.152500", "132541.642500", "132543.132500", "132544.622500", "132546.112500", "132547.602500", "132549.092500", "132550.582500", "132552.072500", "132553.562500", "132555.052500", "132556.542500", "132558.032500", "132559.522500", "132601.012500", "132602.502500", "132603.992500", "132605.482500", "132606.972500", "132608.462500", "132609.952500", "132611.442500", "132612.932500", "132614.422500", "132615.912500", "132617.402500", "132618.892500", "132620.382500", "132621.872500", "132623.362500", "132624.852500", "132626.342500", "132627.832500", "132629.322500", "132630.812500", "132632.302500", "132633.792500", "132635.282500", "132636.772500", "132638.262500", "132639.752500", "132641.242500", "132642.732500", "132644.222500", "132645.712500", "132647.202500", "132648.692500", "132650.182500", "132651.672500", "132653.162500", "132654.652500", "132656.142500", "132657.632500", "132659.122500", "132700.612500", "132702.102500", "132703.592500", "132705.082500", "132706.572500", "132708.062500", "132709.552500", "132711.042500", "132712.532500", "132714.022500", "132715.512500", "132717.002500", "132718.492500", "132719.982500", "132721.472500", "132722.962500", "132724.452500", "132725.942500", "132727.432500", "132728.922500", "132730.412500", "132731.902500", "132733.392500", "132734.882500", "132736.372500", "132737.862500", "132739.352500", "132740.842500", "132742.332500", "132743.822500", "132745.312500", "132746.802500", "132748.292500", "132749.782500", "132751.272500", "132752.762500", "132754.252500", "132755.742500", "132757.232500", "132758.722500", "132800.212500", "132801.702500", "132803.192500", "132804.682500", "132806.172500", "132807.662500", "132809.152500", "132810.642500", "132812.132500", "132813.622500", "132815.112500", "132816.602500", "132818.092500", "132819.582500", "132821.072500", "132822.562500", "132824.052500", "132825.542500", "132827.032500", "132828.522500", "132830.012500", "132831.502500", "132832.992500", "132834.482500", "132835.972500", "132837.462500", "132838.952500", "132840.442500", "132841.932500", "132843.422500", "132844.912500", "132846.402500", "132847.892500", "132849.382500", "132850.872500", "132852.362500", "132853.852500", "132855.342500", "132856.832500", "132858.322500", "132859.812500", "132901.302500", "132902.792500", "132904.282500", "132905.772500", "132907.262500", "132908.752500", "132910.242500", "132911.732500", "132913.222500", "132914.712500", "132916.202500", "132917.692500", "132919.182500", "132920.672500", "132922.162500", "132923.652500", "132925.142500", "132926.632500", "132928.122500", "132929.612500", "132931.102500", "132932.592500", "132934.082500", "132935.572500", "132937.062500", "132938.552500", "132940.042500", "132941.532500", "132943.022500", "132944.512500", "132946.002500", "132947.492500", "132948.982500", "132950.472500", "132951.962500", "132953.452500", "132954.942500", "132956.432500", "132957.922500", "132959.412500", "133000.902500", "133002.392500", "133003.882500", "133005.372500", "133006.862500", "133008.352500", "133009.842500", "133011.332500", "133012.822500", "133014.312500", "133015.802500", "133017.292500", "133018.782500", "133020.272500", "133021.762500", "133023.252500", "133024.742500", "133026.232500", "133027.722500", "133029.212500", "133030.702500", "133032.192500", "133033.682500", "133035.172500", "133036.662500", "133038.152500", "133039.642500", "133041.132500", "133042.622500", "133044.112500", "133045.602500", "133047.092500", "133048.582500", "133050.072500", "133051.562500", "133053.052500", "133054.542500", "133056.032500", "133057.522500", "133059.012500", "133100.502500", "133101.992500", "133103.482500", "133104.972500", "133106.462500", "133107.952500", "133109.442500", "133110.932500", "133112.422500", "133113.912500", "133115.402500", "133116.892500", "133118.382500", "133119.872500", "133121.362500", "133122.852500", "133124.342500", "133125.832500", "133127.322500", "133128.812500", "133130.302500", "133131.792500", "133133.282500", "133134.772500", "133136.262500", "133137.752500", "133139.242500", "133140.732500", "133142.222500", "133143.712500", "133145.202500", "133146.692500", "133148.182500", "133149.672500", "133151.162500", "133152.652500", "133154.142500", "133155.632500", "133157.122500", "133158.612500", "133200.102500", "133201.592500", "133203.082500", "133204.572500", "133206.062500", "133207.552500", "133209.042500", "133210.532500", "133212.022500", "133213.512500", "133215.002500", "133216.492500", "133217.982500", "133219.472500", "133220.962500", "133222.452500", "133223.942500", "133225.432500", "133226.922500", "133228.412500", "133229.902500", "133231.392500", "133232.882500", "133234.372500", "133235.862500", "133237.352500", "133238.842500", "133240.332500", "133241.822500", "133243.312500", "133244.802500", "133246.292500", "133247.782500", "133249.272500", "133250.762500", "133252.252500", "133253.742500", "133255.232500", "133256.722500", "133258.212500", "133259.702500", "133301.192500", "133302.682500", "133304.172500", "133305.662500", "133307.152500", "133308.642500", "133310.132500", "133311.622500", "133313.112500", "133314.602500", "133316.092500", "133317.582500", "133319.072500", "133320.562500", "133322.052500", "133323.542500", "133325.032500", "133326.522500", "133328.012500", "133329.502500", "133330.992500", "133332.482500", "133333.972500", "133335.462500", "133336.952500", "133338.442500", "133339.932500", "133341.422500", "133342.912500", "133344.402500", "133345.892500", "133347.382500", "133348.872500", "133350.362500", "133351.852500", "133353.342500", "133354.832500", "133356.322500", "133357.812500", "133359.302500", "133400.792500", "133402.282500", "133403.772500", "133405.262500", "133406.752500", "133408.242500", "133409.732500", "133411.222500", "133412.712500", "133414.202500", "133415.692500", "133417.182500", "133418.672500", "133420.162500", "133421.652500", "133423.142500", "133424.632500", "133426.122500", "133427.612500", "133429.102500", "133430.592500", "133432.082500", "133433.572500", "133435.062500", "133436.552500", "133438.042500", "133439.532500", "133441.022500", "133442.512500", "133444.002500", "133445.492500", "133446.982500", "133448.472500", "133449.962500", "133451.452500", "133452.942500", "133454.432500", "133455.922500", "133457.412500", "133458.902500", "133500.392500", "133501.882500", "133503.372500", "133504.862500", "133506.352500", "133507.842500", "133509.332500", "133510.822500", "133512.312500", "133513.802500", "133515.292500", "133516.782500", "133518.272500", "133519.762500", "133521.252500", "133522.742500", "133524.232500", "133525.722500", "133527.212500", "133528.702500", "133530.192500", "133531.682500", "133533.172500", "133534.662500", "133536.152500", "133537.642500", "133539.132500", "133540.622500", "133542.112500", "133543.602500", "133545.092500", "133546.582500", "133548.072500", "133549.562500", "133551.052500", "133552.542500", "133554.032500", "133555.522500", "133557.012500", "133558.502500", "133559.992500", "133601.482500", "133602.972500", "133604.462500", "133605.952500", "133607.442500", "133608.932500", "133610.422500", "133611.912500", "133613.402500", "133614.892500", "133616.382500", "133617.872500", "133619.362500", "133620.852500", "133622.342500"],
      "ContentTime": ["132632.527000", "132632.531000", "132632.534000", "132632.536000", "132632.539000", "132632.542000", "132632.545000", "132632.548000", "132632.551000", "132632.553000", "132632.556000", "132632.559000", "132632.562000", "132632.571000", "132632.573000", "132632.576000", "132632.579000", "132632.582000", "132632.585000", "132632.587000", "132632.590000", "132632.593000", "132632.596000", "132632.599000", "132632.602000", "132632.605000", "132632.607000", "132632.610000", "132632.613000", "132632.620000", "132632.623000", "132632.626000", "132652.482000", "132652.485000", "132652.488000", "132652.491000", "132652.493000", "132652.496000", "132652.499000", "132652.502000", "132652.505000", "132652.508000", "132652.510000", "132652.513000", "132652.516000", "132652.519000", "132652.522000", "132652.525000", "132652.528000", "132652.530000", "132652.533000", "132652.536000", "132712.482000", "132712.485000", "132712.487000", "132712.490000", "132712.493000", "132712.496000", "132712.499000", "132712.506000", "132712.509000", "132712.511000", "132712.514000", "132712.517000", "132712.520000", "132712.523000", "132712.526000", "132712.528000", "132712.531000", "132712.534000", "132712.537000", "132712.540000", "132712.543000", "132732.482000", "132732.485000", "132732.487000", "132732.490000", "132732.493000", "132732.496000", "132732.499000", "132732.502000", "132732.504000", "132732.514000", "132732.517000", "132732.520000", "132732.523000", "132732.525000", "132732.528000", "132732.531000", "132732.534000", "132732.537000", "132732.539000", "132732.542000", "132752.482000", "132752.485000", "132752.488000", "132752.491000", "132752.493000", "132752.496000", "132752.499000", "132752.502000", "132752.504000", "132752.507000", "132752.510000", "132752.513000", "132752.516000", "132752.519000", "132752.521000", "132752.524000", "132752.527000", "132752.530000", "132832.482000", "132832.485000", "132832.487000", "132832.490000", "132832.493000", "132832.496000", "132832.499000", "132832.502000", "132832.504000", "132832.507000", "132832.510000", "132832.513000", "132832.516000", "132832.519000", "132832.521000", "132832.524000", "132832.527000", "132832.530000", "132832.533000", "132832.536000", "132832.538000", "132832.541000", "132832.544000", "132832.547000", "132832.550000", "132832.553000", "132832.556000", "132912.482000", "132912.485000", "132912.488000", "132912.491000", "132912.494000", "132912.496000", "132912.499000", "132912.502000", "132912.505000", "132912.508000", "132912.510000", "132912.513000", "132912.516000", "132912.519000", "132912.522000", "132912.525000", "132912.527000", "132912.530000", "132912.533000", "132912.536000", "132912.539000", "132912.542000", "132912.545000", "132912.547000", "132912.550000", "132912.553000", "132912.556000", "132952.482000", "132952.485000", "132952.488000", "132952.490000", "132952.493000", "132952.496000", "132952.499000", "132952.502000", "132952.505000", "132952.507000", "132952.510000", "132952.513000", "132952.516000", "132952.519000", "132952.522000", "132952.524000", "132952.527000", "132952.544000", "132952.547000", "132952.550000", "132952.553000", "132952.556000", "132952.559000", "132952.562000", "132952.564000", "132952.567000", "132952.570000", "133032.482000", "133032.485000", "133032.488000", "133032.491000", "133032.494000", "133032.496000", "133032.499000", "133032.502000", "133032.505000", "133032.508000", "133032.511000", "133032.513000", "133032.516000", "133032.519000", "133032.522000", "133032.525000", "133032.528000", "133032.531000", "133032.534000", "133032.537000", "133032.540000", "133032.542000", "133032.546000", "133032.549000", "133032.552000", "133032.555000", "133112.482000", "133112.485000", "133112.488000", "133112.491000", "133112.493000", "133112.496000", "133112.499000", "133112.502000", "133112.505000", "133112.507000", "133112.510000", "133112.513000", "133112.516000", "133112.519000", "133112.521000", "133112.524000", "133112.527000", "133112.530000", "133112.533000", "133112.536000", "133112.539000", "133112.541000", "133112.544000", "133112.547000", "133112.550000", "133112.553000", "133112.555000", "133152.482000", "133152.485000", "133152.488000", "133152.491000", "133152.493000", "133152.496000", "133152.499000", "133152.502000", "133152.505000", "133152.508000", "133152.510000", "133152.513000", "133152.516000", "133152.519000", "133152.522000", "133152.525000", "133152.528000", "133152.531000", "133152.533000", "133152.536000", "133152.539000", "133152.542000", "133152.545000", "133152.548000", "133152.551000", "133152.553000", "133152.556000", "133232.482000", "133232.485000", "133232.495000", "133232.498000", "133232.501000", "133232.504000", "133232.507000", "133232.510000", "133232.513000", "133232.515000", "133232.518000", "133232.521000", "133232.524000", "133232.527000", "133232.530000", "133232.533000", "133232.535000", "133232.538000", "133232.541000", "133232.544000", "133232.547000", "133232.550000", "133232.552000", "133232.555000", "133232.558000", "133232.561000", "133232.564000", "133312.482000", "133312.485000", "133312.488000", "133312.491000", "133312.494000", "133312.497000", "133312.499000", "133312.502000", "133312.505000", "133312.508000", "133312.511000", "133312.514000", "133312.517000", "133312.520000", "133312.523000", "133312.525000", "133312.528000", "133312.531000", "133312.534000", "133312.537000", "133312.540000", "133312.542000", "133312.546000", "133312.549000", "133312.552000", "133312.555000", "133312.558000", "133352.482000", "133352.485000", "133352.488000", "133352.491000", "133352.494000", "133352.497000", "133352.500000", "133352.502000", "133352.505000", "133352.508000", "133352.511000", "133352.514000", "133352.517000", "133352.519000", "133352.522000", "133352.525000", "133352.528000", "133352.531000", "133352.534000", "133352.536000", "133352.539000", "133352.542000", "133352.545000", "133352.548000", "133352.551000", "133352.554000", "133352.557000", "133432.482000", "133432.485000", "133432.488000", "133432.491000", "133432.494000", "133432.496000", "133432.499000", "133432.502000", "133432.505000", "133432.508000", "133432.515000", "133432.518000", "133432.538000", "133432.549000", "133432.552000", "133432.555000", "133432.558000", "133432.561000", "133432.564000", "133432.567000", "133432.569000", "133432.572000", "133432.575000", "133432.578000", "133432.581000", "133432.584000", "133432.587000", "133512.482000", "133512.485000", "133512.488000", "133512.490000", "133512.493000", "133512.496000", "133512.499000", "133512.502000", "133512.505000", "133512.508000", "133512.510000", "133512.522000", "133512.525000", "133512.528000", "133512.531000", "133512.534000", "133512.537000", "133512.540000", "133512.542000", "133512.545000", "133512.548000", "133512.551000", "133512.554000", "133512.556000", "133512.559000", "133512.562000", "133552.482000", "133552.485000", "133552.488000", "133552.491000", "133552.493000", "133552.496000", "133552.499000", "133552.502000", "133552.505000", "133552.508000", "133552.511000", "133552.513000", "133552.516000", "133552.519000", "133552.522000", "133552.525000", "133552.528000", "133552.531000", "133552.533000", "133552.536000", "133552.539000", "133552.542000", "133552.545000", "133552.547000", "133552.550000", "133552.553000", "133552.556000", "133624.243000", "133624.246000", "133624.249000", "133624.252000", "133624.255000", "133624.258000", "133624.260000", "133624.263000", "133624.266000", "133624.270000", "133624.273000", "133624.276000", "133624.279000", "133624.282000", "133624.285000", "133624.288000", "133624.291000", "133624.294000", "133624.297000", "133624.300000", "133624.303000", "133624.306000"],
