{
  "AcquisitionMatrixPE": 104,
  "AcquisitionNumber": 1,
  "AcquisitionTime": "14:53:30.202500",
  "BandwidthPerPixelPhaseEncode": 17.17,
  "BaseResolution": 104,
  "BodyPartExamined": "BRAIN",
  "CoilString": "HC1-7;NC1_2",
  "ConsistencyInfo": "N4_VE11C_LATEST_20160120",
  "ConversionSoftware": "dcm2niix",
  "ConversionSoftwareVersion": "v1.0.20190720  (JP2:OpenJPEG) GCC7.3.0",
  "DerivedVendorReportedEchoSpacing": 0.000560011,
  "DeviceSerialNumber": "167006",
  "DwellTime": 2.1e-06,
  "EchoTime": 0.037,
  "EchoTrainLength": 104,
  "EffectiveEchoSpacing": 0.000560011,
  "FlipAngle": 52,
  "ImageComments": "Unaliased_MB4_PE3_LB",
  "ImageOrientationPatientDICOM": [0.997778, -0.0652902, 0.0133042, 0.0653978, 0.921328, -0.383247],
  "ImageType": [
    "ORIGINAL",
    "PRIMARY",
    "M",
    "MB",
    "ND",
    "MOSAIC"
],
  "ImagingFrequency": 123.259,
  "InPlanePhaseEncodingDirectionDICOM": "COL",
  "InstitutionAddress": "Chemin_Queen-Mary_4565_Montreal_District_CA_H3W_1W5",
  "InstitutionName": "IUGM",
  "InstitutionalDepartmentName": "Department",
  "MRAcquisitionType": "2D",
  "MagneticFieldStrength": 3,
  "Manufacturer": "Siemens",
  "ManufacturersModelName": "Prisma_fit",
  "Modality": "MR",
  "MultibandAccelerationFactor": 4,
  "PartialFourier": 1,
  "PatientPosition": "HFS",
  "PercentPhaseFOV": 100,
  "PhaseEncodingDirection": "j",
  "PhaseEncodingSteps": 104,
  "PhaseResolution": 1,
  "PixelBandwidth": 2290,
  "ProcedureStepDescription": "video_friends",
  "ProtocolName": "func_task-friends-s02e08b",
  "PulseSequenceDetails": "%CustomerSeq%_cmrr_mbep2d_bold",
  "ReceiveCoilActiveElements": "HC1-7;NC1,2",
  "ReceiveCoilName": "HeadNeck_64",
  "ReconMatrixPE": 104,
  "RepetitionTime": 1.49,
  "SAR": 0.027746,
  "ScanOptions": "FS",
  "ScanningSequence": "EP",
  "SequenceName": "epfid2d1_104",
  "SequenceVariant": "SK_SS",
  "SeriesDescription": "func_task-friends-s02e08b",
  "SeriesNumber": 25,
  "ShimSetting": [643, -7264, -8834, 562, 39, -249, -82, -14],
  "SliceThickness": 2,
  "SliceTiming": [0, 0.785, 0.1, 0.8825, 0.1975, 0.98, 0.295, 1.0775, 0.3925, 1.1775, 0.49, 1.275, 0.5875, 1.3725, 0.6875, 0, 0.785, 0.1, 0.8825, 0.1975, 0.98, 0.295, 1.0775, 0.3925, 1.1775, 0.49, 1.275, 0.5875, 1.3725, 0.6875, 0, 0.785, 0.1, 0.8825, 0.1975, 0.98, 0.295, 1.0775, 0.3925, 1.1775, 0.49, 1.275, 0.5875, 1.3725, 0.6875, 0, 0.785, 0.1, 0.8825, 0.1975, 0.98, 0.295, 1.0775, 0.3925, 1.1775, 0.49, 1.275, 0.5875, 1.3725, 0.6875],
  "SoftwareVersions": "syngo_MR_E11",
  "SpacingBetweenSlices": 2,
  "StationName": "MRC35049",
  "TaskName": "friends",
  "TotalReadoutTime": 0.0576811,
  "TxRefAmp": 219.951,
  "WipMemBlock": "ca96bc31-62e5-41bf-a1aa-85f4758b30c0||Sequence: R016 ve11c/master r/e634e98; Dec 19 2017 11:00:25 by eja",
  "dcmmeta_affine": [
    [-1.9955552816390991, 0.13079559803009033, -0.025529570877552032, 95.7130126953125],
    [0.13058041036128998, 1.8426554203033447, -0.7665309309959412, -76.72988891601562],
    [0.026608329266309738, 0.7664942145347595, 1.8471001386642456, -69.96002197265625],
    [0.0, 0.0, 0.0, 1.0]
],
  "dcmmeta_reorient_transform": [
    [0.0, -1.0, 0.0, 103.0],
    [1.0, 0.0, 0.0, 0.0],
    [0.0, 0.0, 1.0, 0.0],
    [0.0, 0.0, 0.0, 1.0]
],
  "dcmmeta_shape": [104, 104, 60, 458],
  "dcmmeta_slice_dim": 2,
  "dcmmeta_version": 0.6,
  "global": {
    "const": {
      "AcquisitionMatrix": [104, 0, 0, 104],
      "AngioFlag": "N",
      "BitsAllocated": 16,
      "BitsStored": 16,
      "BodyPartExamined": "BRAIN",
      "Columns": 832,
      "EchoNumbers": 1,
      "EchoTime": 37.0,
      "EchoTrainLength": 104,
      "FlipAngle": 52.0,
      "HighBit": 15,
      "ImageOrientationPatient": [0.9977776248263, -0.0652902029402, 0.0133041646117, 0.06539779546057, 0.92132773019434, -0.3832471029556],
      "ImagePositionPatient": [-883.17666275145, -736.25894350062, 278.30733907895],
      "ImageType": [
        "ORIGINAL",
        "PRIMARY",
        "M",
        "MB",
        "ND",
        "MOSAIC"
],
      "ImagedNucleus": "1H",
      "ImagingFrequency": 123.259368,
      "InPlanePhaseEncodingDirection": "COL",
      "MRAcquisitionType": "2D",
      "MagneticFieldStrength": 3.0,
      "Manufacturer": "SIEMENS",
      "ManufacturerModelName": "Prisma_fit",
      "Modality": "MR",
      "NumberOfAverages": 1.0,
      "NumberOfPhaseEncodingSteps": 104,
      "PercentPhaseFieldOfView": 100.0,
      "PercentSampling": 100.0,
      "PerformedProcedureStepStartTime": "125925.462000",
      "PhotometricInterpretation": "MONOCHROME2",
      "PixelBandwidth": 2290.0,
      "PixelRepresentation": 0,
      "PixelSpacing": [2.0, 2.0],
      "ProtocolName": "func_task-friends-s02e08b",
      "RepetitionTime": 1490.0,
      "Rows": 832,
      "SAR": 0.02774595031373,
      "SamplesPerPixel": 1,
      "ScanOptions": "FS",
      "ScanningSequence": "EP",
      "SequenceName": "epfid2d1_104",
      "SequenceVariant": [
        "SK",
        "SS"
],
      "SeriesDescription": "func_task-friends-s02e08b",
      "SeriesNumber": 25,
      "SeriesTime": "145448.866000",
      "SliceLocation": -36.425422455977,
      "SliceThickness": 2.0,
      "SmallestImagePixelValue": 0,
      "SoftwareVersions": "syngo MR E11",
      "SpacingBetweenSlices": 2.0000000359876,
      "SpecificCharacterSet": "ISO_IR 100",
      "StudyID": "1",
      "StudyTime": "125925.368000",
      "TransmitCoilName": "Body",
      "VariableFlipAngleFlag": "N",
      "WindowCenterWidthExplanation": "Algo1",
      "dBdt": 0.0},
    "slices": {}
  },
  "time": {
    "samples": {
      "AcquisitionNumber": [1, 2, 3, 4, 5, 6, 7, 8, 9, 10, 11, 12, 13, 14, 15, 16, 17, 18, 19, 20, 21, 22, 23, 24, 25, 26, 27, 28, 29, 30, 31, 32, 33, 34, 35, 36, 37, 38, 39, 40, 41, 42, 43, 44, 45, 46, 47, 48, 49, 50, 51, 52, 53, 54, 55, 56, 57, 58, 59, 60, 61, 62, 63, 64, 65, 66, 67, 68, 69, 70, 71, 72, 73, 74, 75, 76, 77, 78, 79, 80, 81, 82, 83, 84, 85, 86, 87, 88, 89, 90, 91, 92, 93, 94, 95, 96, 97, 98, 99, 100, 101, 102, 103, 104, 105, 106, 107, 108, 109, 110, 111, 112, 113, 114, 115, 116, 117, 118, 119, 120, 121, 122, 123, 124, 125, 126, 127, 128, 129, 130, 131, 132, 133, 134, 135, 136, 137, 138, 139, 140, 141, 142, 143, 144, 145, 146, 147, 148, 149, 150, 151, 152, 153, 154, 155, 156, 157, 158, 159, 160, 161, 162, 163, 164, 165, 166, 167, 168, 169, 170, 171, 172, 173, 174, 175, 176, 177, 178, 179, 180, 181, 182, 183, 184, 185, 186, 187, 188, 189, 190, 191, 192, 193, 194, 195, 196, 197, 198, 199, 200, 201, 202, 203, 204, 205, 206, 207, 208, 209, 210, 211, 212, 213, 214, 215, 216, 217, 218, 219, 220, 221, 222, 223, 224, 225, 226, 227, 228, 229, 230, 231, 232, 233, 234, 235, 236, 237, 238, 239, 240, 241, 242, 243, 244, 245, 246, 247, 248, 249, 250, 251, 252, 253, 254, 255, 256, 257, 258, 259, 260, 261, 262, 263, 264, 265, 266, 267, 268, 269, 270, 271, 272, 273, 274, 275, 276, 277, 278, 279, 280, 281, 282, 283, 284, 285, 286, 287, 288, 289, 290, 291, 292, 293, 294, 295, 296, 297, 298, 299, 300, 301, 302, 303, 304, 305, 306, 307, 308, 309, 310, 311, 312, 313, 314, 315, 316, 317, 318, 319, 320, 321, 322, 323, 324, 325, 326, 327, 328, 329, 330, 331, 332, 333, 334, 335, 336, 337, 338, 339, 340, 341, 342, 343, 344, 345, 346, 347, 348, 349, 350, 351, 352, 353, 354, 355, 356, 357, 358, 359, 360, 361, 362, 363, 364, 365, 366, 367, 368, 369, 370, 371, 372, 373, 374, 375, 376, 377, 378, 379, 380, 381, 382, 383, 384, 385, 386, 387, 388, 389, 390, 391, 392, 393, 394, 395, 396, 397, 398, 399, 400, 401, 402, 403, 404, 405, 406, 407, 408, 409, 410, 411, 412, 413, 414, 415, 416, 417, 418, 419, 420, 421, 422, 423, 424, 425, 426, 427, 428, 429, 430, 431, 432, 433, 434, 435, 436, 437, 438, 439, 440, 441, 442, 443, 444, 445, 446, 447, 448, 449, 450, 451, 452, 453, 454, 455, 456, 457, 458],
      "AcquisitionTime": ["145330.202500", "145331.692500", "145333.182500", "145334.672500", "145336.162500", "145337.652500", "145339.142500", "145340.632500", "145342.122500", "145343.612500", "145345.102500", "145346.592500", "145348.082500", "145349.572500", "145351.062500", "145352.552500", "145354.042500", "145355.532500", "145357.022500", "145358.512500", "145400.002500", "145401.492500", "145402.982500", "145404.472500", "145405.962500", "145407.452500", "145408.942500", "145410.432500", "145411.922500", "145413.412500", "145414.902500", "145416.392500", "145417.882500", "145419.372500", "145420.862500", "145422.352500", "145423.842500", "145425.332500", "145426.822500", "145428.312500", "145429.802500", "145431.292500", "145432.782500", "145434.272500", "145435.762500", "145437.252500", "145438.742500", "145440.232500", "145441.722500", "145443.212500", "145444.702500", "145446.192500", "145447.682500", "145449.172500", "145450.662500", "145452.152500", "145453.642500", "145455.132500", "145456.622500", "145458.112500", "145459.602500", "145501.092500", "145502.582500", "145504.072500", "145505.562500", "145507.052500", "145508.542500", "145510.032500", "145511.522500", "145513.012500", "145514.502500", "145515.992500", "145517.482500", "145518.972500", "145520.462500", "145521.952500", "145523.442500", "145524.932500", "145526.422500", "145527.912500", "145529.402500", "145530.892500", "145532.382500", "145533.872500", "145535.362500", "145536.852500", "145538.342500", "145539.832500", "145541.322500", "145542.812500", "145544.302500", "145545.792500", "145547.282500", "145548.772500", "145550.262500", "145551.752500", "145553.242500", "145554.732500", "145556.222500", "145557.712500", "145559.202500", "145600.692500", "145602.182500", "145603.672500", "145605.162500", "145606.652500", "145608.142500", "145609.632500", "145611.122500", "145612.612500", "145614.102500", "145615.592500", "145617.082500", "145618.572500", "145620.062500", "145621.552500", "145623.042500", "145624.532500", "145626.022500", "145627.512500", "145629.002500", "145630.492500", "145631.982500", "145633.472500", "145634.962500", "145636.452500", "145637.942500", "145639.432500", "145640.922500", "145642.412500", "145643.902500", "145645.392500", "145646.882500", "145648.372500", "145649.862500", "145651.352500", "145652.842500", "145654.332500", "145655.822500", "145657.312500", "145658.802500", "145700.292500", "145701.782500", "145703.272500", "145704.762500", "145706.252500", "145707.742500", "145709.232500", "145710.722500", "145712.212500", "145713.702500", "145715.192500", "145716.682500", "145718.172500", "145719.662500", "145721.152500", "145722.642500", "145724.132500", "145725.622500", "145727.112500", "145728.602500", "145730.092500", "145731.582500", "145733.072500", "145734.562500", "145736.052500", "145737.542500", "145739.032500", "145740.522500", "145742.012500", "145743.502500", "145744.992500", "145746.482500", "145747.972500", "145749.462500", "145750.952500", "145752.442500", "145753.932500", "145755.422500", "145756.912500", "145758.402500", "145759.892500", "145801.382500", "145802.872500", "145804.362500", "145805.852500", "145807.342500", "145808.832500", "145810.322500", "145811.812500", "145813.302500", "145814.792500", "145816.282500", "145817.772500", "145819.262500", "145820.752500", "145822.242500", "145823.732500", "145825.222500", "145826.712500", "145828.202500", "145829.692500", "145831.182500", "145832.672500", "145834.162500", "145835.652500", "145837.142500", "145838.632500", "145840.122500", "145841.612500", "145843.102500", "145844.592500", "145846.082500", "145847.572500", "145849.062500", "145850.552500", "145852.042500", "145853.532500", "145855.022500", "145856.512500", "145858.002500", "145859.492500", "145900.982500", "145902.472500", "145903.962500", "145905.452500", "145906.942500", "145908.432500", "145909.922500", "145911.412500", "145912.902500", "145914.392500", "145915.882500", "145917.372500", "145918.862500", "145920.352500", "145921.842500", "145923.332500", "145924.822500", "145926.312500", "145927.802500", "145929.292500", "145930.782500", "145932.272500", "145933.762500", "145935.252500", "145936.742500", "145938.232500", "145939.722500", "145941.212500", "145942.702500", "145944.192500", "145945.682500", "145947.172500", "145948.662500", "145950.152500", "145951.642500", "145953.132500", "145954.622500", "145956.112500", "145957.602500", "145959.092500", "150000.582500", "150002.072500", "150003.562500", "150005.052500", "150006.542500", "150008.032500", "150009.522500", "150011.012500", "150012.502500", "150013.992500", "150015.482500", "150016.972500", "150018.462500", "150019.952500", "150021.442500", "150022.932500", "150024.422500", "150025.912500", "150027.402500", "150028.892500", "150030.382500", "150031.872500", "150033.362500", "150034.852500", "150036.342500", "150037.832500", "150039.322500", "150040.812500", "150042.302500", "150043.792500", "150045.282500", "150046.772500", "150048.262500", "150049.752500", "150051.242500", "150052.732500", "150054.222500", "150055.712500", "150057.202500", "150058.692500", "150100.182500", "150101.672500", "150103.162500", "150104.652500", "150106.142500", "150107.632500", "150109.122500", "150110.612500", "150112.102500", "150113.592500", "150115.082500", "150116.572500", "150118.062500", "150119.552500", "150121.042500", "150122.532500", "150124.022500", "150125.512500", "150127.002500", "150128.492500", "150129.982500", "150131.472500", "150132.962500", "150134.452500", "150135.942500", "150137.432500", "150138.922500", "150140.412500", "150141.902500", "150143.392500", "150144.882500", "150146.372500", "150147.862500", "150149.352500", "150150.842500", "150152.332500", "150153.822500", "150155.312500", "150156.802500", "150158.292500", "150159.782500", "150201.272500", "150202.762500", "150204.252500", "150205.742500", "150207.232500", "150208.722500", "150210.212500", "150211.702500", "150213.192500", "150214.682500", "150216.172500", "150217.662500", "150219.152500", "150220.642500", "150222.132500", "150223.622500", "150225.112500", "150226.602500", "150228.092500", "150229.582500", "150231.072500", "150232.562500", "150234.052500", "150235.542500", "150237.032500", "150238.522500", "150240.012500", "150241.502500", "150242.992500", "150244.482500", "150245.972500", "150247.462500", "150248.952500", "150250.442500", "150251.932500", "150253.422500", "150254.912500", "150256.402500", "150257.892500", "150259.382500", "150300.872500", "150302.362500", "150303.852500", "150305.342500", "150306.832500", "150308.322500", "150309.812500", "150311.302500", "150312.792500", "150314.282500", "150315.772500", "150317.262500", "150318.752500", "150320.242500", "150321.732500", "150323.222500", "150324.712500", "150326.202500", "150327.692500", "150329.182500", "150330.672500", "150332.162500", "150333.652500", "150335.142500", "150336.632500", "150338.122500", "150339.612500", "150341.102500", "150342.592500", "150344.082500", "150345.572500", "150347.062500", "150348.552500", "150350.042500", "150351.532500", "150353.022500", "150354.512500", "150356.002500", "150357.492500", "150358.982500", "150400.472500", "150401.962500", "150403.452500", "150404.942500", "150406.432500", "150407.922500", "150409.412500", "150410.902500", "150412.392500", "150413.882500", "150415.372500", "150416.862500", "150418.352500", "150419.842500", "150421.332500", "150422.822500", "150424.312500", "150425.802500", "150427.292500", "150428.782500", "150430.272500", "150431.762500", "150433.252500", "150434.742500", "150436.232500", "150437.722500", "150439.212500", "150440.702500", "150442.192500", "150443.682500", "150445.172500", "150446.662500", "150448.152500", "150449.642500", "150451.132500"],
      "ContentTime": ["145448.869000", "145448.876000", "145448.878000", "145448.881000", "145448.884000", "145448.887000", "145448.890000", "145448.893000", "145448.895000", "145448.902000", "145448.905000", "145448.908000", "145448.911000", "145448.917000", "145448.920000", "145448.923000", "145448.926000", "145448.929000", "145448.931000", "145448.934000", "145448.937000", "145448.940000", "145448.942000", "145508.834000", "145508.837000", "145508.840000", "145508.842000", "145508.845000", "145508.848000", "145508.851000", "145508.854000", "145508.856000", "145508.859000", "145508.862000", "145508.865000", "145508.867000", "145508.870000", "145508.873000", "145508.876000", "145508.879000", "145508.881000", "145508.886000", "145508.888000", "145508.891000", "145528.834000", "145528.837000", "145528.839000", "145528.842000", "145528.845000", "145528.848000", "145528.851000", "145528.854000", "145528.856000", "145528.859000", "145528.862000", "145528.865000", "145528.871000", "145528.874000", "145528.877000", "145528.880000", "145528.883000", "145528.886000", "145528.889000", "145528.892000", "145548.835000", "145548.838000", "145548.840000", "145548.843000", "145548.846000", "145548.849000", "145548.852000", "145548.854000", "145548.857000", "145548.860000", "145548.863000", "145548.865000", "145548.868000", "145548.871000", "145548.874000", "145548.877000", "145548.879000", "145548.882000", "145548.885000", "145548.888000", "145608.835000", "145608.838000", "145608.840000", "145608.843000", "145608.846000", "145608.849000", "145608.852000", "145608.854000", "145608.857000", "145608.860000", "145608.863000", "145608.866000", "145608.868000", "145608.871000", "145608.874000", "145608.877000", "145608.880000", "145608.882000", "145608.885000", "145608.888000", "145648.834000", "145648.837000", "145648.840000", "145648.843000", "145648.845000", "145648.848000", "145648.851000", "145648.854000", "145648.857000", "145648.860000", "145648.863000", "145648.865000", "145648.868000", "145648.871000", "145648.874000", "145648.877000", "145648.885000", "145648.887000", "145648.890000", "145648.893000", "145648.896000", "145648.899000", "145648.901000", "145648.904000", "145648.907000", "145648.910000", "145648.913000", "145648.915000", "145728.834000", "145728.837000", "145728.840000", "145728.843000", "145728.845000", "145728.848000", "145728.851000", "145728.854000", "145728.857000", "145728.859000", "145728.862000", "145728.865000", "145728.868000", "145728.871000", "145728.874000", "145728.877000", "145728.879000", "145728.882000", "145728.885000", "145728.888000", "145728.891000", "145728.893000", "145728.896000", "145728.899000", "145728.902000", "145728.904000", "145728.907000", "145748.834000", "145748.853000", "145748.856000", "145748.859000", "145748.861000", "145748.864000", "145748.870000", "145748.872000", "145748.875000", "145748.878000", "145748.881000", "145748.884000", "145748.886000", "145748.889000", "145828.835000", "145828.838000", "145828.841000", "145828.844000", "145828.846000", "145828.849000", "145828.852000", "145828.855000", "145828.857000", "145828.860000", "145828.863000", "145828.866000", "145828.869000", "145828.872000", "145828.875000", "145828.877000", "145828.880000", "145828.883000", "145828.886000", "145828.889000", "145828.892000", "145828.894000", "145828.897000", "145828.900000", "145828.903000", "145828.906000", "145828.908000", "145908.834000", "145908.837000", "145908.840000", "145908.843000", "145908.845000", "145908.848000", "145908.851000", "145908.855000", "145908.858000", "145908.861000", "145908.864000", "145908.866000", "145908.869000", "145908.872000", "145908.875000", "145908.878000", "145908.881000", "145908.883000", "145908.886000", "145908.889000", "145908.892000", "145908.895000", "145908.898000", "145908.900000", "145908.903000", "145908.906000", "145948.834000", "145948.837000", "145948.840000", "145948.843000", "145948.845000", "145948.848000", "145948.851000", "145948.854000", "145948.857000", "145948.859000", "145948.862000", "145948.865000", "145948.868000", "145948.871000", "145948.873000", "145948.876000", "145948.879000", "145948.882000", "145948.885000", "145948.888000", "145948.890000", "145948.893000", "145948.907000", "145948.910000", "145948.912000", "145948.915000", "145948.918000", "150028.835000", "150028.838000", "150028.841000", "150028.843000", "150028.846000", "150028.849000", "150028.852000", "150028.855000", "150028.858000", "150028.860000", "150028.863000", "150028.866000", "150028.869000", "150028.872000", "150028.875000", "150028.878000", "150028.881000", "150028.884000", "150028.886000", "150028.889000", "150028.892000", "150028.895000", "150028.898000", "150028.901000", "150028.903000", "150028.906000", "150028.909000", "150108.835000", "150108.838000", "150108.841000", "150108.844000", "150108.847000", "150108.849000", "150108.852000", "150108.855000", "150108.858000", "150108.861000", "150108.863000", "150108.866000", "150108.869000", "150108.872000", "150108.875000", "150108.878000", "150108.881000", "150108.883000", "150108.886000", "150108.889000", "150108.892000", "150108.895000", "150108.898000", "150108.900000", "150108.903000", "150108.906000", "150108.909000", "150148.834000", "150148.837000", "150148.840000", "150148.843000", "150148.846000", "150148.848000", "150148.851000", "150148.854000", "150148.857000", "150148.860000", "150148.863000", "150148.865000", "150148.868000", "150148.871000", "150148.874000", "150148.877000", "150148.879000", "150148.882000", "150148.885000", "150148.888000", "150148.891000", "150148.894000", "150148.897000", "150148.899000", "150148.902000", "150148.905000", "150148.908000", "150228.834000", "150228.837000", "150228.840000", "150228.843000", "150228.845000", "150228.848000", "150228.851000", "150228.854000", "150228.857000", "150228.859000", "150228.862000", "150228.865000", "150228.868000", "150228.871000", "150228.886000", "150228.889000", "150228.892000", "150228.895000", "150228.898000", "150228.901000", "150228.903000", "150228.906000", "150228.909000", "150228.912000", "150228.915000", "150228.917000", "150228.920000", "150308.835000", "150308.838000", "150308.841000", "150308.844000", "150308.847000", "150308.850000", "150308.852000", "150308.855000", "150308.858000", "150308.861000", "150308.864000", "150308.867000", "150308.869000", "150308.873000", "150308.876000", "150308.880000", "150308.883000", "150308.885000", "150308.888000", "150308.891000", "150308.894000", "150308.897000", "150308.900000", "150308.903000", "150308.906000", "150308.908000", "150348.834000", "150348.837000", "150348.840000", "150348.843000", "150348.845000", "150348.848000", "150348.851000", "150348.854000", "150348.857000", "150348.859000", "150348.862000", "150348.865000", "150348.868000", "150348.871000", "150348.874000", "150348.876000", "150348.879000", "150348.882000", "150348.885000", "150348.888000", "150348.890000", "150348.893000", "150348.896000", "150348.899000", "150348.902000", "150348.904000", "150348.907000", "150428.834000", "150428.837000", "150428.840000", "150428.843000", "150428.845000", "150428.848000", "150428.851000", "150428.854000", "150428.857000", "150428.860000", "150428.862000", "150428.865000", "150428.868000", "150428.871000", "150428.874000", "150428.877000", "150428.880000", "150428.882000", "150428.885000", "150428.888000", "150428.891000", "150428.894000", "150428.897000", "150428.899000", "150428.902000", "150428.905000", "150428.908000", "150453.218000", "150453.221000", "150453.224000", "150453.227000", "150453.229000", "150453.232000", "150453.235000", "150453.238000", "150453.241000", "150453.243000", "150453.246000", "150453.249000", "150453.252000", "150453.255000", "150453.257000", "150453.260000", "150453.263000"],
