{
  "AcquisitionMatrixPE": 104,
  "AcquisitionNumber": 1,
  "AcquisitionTime": "15:46:48.135000",
  "BandwidthPerPixelPhaseEncode": 17.17,
  "BaseResolution": 104,
  "BodyPartExamined": "BRAIN",
  "CoilString": "HC1-7;NC1_2",
  "ConsistencyInfo": "N4_VE11C_LATEST_20160120",
  "ConversionSoftware": "dcm2niix",
  "ConversionSoftwareVersion": "v1.0.20190720  (JP2:OpenJPEG) GCC7.3.0",
  "DerivedVendorReportedEchoSpacing": 0.000560011,
  "DeviceSerialNumber": "167006",
  "DwellTime": 2.1e-06,
  "EchoTime": 0.037,
  "EchoTrainLength": 104,
  "EffectiveEchoSpacing": 0.000560011,
  "FlipAngle": 52,
  "ImageComments": "Unaliased_MB4_PE3_LB",
  "ImageOrientationPatientDICOM": [0.99858, -0.0515924, 0.0132732, 0.0530324, 0.939106, -0.33951],
  "ImageType": [
    "ORIGINAL",
    "PRIMARY",
    "M",
    "MB",
    "ND",
    "MOSAIC"
],
  "ImagingFrequency": 123.259,
  "InPlanePhaseEncodingDirectionDICOM": "COL",
  "InstitutionAddress": "Chemin_Queen-Mary_4565_Montreal_District_CA_H3W_1W5",
  "InstitutionName": "IUGM",
  "InstitutionalDepartmentName": "Department",
  "MRAcquisitionType": "2D",
  "MagneticFieldStrength": 3,
  "Manufacturer": "Siemens",
  "ManufacturersModelName": "Prisma_fit",
  "Modality": "MR",
  "MultibandAccelerationFactor": 4,
  "PartialFourier": 1,
  "PatientPosition": "HFS",
  "PercentPhaseFOV": 100,
  "PhaseEncodingDirection": "j",
  "PhaseEncodingSteps": 104,
  "PhaseResolution": 1,
  "PixelBandwidth": 2290,
  "ProcedureStepDescription": "video_friends",
  "ProtocolName": "func_task-s01e24b",
  "PulseSequenceDetails": "%CustomerSeq%_cmrr_mbep2d_bold",
  "ReceiveCoilActiveElements": "HC1-7;NC1,2",
  "ReceiveCoilName": "HeadNeck_64",
  "ReconMatrixPE": 104,
  "RepetitionTime": 1.49,
  "SAR": 0.0272243,
  "ScanOptions": "FS",
  "ScanningSequence": "EP",
  "SequenceName": "epfid2d1_104",
  "SequenceVariant": "SK_SS",
  "SeriesDescription": "func_task-s01e24b",
  "SeriesNumber": 38,
  "ShimSetting": [635, -7274, -8831, 602, 28, -223, -67, -14],
  "SliceThickness": 2,
  "SliceTiming": [0, 0.785, 0.0975, 0.8825, 0.195, 0.98, 0.295, 1.0775, 0.3925, 1.175, 0.49, 1.275, 0.5875, 1.3725, 0.685, 0, 0.785, 0.0975, 0.8825, 0.195, 0.98, 0.295, 1.0775, 0.3925, 1.175, 0.49, 1.275, 0.5875, 1.3725, 0.685, 0, 0.785, 0.0975, 0.8825, 0.195, 0.98, 0.295, 1.0775, 0.3925, 1.175, 0.49, 1.275, 0.5875, 1.3725, 0.685, 0, 0.785, 0.0975, 0.8825, 0.195, 0.98, 0.295, 1.0775, 0.3925, 1.175, 0.49, 1.275, 0.5875, 1.3725, 0.685],
  "SoftwareVersions": "syngo_MR_E11",
  "SpacingBetweenSlices": 2,
  "StationName": "MRC35049",
  "TaskName": "friends",
  "TotalReadoutTime": 0.0576811,
  "TxRefAmp": 219.788,
  "WipMemBlock": "7b34dd86-d913-42e3-b147-5dba1fe91229||Sequence: R016 ve11c/master r/e634e98; Dec 19 2017 11:00:25 by eja",
  "dcmmeta_affine": [
    [-1.9971600770950317, 0.1060648187994957, -0.010102233849465847, 96.44245910644531],
    [0.10318471491336823, 1.878212809562683, -0.679462730884552, -78.73883056640625],
    [0.026546472683548927, 0.6790190935134888, 1.8810179233551025, -66.85269927978516],
    [0.0, 0.0, 0.0, 1.0]
],
  "dcmmeta_reorient_transform": [
    [0.0, -1.0, 0.0, 103.0],
    [1.0, 0.0, 0.0, 0.0],
    [0.0, 0.0, 1.0, 0.0],
    [0.0, 0.0, 0.0, 1.0]
],
  "dcmmeta_shape": [104, 104, 60, 291],
  "dcmmeta_slice_dim": 2,
  "dcmmeta_version": 0.6,
  "global": {
    "const": {
      "AcquisitionMatrix": [104, 0, 0, 104],
      "AngioFlag": "N",
      "BitsAllocated": 16,
      "BitsStored": 16,
      "BodyPartExamined": "BRAIN",
      "Columns": 832,
      "EchoNumbers": 1,
      "EchoTime": 37.0,
      "EchoTrainLength": 104,
      "FlipAngle": 52.0,
      "HighBit": 15,
      "ImageOrientationPatient": [0.99858001668393, -0.0515923588099, 0.01327323592595, 0.05303240986252, 0.93910640336204, -0.3395095384059],
      "ImagePositionPatient": [-872.94098098717, -760.82730968591, 240.58629371154],
      "ImageType": [
        "ORIGINAL",
        "PRIMARY",
        "M",
        "MB",
        "ND",
        "MOSAIC"
],
      "ImagedNucleus": "1H",
      "ImagingFrequency": 123.259143,
      "InPlanePhaseEncodingDirection": "COL",
      "MRAcquisitionType": "2D",
      "MagneticFieldStrength": 3.0,
      "Manufacturer": "SIEMENS",
      "ManufacturerModelName": "Prisma_fit",
      "Modality": "MR",
      "NumberOfAverages": 1.0,
      "NumberOfPhaseEncodingSteps": 104,
      "PercentPhaseFieldOfView": 100.0,
      "PercentSampling": 100.0,
      "PerformedProcedureStepStartTime": "131024.208000",
      "PhotometricInterpretation": "MONOCHROME2",
      "PixelBandwidth": 2290.0,
      "PixelRepresentation": 0,
      "PixelSpacing": [2.0, 2.0],
      "ProtocolName": "func_task-s01e24b",
      "RepetitionTime": 1490.0,
      "Rows": 832,
      "SAR": 0.02722430556683,
      "SamplesPerPixel": 1,
      "ScanOptions": "FS",
      "ScanningSequence": "EP",
      "SequenceName": "epfid2d1_104",
      "SequenceVariant": [
        "SK",
        "SS"
],
      "SeriesDescription": "func_task-s01e24b",
      "SeriesNumber": 38,
      "SeriesTime": "154810.106000",
      "SliceLocation": -36.612654114449,
      "SliceThickness": 2.0,
      "SmallestImagePixelValue": 0,
      "SoftwareVersions": "syngo MR E11",
      "SpacingBetweenSlices": 2.0000000271517,
      "SpecificCharacterSet": "ISO_IR 100",
      "StudyID": "1",
      "StudyTime": "131024.118000",
      "TransmitCoilName": "Body",
      "VariableFlipAngleFlag": "N",
      "WindowCenterWidthExplanation": "Algo1",
      "dBdt": 0.0},
    "slices": {}
  },
  "time": {
    "samples": {
      "AcquisitionNumber": [1, 2, 3, 4, 5, 6, 7, 8, 9, 10, 11, 12, 13, 14, 15, 16, 17, 18, 19, 20, 21, 22, 23, 24, 25, 26, 27, 28, 29, 30, 31, 32, 33, 34, 35, 36, 37, 38, 39, 40, 41, 42, 43, 44, 45, 46, 47, 48, 49, 50, 51, 52, 53, 54, 55, 56, 57, 58, 59, 60, 61, 62, 63, 64, 65, 66, 67, 68, 69, 70, 71, 72, 73, 74, 75, 76, 77, 78, 79, 80, 81, 82, 83, 84, 85, 86, 87, 88, 89, 90, 91, 92, 93, 94, 95, 96, 97, 98, 99, 100, 101, 102, 103, 104, 105, 106, 107, 108, 109, 110, 111, 112, 113, 114, 115, 116, 117, 118, 119, 120, 121, 122, 123, 124, 125, 126, 127, 128, 129, 130, 131, 132, 133, 134, 135, 136, 137, 138, 139, 140, 141, 142, 143, 144, 145, 146, 147, 148, 149, 150, 151, 152, 153, 154, 155, 156, 157, 158, 159, 160, 161, 162, 163, 164, 165, 166, 167, 168, 169, 170, 171, 172, 173, 174, 175, 176, 177, 178, 179, 180, 181, 182, 183, 184, 185, 186, 187, 188, 189, 190, 191, 192, 193, 194, 195, 196, 197, 198, 199, 200, 201, 202, 203, 204, 205, 206, 207, 208, 209, 210, 211, 212, 213, 214, 215, 216, 217, 218, 219, 220, 221, 222, 223, 224, 225, 226, 227, 228, 229, 230, 231, 232, 233, 234, 235, 236, 237, 238, 239, 240, 241, 242, 243, 244, 245, 246, 247, 248, 249, 250, 251, 252, 253, 254, 255, 256, 257, 258, 259, 260, 261, 262, 263, 264, 265, 266, 267, 268, 269, 270, 271, 272, 273, 274, 275, 276, 277, 278, 279, 280, 281, 282, 283, 284, 285, 286, 287, 288, 289, 290, 291],
      "AcquisitionTime": ["154648.135000", "154649.625000", "154651.115000", "154652.605000", "154654.095000", "154655.585000", "154657.075000", "154658.565000", "154700.055000", "154701.545000", "154703.035000", "154704.525000", "154706.015000", "154707.505000", "154708.995000", "154710.485000", "154711.975000", "154713.465000", "154714.955000", "154716.445000", "154717.935000", "154719.425000", "154720.915000", "154722.405000", "154723.895000", "154725.385000", "154726.875000", "154728.365000", "154729.855000", "154731.345000", "154732.835000", "154734.325000", "154735.815000", "154737.305000", "154738.795000", "154740.285000", "154741.775000", "154743.265000", "154744.755000", "154746.245000", "154747.735000", "154749.225000", "154750.715000", "154752.205000", "154753.695000", "154755.185000", "154756.675000", "154758.165000", "154759.655000", "154801.145000", "154802.635000", "154804.125000", "154805.615000", "154807.105000", "154808.595000", "154810.085000", "154811.575000", "154813.065000", "154814.555000", "154816.045000", "154817.535000", "154819.025000", "154820.515000", "154822.005000", "154823.495000", "154824.985000", "154826.475000", "154827.965000", "154829.455000", "154830.945000", "154832.435000", "154833.925000", "154835.415000", "154836.905000", "154838.395000", "154839.885000", "154841.375000", "154842.865000", "154844.355000", "154845.845000", "154847.335000", "154848.825000", "154850.315000", "154851.805000", "154853.295000", "154854.785000", "154856.275000", "154857.765000", "154859.255000", "154900.745000", "154902.235000", "154903.725000", "154905.215000", "154906.705000", "154908.195000", "154909.685000", "154911.175000", "154912.665000", "154914.155000", "154915.645000", "154917.135000", "154918.625000", "154920.115000", "154921.605000", "154923.095000", "154924.585000", "154926.075000", "154927.565000", "154929.055000", "154930.545000", "154932.035000", "154933.525000", "154935.015000", "154936.505000", "154937.995000", "154939.485000", "154940.975000", "154942.465000", "154943.955000", "154945.445000", "154946.935000", "154948.425000", "154949.915000", "154951.405000", "154952.895000", "154954.385000", "154955.875000", "154957.365000", "154958.855000", "155000.345000", "155001.835000", "155003.325000", "155004.815000", "155006.305000", "155007.795000", "155009.285000", "155010.775000", "155012.265000", "155013.755000", "155015.245000", "155016.735000", "155018.225000", "155019.715000", "155021.205000", "155022.695000", "155024.185000", "155025.675000", "155027.165000", "155028.655000", "155030.145000", "155031.635000", "155033.125000", "155034.615000", "155036.105000", "155037.595000", "155039.085000", "155040.575000", "155042.065000", "155043.555000", "155045.045000", "155046.535000", "155048.025000", "155049.515000", "155051.005000", "155052.495000", "155053.985000", "155055.475000", "155056.965000", "155058.455000", "155059.945000", "155101.435000", "155102.925000", "155104.415000", "155105.905000", "155107.395000", "155108.885000", "155110.375000", "155111.865000", "155113.355000", "155114.845000", "155116.335000", "155117.825000", "155119.315000", "155120.805000", "155122.295000", "155123.785000", "155125.275000", "155126.765000", "155128.255000", "155129.745000", "155131.235000", "155132.725000", "155134.215000", "155135.705000", "155137.195000", "155138.685000", "155140.175000", "155141.665000", "155143.155000", "155144.645000", "155146.135000", "155147.625000", "155149.115000", "155150.605000", "155152.095000", "155153.585000", "155155.075000", "155156.565000", "155158.055000", "155159.545000", "155201.035000", "155202.525000", "155204.015000", "155205.505000", "155206.995000", "155208.485000", "155209.975000", "155211.465000", "155212.955000", "155214.445000", "155215.935000", "155217.425000", "155218.915000", "155220.405000", "155221.895000", "155223.385000", "155224.875000", "155226.365000", "155227.855000", "155229.345000", "155230.835000", "155232.325000", "155233.815000", "155235.305000", "155236.795000", "155238.285000", "155239.775000", "155241.265000", "155242.755000", "155244.245000", "155245.735000", "155247.225000", "155248.715000", "155250.205000", "155251.695000", "155253.185000", "155254.675000", "155256.165000", "155257.655000", "155259.145000", "155300.635000", "155302.125000", "155303.615000", "155305.105000", "155306.595000", "155308.085000", "155309.575000", "155311.065000", "155312.555000", "155314.045000", "155315.535000", "155317.025000", "155318.515000", "155320.005000", "155321.495000", "155322.985000", "155324.475000", "155325.965000", "155327.455000", "155328.945000", "155330.435000", "155331.925000", "155333.415000", "155334.905000", "155336.395000", "155337.885000", "155339.375000", "155340.865000", "155342.355000", "155343.845000", "155345.335000", "155346.825000", "155348.315000", "155349.805000", "155351.295000", "155352.785000", "155354.275000", "155355.765000", "155357.255000", "155358.745000", "155400.235000"],
      "ContentTime": ["154810.109000", "154810.112000", "154810.115000", "154810.118000", "154810.121000", "154810.124000", "154810.127000", "154810.130000", "154810.133000", "154810.136000", "154810.139000", "154810.141000", "154810.144000", "154810.147000", "154810.150000", "154810.153000", "154810.156000", "154810.159000", "154810.162000", "154810.165000", "154810.168000", "154810.170000", "154810.173000", "154810.176000", "154810.179000", "154810.182000", "154810.185000", "154830.069000", "154830.072000", "154830.075000", "154830.078000", "154830.080000", "154830.083000", "154830.086000", "154830.093000", "154830.095000", "154830.098000", "154830.101000", "154830.104000", "154830.107000", "154830.110000", "154830.113000", "154830.116000", "154830.118000", "154830.121000", "154830.124000", "154830.127000", "154850.069000", "154850.072000", "154850.075000", "154850.078000", "154850.081000", "154850.083000", "154850.086000", "154850.089000", "154850.092000", "154850.095000", "154850.098000", "154850.101000", "154850.104000", "154850.107000", "154850.109000", "154850.112000", "154850.115000", "154850.118000", "154850.121000", "154850.124000", "154910.069000", "154910.072000", "154910.075000", "154910.078000", "154910.081000", "154910.084000", "154910.086000", "154910.089000", "154910.092000", "154910.095000", "154910.098000", "154910.101000", "154910.104000", "154910.107000", "154910.110000", "154910.112000", "154910.115000", "154910.118000", "154910.121000", "154910.124000", "154910.127000", "154950.069000", "154950.072000", "154950.075000", "154950.078000", "154950.094000", "154950.097000", "154950.100000", "154950.103000", "154950.106000", "154950.109000", "154950.112000", "154950.115000", "154950.118000", "154950.121000", "154950.123000", "154950.127000", "154950.130000", "154950.133000", "154950.136000", "154950.139000", "154950.142000", "154950.145000", "154950.148000", "154950.150000", "154950.153000", "154950.156000", "154950.159000", "154950.162000", "154950.165000", "154950.168000", "154950.171000", "154950.174000", "154950.177000", "155030.070000", "155030.073000", "155030.076000", "155030.079000", "155030.082000", "155030.085000", "155030.088000", "155030.091000", "155030.093000", "155030.096000", "155030.099000", "155030.102000", "155030.105000", "155030.108000", "155030.111000", "155030.114000", "155030.117000", "155030.119000", "155030.122000", "155030.125000", "155030.128000", "155030.131000", "155030.134000", "155030.137000", "155030.140000", "155030.143000", "155030.145000", "155110.069000", "155110.072000", "155110.075000", "155110.078000", "155110.081000", "155110.084000", "155110.087000", "155110.089000", "155110.092000", "155110.095000", "155110.098000", "155110.101000", "155110.104000", "155110.107000", "155110.110000", "155110.113000", "155110.116000", "155110.118000", "155110.121000", "155110.124000", "155110.127000", "155110.130000", "155110.133000", "155110.136000", "155110.139000", "155110.142000", "155110.145000", "155150.069000", "155150.072000", "155150.075000", "155150.078000", "155150.081000", "155150.084000", "155150.087000", "155150.090000", "155150.093000", "155150.095000", "155150.098000", "155150.101000", "155150.104000", "155150.107000", "155150.110000", "155150.113000", "155150.116000", "155150.119000", "155150.122000", "155150.125000", "155150.128000", "155150.130000", "155150.133000", "155150.136000", "155150.140000", "155150.143000", "155230.070000", "155230.073000", "155230.076000", "155230.079000", "155230.082000", "155230.085000", "155230.087000", "155230.090000", "155230.093000", "155230.096000", "155230.099000", "155230.102000", "155230.105000", "155230.108000", "155230.119000", "155230.122000", "155230.125000", "155230.128000", "155230.131000", "155230.134000", "155230.137000", "155230.140000", "155230.142000", "155230.145000", "155230.148000", "155230.151000", "155230.154000", "155310.069000", "155310.072000", "155310.075000", "155310.078000", "155310.081000", "155310.084000", "155310.087000", "155310.090000", "155310.093000", "155310.095000", "155310.098000", "155310.101000", "155310.104000", "155310.107000", "155310.110000", "155310.113000", "155310.116000", "155310.119000", "155310.122000", "155310.124000", "155310.127000", "155310.130000", "155310.133000", "155310.136000", "155310.139000", "155310.142000", "155310.145000", "155350.069000", "155350.072000", "155350.075000", "155350.078000", "155350.081000", "155350.084000", "155350.087000", "155350.089000", "155350.092000", "155350.095000", "155350.098000", "155350.101000", "155350.104000", "155350.107000", "155350.110000", "155350.113000", "155350.116000", "155350.118000", "155350.121000", "155350.124000", "155350.127000", "155350.130000", "155350.133000", "155350.136000", "155350.139000", "155350.142000", "155350.145000", "155403.381000", "155403.384000", "155403.387000", "155403.390000", "155403.393000", "155403.396000", "155403.399000", "155403.402000", "155403.405000"],
      "InstanceCreationTime": ["154810.109000", "154810.112000", "154810.115000", "154810.118000", "154810.121000", "154810.124000", "154810.127000", "154810.130000", "154810.133000", "154810.136000", "154810.139000", "154810.141000", "154810.144000", "154810.147000", "154810.150000", "154810.153000", "154810.156000", "154810.159000", "154810.162000", "154810.165000", "154810.168000", "154810.170000", "154810.173000", "154810.176000", "154810.179000", "154810.182000", "154810.185000", "154830.069000", "154830.072000", "154830.075000", "154830.078000", "154830.080000", "154830.083000", "154830.086000", "154830.093000", "154830.095000", "154830.098000", "154830.101000", "154830.104000", "154830.107000", "154830.110000", "154830.113000", "154830.116000", "154830.118000", "154830.121000", "154830.124000", "154830.127000", "154850.069000", "154850.072000", "154850.075000", "154850.078000", "154850.081000", "154850.083000", "154850.086000", "154850.089000", "154850.092000", "154850.095000", "154850.098000", "154850.101000", "154850.104000", "154850.107000", "154850.109000", "154850.112000", "154850.115000", "154850.118000", "154850.121000", "154850.124000", "154910.069000", "154910.072000", "154910.075000", "154910.078000", "154910.081000", "154910.084000", "154910.086000", "154910.089000", "154910.092000", "154910.095000", "154910.098000", "154910.101000", "154910.104000", "154910.107000", "154910.110000", "154910.112000", "154910.115000", "154910.118000", "154910.121000", "154910.124000", "154910.127000", "154950.069000", "154950.072000", "154950.075000", "154950.078000", "154950.094000", "154950.097000", "154950.100000", "154950.103000", "154950.106000", "154950.109000", "154950.112000", "154950.115000", "154950.118000", "154950.121000", "154950.123000", "154950.127000", "154950.130000", "154950.133000", "154950.136000", "154950.139000", "154950.142000", "154950.145000", "154950.148000", "154950.150000", "154950.153000", "154950.156000", "154950.159000", "154950.162000", "154950.165000", "154950.168000", "154950.171000", "154950.174000", "154950.177000", "155030.070000", "155030.073000", "155030.076000", "155030.079000", "155030.082000", "155030.085000", "155030.088000", "155030.091000", "155030.093000", "155030.096000", "155030.099000", "155030.102000", "155030.105000", "155030.108000", "155030.111000", "155030.114000", "155030.117000", "155030.119000", "155030.122000", "155030.125000", "155030.128000", "155030.131000", "155030.134000", "155030.137000", "155030.140000", "155030.143000", "155030.145000", "155110.069000", "155110.072000", "155110.075000", "155110.078000", "155110.081000", "155110.084000", "155110.087000", "155110.089000", "155110.092000", "155110.095000", "155110.098000", "155110.101000", "155110.104000", "155110.107000", "155110.110000", "155110.113000", "155110.116000", "155110.118000", "155110.121000", "155110.124000", "155110.127000", "155110.130000", "155110.133000", "155110.136000", "155110.139000", "155110.142000", "155110.145000", "155150.069000", "155150.072000", "155150.075000", "155150.078000", "155150.081000", "155150.084000", "155150.087000", "155150.090000", "155150.093000", "155150.095000", "155150.098000", "155150.101000", "155150.104000", "155150.107000", "155150.110000", "155150.113000", "155150.116000", "155150.119000", "155150.122000", "155150.125000", "155150.128000", "155150.130000", "155150.133000", "155150.136000", "155150.140000", "155150.143000", "155230.070000", "155230.073000", "155230.076000", "155230.079000", "155230.082000", "155230.085000", "155230.087000", "155230.090000", "155230.093000", "155230.096000", "155230.099000", "155230.102000", "155230.105000", "155230.108000", "155230.119000", "155230.122000", "155230.125000", "155230.128000", "155230.131000", "155230.134000", "155230.137000", "155230.140000", "155230.142000", "155230.145000", "155230.148000", "155230.151000", "155230.154000", "155310.069000", "155310.072000", "155310.075000", "155310.078000", "155310.081000", "155310.084000", "155310.087000", "155310.090000", "155310.093000", "155310.095000", "155310.098000", "155310.101000", "155310.104000", "155310.107000", "155310.110000", "155310.113000", "155310.116000", "155310.119000", "155310.122000", "155310.124000", "155310.127000", "155310.130000", "155310.133000", "155310.136000", "155310.139000", "155310.142000", "155310.145000", "155350.069000", "155350.072000", "155350.075000", "155350.078000", "155350.081000", "155350.084000", "155350.087000", "155350.089000", "155350.092000", "155350.095000", "155350.098000", "155350.101000", "155350.104000", "155350.107000", "155350.110000", "155350.113000", "155350.116000", "155350.118000", "155350.121000", "155350.124000", "155350.127000", "155350.130000", "155350.133000", "155350.136000", "155350.139000", "155350.142000", "155350.145000", "155403.381000", "155403.384000", "155403.387000", "155403.390000", "155403.393000", "155403.396000", "155403.399000", "155403.402000", "155403.405000"],
      "InstanceNumber": [1, 2, 3, 4, 5, 6, 7, 8, 9, 10, 11, 12, 13, 14, 15, 16, 17, 18, 19, 20, 21, 22, 23, 24, 25, 26, 27, 28, 29, 30, 31, 32, 33, 34, 35, 36, 37, 38, 39, 40, 41, 42, 43, 44, 45, 46, 47, 48, 49, 50, 51, 52, 53, 54, 55, 56, 57, 58, 59, 60, 61, 62, 63, 64, 65, 66, 67, 68, 69, 70, 71, 72, 73, 74, 75, 76, 77, 78, 79, 80, 81, 82, 83, 84, 85, 86, 87, 88, 89, 90, 91, 92, 93, 94, 95, 96, 97, 98, 99, 100, 101, 102, 103, 104, 105, 106, 107, 108, 109, 110, 111, 112, 113, 114, 115, 116, 117, 118, 119, 120, 121, 122, 123, 124, 125, 126, 127, 128, 129, 130, 131, 132, 133, 134, 135, 136, 137, 138, 139, 140, 141, 142, 143, 144, 145, 146, 147, 148, 149, 150, 151, 152, 153, 154, 155, 156, 157, 158, 159, 160, 161, 162, 163, 164, 165, 166, 167, 168, 169, 170, 171, 172, 173, 174, 175, 176, 177, 178, 179, 180, 181, 182, 183, 184, 185, 186, 187, 188, 189, 190, 191, 192, 193, 194, 195, 196, 197, 198, 199, 200, 201, 202, 203, 204, 205, 206, 207, 208, 209, 210, 211, 212, 213, 214, 215, 216, 217, 218, 219, 220, 221, 222, 223, 224, 225, 226, 227, 228, 229, 230, 231, 232, 233, 234, 235, 236, 237, 238, 239, 240, 241, 242, 243, 244, 245, 246, 247, 248, 249, 250, 251, 252, 253, 254, 255, 256, 257, 258, 259, 260, 261, 262, 263, 264, 265, 266, 267, 268, 269, 270, 271, 272, 273, 274, 275, 276, 277, 278, 279, 280, 281, 282, 283, 284, 285, 286, 287, 288, 289, 290, 291],
      "LargestImagePixelValue": [42526, 41166, 40409, 39713, 40367, 40135, 40411, 40330, 40070, 39791, 39281, 38667, 39081, 40026, 39469, 39783, 39926, 39531, 39884, 39744, 38946, 38668, 39268, 38493, 38834, 39666, 38649, 38494, 38963, 39495, 38858, 38921, 39274, 38080, 38864, 38949, 38366, 38178, 38298, 38973, 37907, 38100, 38451, 39226, 38464, 38429, 38892, 38985, 38904, 38258, 39020, 39283, 38592, 38905, 38511, 39212, 38853, 38872, 39078, 38776, 38910, 39135, 38942, 39022, 39154, 39174, 39348, 39152, 39054, 39298, 38976, 39372, 39569, 39478, 39388, 39634, 39179, 39299, 39394, 40301, 39455, 39264, 39525, 39605, 39434, 39571, 39468, 39639, 39294, 39394, 39532, 39679, 39435, 39439, 39730, 39576, 39754, 39660, 39459, 39620, 39501, 39961, 39410, 39302, 39330, 39804, 39675, 39760, 39773, 39889, 39595, 39686, 39692, 39978, 39565, 39278, 39403, 39433, 39459, 39568, 39775, 39616, 39571, 39823, 39977, 39638, 39543, 39445, 39533, 39469, 39278, 39567, 39964, 39802, 39941, 39536, 39372, 39729, 39465, 39655, 38780, 39080, 39107, 39345, 39494, 38956, 39162, 39564, 39349, 39353, 39264, 39330, 39360, 39283, 39287, 39379, 39323, 38923, 39574, 39332, 39457, 39515, 39752, 39694, 39134, 39234, 39118, 39307, 39798, 39044, 39636, 39403, 39158, 39644, 39403, 39938, 39999, 39372, 39370, 39001, 39425, 39240, 39893, 39355, 39233, 39152, 39298, 39260, 39410, 39195, 39220, 39216, 39196, 39454, 39380, 39390, 39144, 39626, 39342, 39132, 39636, 39267, 39350, 39896, 39783, 39238, 39154, 39630, 39704, 39826, 39324, 39283, 39115, 39327, 39644, 39698, 39366, 39301, 39587, 39657, 39829, 39361, 39270, 39371, 39365, 39621, 39585, 39262, 39676, 39824, 39504, 39412, 39828, 39570, 39613, 39761, 39538, 39878, 39903, 39508, 39655, 39494, 39570, 39335, 39512, 39490, 39341, 39252, 39615, 39821, 39403, 39651, 39450, 39628, 39556, 39613, 40073, 40172, 39058, 39720, 39604, 39320, 39792, 39841, 39811, 40090, 40552, 40214, 39614, 39229, 39977, 39980, 39826, 40934, 41670, 40483, 39969, 40849, 39541, 39506, 40104, 40006, 39886, 40479, 38750, 39491, 39500, 38122, 38908, 37755, 39225],
      "WindowCenter": [10060.0, 10000.0, 9937.0, 9905.0, 9905.0, 9916.0, 9956.0, 9952.0, 9927.0, 9909.0, 9911.0, 9928.0, 9946.0, 9949.0, 9935.0, 9926.0, 9925.0, 9933.0, 9948.0, 9943.0, 9936.0, 9929.0, 9928.0, 9930.0, 9938.0, 9944.0, 9933.0, 9919.0, 9913.0, 9910.0, 9904.0, 9918.0, 9927.0, 9908.0, 9914.0, 9920.0, 9913.0, 9909.0, 9915.0, 9926.0, 9928.0, 9935.0, 9923.0, 9912.0, 9904.0, 9905.0, 9919.0, 9926.0, 9936.0, 9922.0, 9910.0, 9914.0, 9909.0, 9909.0, 9913.0, 9925.0, 9919.0, 9912.0, 9920.0, 9905.0, 9894.0, 9892.0, 9897.0, 9910.0, 9911.0, 9903.0, 9895.0, 9894.0, 9909.0, 9924.0, 9927.0, 9925.0, 9923.0, 9917.0, 9918.0, 9939.0, 9928.0, 9927.0, 9928.0, 9932.0, 9928.0, 9929.0, 9941.0, 9943.0, 9929.0, 9924.0, 9911.0, 9906.0, 9908.0, 9924.0, 9950.0, 9944.0, 9914.0, 9902.0, 9905.0, 9905.0, 9912.0, 9920.0, 9924.0, 9932.0, 9925.0, 9930.0, 9926.0, 9934.0, 9928.0, 9926.0, 9930.0, 9915.0, 9921.0, 9928.0, 9938.0, 9934.0, 9919.0, 9915.0, 9921.0, 9916.0, 9916.0, 9917.0, 9923.0, 9925.0, 9932.0, 9926.0, 9919.0, 9918.0, 9916.0, 9923.0, 9939.0, 9943.0, 9949.0, 9936.0, 9929.0, 9933.0, 9949.0, 9949.0, 9949.0, 9943.0, 9935.0, 9935.0, 9927.0, 9934.0, 9929.0, 9938.0, 9945.0, 9945.0, 9935.0, 9919.0, 9910.0, 9915.0, 9923.0, 9918.0, 9925.0, 9919.0, 9910.0, 9908.0, 9916.0, 9931.0, 9935.0, 9945.0, 9943.0, 9943.0, 9929.0, 9944.0, 9985.0, 9979.0, 9941.0, 9920.0, 9903.0, 9899.0, 9906.0, 9892.0, 9890.0, 9892.0, 9911.0, 9933.0, 9959.0, 9985.0, 9964.0, 9922.0, 9909.0, 9901.0, 9901.0, 9910.0, 9913.0, 9902.0, 9909.0, 9913.0, 9919.0, 9926.0, 9925.0, 9920.0, 9934.0, 9936.0, 9938.0, 9945.0, 9964.0, 9983.0, 9967.0, 9948.0, 9929.0, 9921.0, 9919.0, 9926.0, 9921.0, 9911.0, 9909.0, 9913.0, 9921.0, 9926.0, 9917.0, 9916.0, 9926.0, 9945.0, 9935.0, 9929.0, 9927.0, 9927.0, 9930.0, 9930.0, 9936.0, 9945.0, 9960.0, 9958.0, 9958.0, 9948.0, 9938.0, 9955.0, 9971.0, 9944.0, 9921.0, 9903.0, 9918.0, 9930.0, 9928.0, 9929.0, 9936.0, 9943.0, 9944.0, 9938.0, 9927.0, 9927.0, 9941.0, 9944.0, 9950.0, 9946.0, 9932.0, 9928.0, 9921.0, 9934.0, 9943.0, 9945.0, 9945.0, 9944.0, 9924.0, 9911.0, 9917.0, 9924.0, 9942.0, 9956.0, 9950.0, 9953.0, 9940.0, 9923.0, 9926.0, 9932.0, 9927.0, 9929.0, 9932.0, 9956.0, 9994.0, 9967.0, 9938.0, 9925.0, 9919.0, 9927.0, 9956.0, 9957.0, 9922.0, 9914.0, 9914.0, 9919.0, 9925.0, 9926.0, 9936.0, 9922.0, 9935.0, 9956.0, 9924.0, 9825.0, 9956.0, 9923.0, 9907.0],
