{
  "AcquisitionMatrixPE": 104,
  "AcquisitionNumber": 1,
  "AcquisitionTime": "14:01:18.075000",
  "BandwidthPerPixelPhaseEncode": 17.17,
  "BaseResolution": 104,
  "BodyPartExamined": "BRAIN",
  "CoilString": "HC1-7;NC1_2",
  "ConsistencyInfo": "N4_VE11C_LATEST_20160120",
  "ConversionSoftware": "dcm2niix",
  "ConversionSoftwareVersion": "v1.0.20190720  (JP2:OpenJPEG) GCC7.3.0",
  "DerivedVendorReportedEchoSpacing": 0.000560011,
  "DeviceSerialNumber": "167006",
  "DwellTime": 2.1e-06,
  "EchoTime": 0.037,
  "EchoTrainLength": 104,
  "EffectiveEchoSpacing": 0.000560011,
  "FlipAngle": 52,
  "ImageComments": "Unaliased_MB4_PE3_LB",
  "ImageOrientationPatientDICOM": [0.998477, -0.0549167, 0.00524916, 0.053027, 0.929144, -0.365896],
  "ImageType": [
    "ORIGINAL",
    "PRIMARY",
    "M",
    "MB",
    "ND",
    "MOSAIC"
],
  "ImagingFrequency": 123.259,
  "InPlanePhaseEncodingDirectionDICOM": "COL",
  "InstitutionAddress": "Chemin_Queen-Mary_4565_Montreal_District_CA_H3W_1W5",
  "InstitutionName": "IUGM",
  "InstitutionalDepartmentName": "Department",
  "MRAcquisitionType": "2D",
  "MagneticFieldStrength": 3,
  "Manufacturer": "Siemens",
  "ManufacturersModelName": "Prisma_fit",
  "Modality": "MR",
  "MultibandAccelerationFactor": 4,
  "PartialFourier": 1,
  "PatientPosition": "HFS",
  "PercentPhaseFOV": 100,
  "PhaseEncodingDirection": "j",
  "PhaseEncodingSteps": 104,
  "PhaseResolution": 1,
  "PixelBandwidth": 2290,
  "ProcedureStepDescription": "video_friends",
  "ProtocolName": "func_task-s01e21a",
  "PulseSequenceDetails": "%CustomerSeq%_cmrr_mbep2d_bold",
  "ReceiveCoilActiveElements": "HC1-7;NC1,2",
  "ReceiveCoilName": "HeadNeck_64",
  "ReconMatrixPE": 104,
  "RepetitionTime": 1.49,
  "SAR": 0.0278155,
  "ScanOptions": "FS",
  "ScanningSequence": "EP",
  "SequenceName": "epfid2d1_104",
  "SequenceVariant": "SK_SS",
  "SeriesDescription": "func_task-s01e21a",
  "SeriesNumber": 17,
  "ShimSetting": [638, -7269, -8838, 566, 36, -264, -92, -8],
  "SliceThickness": 2,
  "SliceTiming": [0, 0.785, 0.0975, 0.8825, 0.1975, 0.98, 0.295, 1.0775, 0.3925, 1.1775, 0.49, 1.275, 0.5875, 1.3725, 0.6875, 0, 0.785, 0.0975, 0.8825, 0.1975, 0.98, 0.295, 1.0775, 0.3925, 1.1775, 0.49, 1.275, 0.5875, 1.3725, 0.6875, 0, 0.785, 0.0975, 0.8825, 0.1975, 0.98, 0.295, 1.0775, 0.3925, 1.1775, 0.49, 1.275, 0.5875, 1.3725, 0.6875, 0, 0.785, 0.0975, 0.8825, 0.1975, 0.98, 0.295, 1.0775, 0.3925, 1.1775, 0.49, 1.275, 0.5875, 1.3725, 0.6875],
  "SoftwareVersions": "syngo_MR_E11",
  "SpacingBetweenSlices": 2,
  "StationName": "MRC35049",
  "TaskName": "friends",
  "TotalReadoutTime": 0.0576811,
  "TxRefAmp": 220.47,
  "WipMemBlock": "ef1dc4c3-eb8c-4f2f-bd77-8db9bfb5b2ce||Sequence: R016 ve11c/master r/e634e98; Dec 19 2017 11:00:25 by eja",
  "dcmmeta_affine": [
    [-1.996954321861267, 0.1060539036989212, -0.030433136969804764, 96.9482192993164],
    [0.10983347147703171, 1.8582879304885864, -0.7312336564064026, -76.0931167602539],
    [0.010498329065740108, 0.7317913770675659, 1.8612821102142334, -69.58161163330078],
    [0.0, 0.0, 0.0, 1.0]
],
  "dcmmeta_reorient_transform": [
    [0.0, -1.0, 0.0, 103.0],
    [1.0, 0.0, 0.0, 0.0],
    [0.0, 0.0, 1.0, 0.0],
    [0.0, 0.0, 0.0, 1.0]
],
  "dcmmeta_shape": [104, 104, 60, 477],
  "dcmmeta_slice_dim": 2,
  "dcmmeta_version": 0.6,
  "global": {
    "const": {
      "AcquisitionMatrix": [104, 0, 0, 104],
      "AngioFlag": "N",
      "BitsAllocated": 16,
      "BitsStored": 16,
      "BodyPartExamined": "BRAIN",
      "Columns": 832,
      "EchoNumbers": 1,
      "EchoTime": 37.0,
      "EchoTrainLength": 104,
      "FlipAngle": 52.0,
      "HighBit": 15,
      "ImageOrientationPatient": [0.99847713956567, -0.0549167373099, 0.00524916450398, 0.05302695367972, 0.9291439521815, -0.3658956932078],
      "ImagePositionPatient": [-873.36675151122, -751.74795006074, 268.34357739363],
      "ImageType": [
        "ORIGINAL",
        "PRIMARY",
        "M",
        "MB",
        "ND",
        "MOSAIC"
],
      "ImagedNucleus": "1H",
      "ImagingFrequency": 123.259136,
      "InPlanePhaseEncodingDirection": "COL",
      "MRAcquisitionType": "2D",
      "MagneticFieldStrength": 3.0,
      "Manufacturer": "SIEMENS",
      "ManufacturerModelName": "Prisma_fit",
      "Modality": "MR",
      "NumberOfAverages": 1.0,
      "NumberOfPhaseEncodingSteps": 104,
      "PercentPhaseFieldOfView": 100.0,
      "PercentSampling": 100.0,
      "PerformedProcedureStepStartTime": "131024.208000",
      "PhotometricInterpretation": "MONOCHROME2",
      "PixelBandwidth": 2290.0,
      "PixelRepresentation": 0,
      "PixelSpacing": [2.0, 2.0],
      "ProtocolName": "func_task-s01e21a",
      "RepetitionTime": 1490.0,
      "Rows": 832,
      "SAR": 0.0278154754499,
      "SamplesPerPixel": 1,
      "ScanOptions": "FS",
      "ScanningSequence": "EP",
      "SequenceName": "epfid2d1_104",
      "SequenceVariant": [
        "SK",
        "SS"
],
      "SeriesDescription": "func_task-s01e21a",
      "SeriesNumber": 17,
      "SeriesTime": "140241.797000",
      "SliceLocation": -38.409796877533,
      "SliceThickness": 2.0,
      "SmallestImagePixelValue": 0,
      "SoftwareVersions": "syngo MR E11",
      "SpacingBetweenSlices": 1.9999999835755,
      "SpecificCharacterSet": "ISO_IR 100",
      "StudyID": "1",
      "StudyTime": "131024.118000",
      "TransmitCoilName": "Body",
      "VariableFlipAngleFlag": "N",
      "WindowCenterWidthExplanation": "Algo1",
      "dBdt": 0.0},
    "slices": {}
  },
  "time": {
    "samples": {
      "AcquisitionNumber": [1, 2, 3, 4, 5, 6, 7, 8, 9, 10, 11, 12, 13, 14, 15, 16, 17, 18, 19, 20, 21, 22, 23, 24, 25, 26, 27, 28, 29, 30, 31, 32, 33, 34, 35, 36, 37, 38, 39, 40, 41, 42, 43, 44, 45, 46, 47, 48, 49, 50, 51, 52, 53, 54, 55, 56, 57, 58, 59, 60, 61, 62, 63, 64, 65, 66, 67, 68, 69, 70, 71, 72, 73, 74, 75, 76, 77, 78, 79, 80, 81, 82, 83, 84, 85, 86, 87, 88, 89, 90, 91, 92, 93, 94, 95, 96, 97, 98, 99, 100, 101, 102, 103, 104, 105, 106, 107, 108, 109, 110, 111, 112, 113, 114, 115, 116, 117, 118, 119, 120, 121, 122, 123, 124, 125, 126, 127, 128, 129, 130, 131, 132, 133, 134, 135, 136, 137, 138, 139, 140, 141, 142, 143, 144, 145, 146, 147, 148, 149, 150, 151, 152, 153, 154, 155, 156, 157, 158, 159, 160, 161, 162, 163, 164, 165, 166, 167, 168, 169, 170, 171, 172, 173, 174, 175, 176, 177, 178, 179, 180, 181, 182, 183, 184, 185, 186, 187, 188, 189, 190, 191, 192, 193, 194, 195, 196, 197, 198, 199, 200, 201, 202, 203, 204, 205, 206, 207, 208, 209, 210, 211, 212, 213, 214, 215, 216, 217, 218, 219, 220, 221, 222, 223, 224, 225, 226, 227, 228, 229, 230, 231, 232, 233, 234, 235, 236, 237, 238, 239, 240, 241, 242, 243, 244, 245, 246, 247, 248, 249, 250, 251, 252, 253, 254, 255, 256, 257, 258, 259, 260, 261, 262, 263, 264, 265, 266, 267, 268, 269, 270, 271, 272, 273, 274, 275, 276, 277, 278, 279, 280, 281, 282, 283, 284, 285, 286, 287, 288, 289, 290, 291, 292, 293, 294, 295, 296, 297, 298, 299, 300, 301, 302, 303, 304, 305, 306, 307, 308, 309, 310, 311, 312, 313, 314, 315, 316, 317, 318, 319, 320, 321, 322, 323, 324, 325, 326, 327, 328, 329, 330, 331, 332, 333, 334, 335, 336, 337, 338, 339, 340, 341, 342, 343, 344, 345, 346, 347, 348, 349, 350, 351, 352, 353, 354, 355, 356, 357, 358, 359, 360, 361, 362, 363, 364, 365, 366, 367, 368, 369, 370, 371, 372, 373, 374, 375, 376, 377, 378, 379, 380, 381, 382, 383, 384, 385, 386, 387, 388, 389, 390, 391, 392, 393, 394, 395, 396, 397, 398, 399, 400, 401, 402, 403, 404, 405, 406, 407, 408, 409, 410, 411, 412, 413, 414, 415, 416, 417, 418, 419, 420, 421, 422, 423, 424, 425, 426, 427, 428, 429, 430, 431, 432, 433, 434, 435, 436, 437, 438, 439, 440, 441, 442, 443, 444, 445, 446, 447, 448, 449, 450, 451, 452, 453, 454, 455, 456, 457, 458, 459, 460, 461, 462, 463, 464, 465, 466, 467, 468, 469, 470, 471, 472, 473, 474, 475, 476, 477],
      "AcquisitionTime": ["140118.075000", "140119.565000", "140121.055000", "140122.545000", "140124.035000", "140125.525000", "140127.015000", "140128.505000", "140129.995000", "140131.485000", "140132.975000", "140134.465000", "140135.955000", "140137.445000", "140138.935000", "140140.425000", "140141.915000", "140143.405000", "140144.895000", "140146.385000", "140147.875000", "140149.365000", "140150.855000", "140152.345000", "140153.835000", "140155.325000", "140156.815000", "140158.305000", "140159.795000", "140201.285000", "140202.775000", "140204.265000", "140205.755000", "140207.245000", "140208.735000", "140210.225000", "140211.715000", "140213.205000", "140214.695000", "140216.185000", "140217.675000", "140219.165000", "140220.655000", "140222.145000", "140223.635000", "140225.125000", "140226.615000", "140228.105000", "140229.595000", "140231.085000", "140232.575000", "140234.065000", "140235.555000", "140237.045000", "140238.535000", "140240.025000", "140241.515000", "140243.005000", "140244.495000", "140245.985000", "140247.475000", "140248.965000", "140250.455000", "140251.945000", "140253.435000", "140254.925000", "140256.415000", "140257.905000", "140259.395000", "140300.885000", "140302.375000", "140303.865000", "140305.355000", "140306.845000", "140308.335000", "140309.825000", "140311.315000", "140312.805000", "140314.295000", "140315.785000", "140317.275000", "140318.765000", "140320.255000", "140321.745000", "140323.235000", "140324.725000", "140326.215000", "140327.705000", "140329.195000", "140330.685000", "140332.175000", "140333.665000", "140335.155000", "140336.645000", "140338.135000", "140339.625000", "140341.115000", "140342.605000", "140344.095000", "140345.585000", "140347.075000", "140348.565000", "140350.055000", "140351.545000", "140353.035000", "140354.525000", "140356.015000", "140357.505000", "140358.995000", "140400.485000", "140401.975000", "140403.465000", "140404.955000", "140406.445000", "140407.935000", "140409.425000", "140410.915000", "140412.405000", "140413.895000", "140415.385000", "140416.875000", "140418.365000", "140419.855000", "140421.345000", "140422.835000", "140424.325000", "140425.815000", "140427.305000", "140428.795000", "140430.285000", "140431.775000", "140433.265000", "140434.755000", "140436.245000", "140437.735000", "140439.225000", "140440.715000", "140442.205000", "140443.695000", "140445.185000", "140446.675000", "140448.165000", "140449.655000", "140451.145000", "140452.635000", "140454.125000", "140455.615000", "140457.105000", "140458.595000", "140500.085000", "140501.575000", "140503.065000", "140504.555000", "140506.045000", "140507.535000", "140509.025000", "140510.515000", "140512.005000", "140513.495000", "140514.985000", "140516.475000", "140517.965000", "140519.455000", "140520.945000", "140522.435000", "140523.925000", "140525.415000", "140526.905000", "140528.395000", "140529.885000", "140531.375000", "140532.865000", "140534.355000", "140535.845000", "140537.335000", "140538.825000", "140540.315000", "140541.805000", "140543.295000", "140544.785000", "140546.275000", "140547.765000", "140549.255000", "140550.745000", "140552.235000", "140553.725000", "140555.215000", "140556.705000", "140558.195000", "140559.685000", "140601.175000", "140602.665000", "140604.155000", "140605.645000", "140607.135000", "140608.625000", "140610.115000", "140611.605000", "140613.095000", "140614.585000", "140616.075000", "140617.565000", "140619.055000", "140620.545000", "140622.035000", "140623.525000", "140625.015000", "140626.505000", "140627.995000", "140629.485000", "140630.975000", "140632.465000", "140633.955000", "140635.445000", "140636.935000", "140638.425000", "140639.915000", "140641.405000", "140642.895000", "140644.385000", "140645.875000", "140647.365000", "140648.855000", "140650.345000", "140651.835000", "140653.325000", "140654.815000", "140656.305000", "140657.795000", "140659.285000", "140700.775000", "140702.265000", "140703.755000", "140705.245000", "140706.735000", "140708.225000", "140709.715000", "140711.205000", "140712.695000", "140714.185000", "140715.675000", "140717.165000", "140718.655000", "140720.145000", "140721.635000", "140723.125000", "140724.615000", "140726.105000", "140727.595000", "140729.085000", "140730.575000", "140732.065000", "140733.555000", "140735.045000", "140736.535000", "140738.025000", "140739.515000", "140741.005000", "140742.495000", "140743.985000", "140745.475000", "140746.965000", "140748.455000", "140749.945000", "140751.435000", "140752.925000", "140754.415000", "140755.905000", "140757.395000", "140758.885000", "140800.375000", "140801.865000", "140803.355000", "140804.845000", "140806.335000", "140807.825000", "140809.315000", "140810.805000", "140812.295000", "140813.785000", "140815.275000", "140816.765000", "140818.255000", "140819.745000", "140821.235000", "140822.725000", "140824.215000", "140825.705000", "140827.195000", "140828.685000", "140830.175000", "140831.665000", "140833.155000", "140834.645000", "140836.135000", "140837.625000", "140839.115000", "140840.605000", "140842.095000", "140843.585000", "140845.075000", "140846.565000", "140848.055000", "140849.545000", "140851.035000", "140852.525000", "140854.015000", "140855.505000", "140856.995000", "140858.485000", "140859.975000", "140901.465000", "140902.955000", "140904.445000", "140905.935000", "140907.425000", "140908.915000", "140910.405000", "140911.895000", "140913.385000", "140914.875000", "140916.365000", "140917.855000", "140919.345000", "140920.835000", "140922.325000", "140923.815000", "140925.305000", "140926.795000", "140928.285000", "140929.775000", "140931.265000", "140932.755000", "140934.245000", "140935.735000", "140937.225000", "140938.715000", "140940.205000", "140941.695000", "140943.185000", "140944.675000", "140946.165000", "140947.655000", "140949.145000", "140950.635000", "140952.125000", "140953.615000", "140955.105000", "140956.595000", "140958.085000", "140959.575000", "141001.065000", "141002.555000", "141004.045000", "141005.535000", "141007.025000", "141008.515000", "141010.005000", "141011.495000", "141012.985000", "141014.475000", "141015.965000", "141017.455000", "141018.945000", "141020.435000", "141021.925000", "141023.415000", "141024.905000", "141026.395000", "141027.885000", "141029.375000", "141030.865000", "141032.355000", "141033.845000", "141035.335000", "141036.825000", "141038.315000", "141039.805000", "141041.295000", "141042.785000", "141044.275000", "141045.765000", "141047.255000", "141048.745000", "141050.235000", "141051.725000", "141053.215000", "141054.705000", "141056.195000", "141057.685000", "141059.175000", "141100.665000", "141102.155000", "141103.645000", "141105.135000", "141106.625000", "141108.115000", "141109.605000", "141111.095000", "141112.585000", "141114.075000", "141115.565000", "141117.055000", "141118.545000", "141120.035000", "141121.525000", "141123.015000", "141124.505000", "141125.995000", "141127.485000", "141128.975000", "141130.465000", "141131.955000", "141133.445000", "141134.935000", "141136.425000", "141137.915000", "141139.405000", "141140.895000", "141142.385000", "141143.875000", "141145.365000", "141146.855000", "141148.345000", "141149.835000", "141151.325000", "141152.815000", "141154.305000", "141155.795000", "141157.285000", "141158.775000", "141200.265000", "141201.755000", "141203.245000", "141204.735000", "141206.225000", "141207.715000", "141209.205000", "141210.695000", "141212.185000", "141213.675000", "141215.165000", "141216.655000", "141218.145000", "141219.635000", "141221.125000", "141222.615000", "141224.105000", "141225.595000", "141227.085000", "141228.575000", "141230.065000", "141231.555000", "141233.045000", "141234.535000", "141236.025000", "141237.515000", "141239.005000", "141240.495000", "141241.985000", "141243.475000", "141244.965000", "141246.455000", "141247.945000", "141249.435000", "141250.925000", "141252.415000", "141253.905000", "141255.395000", "141256.885000", "141258.375000", "141259.865000", "141301.355000", "141302.845000", "141304.335000", "141305.825000", "141307.315000"],
      "ContentTime": ["140241.800000", "140241.803000", "140241.806000", "140241.809000", "140241.812000", "140241.815000", "140241.818000", "140241.820000", "140241.823000", "140241.826000", "140241.829000", "140241.832000", "140241.835000", "140241.838000", "140241.840000", "140241.843000", "140241.846000", "140241.849000", "140241.852000", "140241.855000", "140241.858000", "140241.861000", "140241.864000", "140241.866000", "140241.869000", "140241.872000", "140241.875000", "140241.878000", "140301.767000", "140301.770000", "140301.779000", "140301.782000", "140301.785000", "140301.788000", "140301.791000", "140301.793000", "140301.796000", "140301.799000", "140301.802000", "140301.805000", "140301.808000", "140301.811000", "140301.813000", "140301.816000", "140301.819000", "140301.822000", "140301.825000", "140301.828000", "140321.767000", "140321.770000", "140321.773000", "140321.776000", "140321.779000", "140321.782000", "140321.784000", "140321.787000", "140321.790000", "140321.793000", "140321.797000", "140321.800000", "140321.803000", "140321.805000", "140321.808000", "140321.811000", "140321.814000", "140321.817000", "140321.820000", "140321.823000", "140341.767000", "140341.770000", "140341.773000", "140341.776000", "140341.779000", "140341.781000", "140341.784000", "140341.787000", "140341.790000", "140341.793000", "140341.796000", "140341.799000", "140341.801000", "140341.804000", "140341.807000", "140341.810000", "140341.813000", "140341.816000", "140341.819000", "140341.821000", "140401.767000", "140401.770000", "140401.773000", "140401.776000", "140401.779000", "140401.781000", "140401.784000", "140401.787000", "140401.793000", "140401.796000", "140401.798000", "140401.801000", "140401.804000", "140401.807000", "140401.810000", "140401.813000", "140401.816000", "140401.818000", "140401.821000", "140401.824000", "140401.827000", "140441.768000", "140441.771000", "140441.774000", "140441.777000", "140441.780000", "140441.783000", "140441.785000", "140441.788000", "140441.791000", "140441.794000", "140441.797000", "140441.800000", "140441.803000", "140441.805000", "140441.808000", "140441.811000", "140441.814000", "140441.817000", "140441.820000", "140441.823000", "140441.826000", "140441.828000", "140441.831000", "140441.834000", "140441.837000", "140441.840000", "140441.843000", "140521.767000", "140521.770000", "140521.773000", "140521.776000", "140521.779000", "140521.782000", "140521.785000", "140521.788000", "140521.791000", "140521.794000", "140521.797000", "140521.800000", "140521.803000", "140521.806000", "140521.809000", "140521.811000", "140521.814000", "140521.817000", "140521.820000", "140521.823000", "140521.826000", "140521.829000", "140521.832000", "140521.834000", "140521.853000", "140521.856000", "140601.767000", "140601.770000", "140601.773000", "140601.776000", "140601.779000", "140601.781000", "140601.784000", "140601.787000", "140601.790000", "140601.793000", "140601.796000", "140601.799000", "140601.802000", "140601.805000", "140601.807000", "140601.810000", "140601.813000", "140601.816000", "140601.819000", "140601.822000", "140601.825000", "140601.828000", "140601.830000", "140601.833000", "140601.836000", "140601.839000", "140601.842000", "140641.768000", "140641.771000", "140641.774000", "140641.777000", "140641.780000", "140641.782000", "140641.785000", "140641.788000", "140641.791000", "140641.794000", "140641.797000", "140641.800000", "140641.803000", "140641.806000", "140641.809000", "140641.812000", "140641.815000", "140641.817000", "140641.820000", "140641.823000", "140641.826000", "140641.829000", "140641.832000", "140641.835000", "140641.838000", "140641.841000", "140641.843000", "140721.767000", "140721.770000", "140721.773000", "140721.776000", "140721.779000", "140721.782000", "140721.784000", "140721.787000", "140721.790000", "140721.793000", "140721.796000", "140721.799000", "140721.802000", "140721.805000", "140721.808000", "140721.810000", "140721.813000", "140721.816000", "140721.819000", "140721.822000", "140721.825000", "140721.828000", "140721.830000", "140721.833000", "140721.836000", "140721.839000", "140721.842000", "140801.767000", "140801.770000", "140801.773000", "140801.776000", "140801.779000", "140801.782000", "140801.784000", "140801.787000", "140801.790000", "140801.793000", "140801.796000", "140801.799000", "140801.802000", "140801.805000", "140801.808000", "140801.810000", "140801.813000", "140801.824000", "140801.827000", "140801.830000", "140801.833000", "140801.836000", "140801.839000", "140801.842000", "140801.844000", "140801.847000", "140801.850000", "140841.767000", "140841.770000", "140841.773000", "140841.776000", "140841.779000", "140841.782000", "140841.785000", "140841.787000", "140841.790000", "140841.793000", "140841.796000", "140841.799000", "140841.802000", "140841.805000", "140841.807000", "140841.815000", "140841.818000", "140841.821000", "140841.824000", "140841.826000", "140841.829000", "140841.832000", "140841.835000", "140841.838000", "140841.841000", "140841.844000", "140841.847000", "140921.768000", "140921.771000", "140921.774000", "140921.777000", "140921.780000", "140921.783000", "140921.786000", "140921.789000", "140921.792000", "140921.795000", "140921.798000", "140921.802000", "140921.805000", "140921.808000", "140921.811000", "140921.814000", "140921.817000", "140921.820000", "140921.822000", "140921.825000", "140921.828000", "140921.831000", "140921.834000", "140921.837000", "140921.840000", "140921.843000", "141001.767000", "141001.770000", "141001.773000", "141001.776000", "141001.779000", "141001.782000", "141001.784000", "141001.787000", "141001.790000", "141001.793000", "141001.796000", "141001.799000", "141001.802000", "141001.805000", "141001.808000", "141001.811000", "141001.814000", "141001.816000", "141001.819000", "141001.822000", "141001.825000", "141001.828000", "141001.831000", "141001.834000", "141001.837000", "141001.855000", "141001.858000", "141041.767000", "141041.770000", "141041.773000", "141041.776000", "141041.779000", "141041.782000", "141041.785000", "141041.787000", "141041.791000", "141041.793000", "141041.796000", "141041.799000", "141041.802000", "141041.805000", "141041.808000", "141041.811000", "141041.814000", "141041.816000", "141041.819000", "141041.822000", "141041.825000", "141041.828000", "141041.831000", "141041.834000", "141041.837000", "141041.840000", "141041.843000", "141121.768000", "141121.771000", "141121.774000", "141121.777000", "141121.780000", "141121.783000", "141121.785000", "141121.788000", "141121.791000", "141121.794000", "141121.797000", "141121.800000", "141121.803000", "141121.806000", "141121.808000", "141121.811000", "141121.814000", "141121.817000", "141121.820000", "141121.823000", "141121.826000", "141121.828000", "141121.831000", "141121.834000", "141121.837000", "141121.840000", "141121.843000", "141201.767000", "141201.770000", "141201.773000", "141201.776000", "141201.779000", "141201.782000", "141201.784000", "141201.787000", "141201.790000", "141201.793000", "141201.796000", "141201.799000", "141201.802000", "141201.805000", "141201.808000", "141201.811000", "141201.814000", "141201.817000", "141201.819000", "141201.822000", "141201.825000", "141201.828000", "141201.831000", "141201.834000", "141201.837000", "141201.840000", "141201.842000", "141241.767000", "141241.770000", "141241.773000", "141241.776000", "141241.779000", "141241.782000", "141241.784000", "141241.787000", "141241.790000", "141241.793000", "141241.796000", "141241.799000", "141241.802000", "141241.805000", "141241.808000", "141241.810000", "141241.813000", "141241.816000", "141241.819000", "141241.822000", "141241.825000", "141241.828000", "141241.831000", "141241.834000", "141241.836000", "141241.839000", "141241.842000", "141309.820000", "141309.823000", "141309.826000", "141309.829000", "141309.832000", "141309.834000", "141309.837000", "141309.840000", "141309.843000", "141309.846000", "141309.849000", "141309.853000", "141309.856000", "141309.859000", "141309.862000", "141309.865000", "141309.867000", "141309.870000", "141309.873000"],
