{
  "AcquisitionMatrixPE": 104,
  "AcquisitionNumber": 1,
  "AcquisitionTime": "15:21:34.632500",
  "BandwidthPerPixelPhaseEncode": 17.17,
  "BaseResolution": 104,
  "BodyPartExamined": "BRAIN",
  "CoilString": "HC1-7;NC1_2",
  "ConsistencyInfo": "N4_VE11C_LATEST_20160120",
  "ConversionSoftware": "dcm2niix",
  "ConversionSoftwareVersion": "v1.0.20190720  (JP2:OpenJPEG) GCC7.3.0",
  "DerivedVendorReportedEchoSpacing": 0.000560011,
  "DeviceSerialNumber": "167006",
  "DwellTime": 2.1e-06,
  "EchoTime": 0.037,
  "EchoTrainLength": 104,
  "EffectiveEchoSpacing": 0.000560011,
  "FlipAngle": 52,
  "ImageComments": "Unaliased_MB4_PE3_LB",
  "ImageOrientationPatientDICOM": [0.99858, -0.0515924, 0.0132732, 0.0530324, 0.939106, -0.33951],
  "ImageType": [
    "ORIGINAL",
    "PRIMARY",
    "M",
    "MB",
    "ND",
    "MOSAIC"
],
  "ImagingFrequency": 123.259,
  "InPlanePhaseEncodingDirectionDICOM": "COL",
  "InstitutionAddress": "Chemin_Queen-Mary_4565_Montreal_District_CA_H3W_1W5",
  "InstitutionName": "IUGM",
  "InstitutionalDepartmentName": "Department",
  "MRAcquisitionType": "2D",
  "MagneticFieldStrength": 3,
  "Manufacturer": "Siemens",
  "ManufacturersModelName": "Prisma_fit",
  "Modality": "MR",
  "MultibandAccelerationFactor": 4,
  "PartialFourier": 1,
  "PatientPosition": "HFS",
  "PercentPhaseFOV": 100,
  "PhaseEncodingDirection": "j",
  "PhaseEncodingSteps": 104,
  "PhaseResolution": 1,
  "PixelBandwidth": 2290,
  "ProcedureStepDescription": "video_friends",
  "ProtocolName": "func_task-s01e23b",
  "PulseSequenceDetails": "%CustomerSeq%_cmrr_mbep2d_bold",
  "ReceiveCoilActiveElements": "HC1-7;NC1,2",
  "ReceiveCoilName": "HeadNeck_64",
  "ReconMatrixPE": 104,
  "RepetitionTime": 1.49,
  "SAR": 0.0272123,
  "ScanOptions": "FS",
  "ScanningSequence": "EP",
  "SequenceName": "epfid2d1_104",
  "SequenceVariant": "SK_SS",
  "SeriesDescription": "func_task-s01e23b",
  "SeriesNumber": 34,
  "ShimSetting": [635, -7274, -8831, 602, 28, -223, -67, -14],
  "SliceThickness": 2,
  "SliceTiming": [0, 0.7825, 0.0975, 0.8825, 0.195, 0.98, 0.295, 1.0775, 0.3925, 1.175, 0.49, 1.2725, 0.5875, 1.3725, 0.685, 0, 0.7825, 0.0975, 0.8825, 0.195, 0.98, 0.295, 1.0775, 0.3925, 1.175, 0.49, 1.2725, 0.5875, 1.3725, 0.685, 0, 0.7825, 0.0975, 0.8825, 0.195, 0.98, 0.295, 1.0775, 0.3925, 1.175, 0.49, 1.2725, 0.5875, 1.3725, 0.685, 0, 0.7825, 0.0975, 0.8825, 0.195, 0.98, 0.295, 1.0775, 0.3925, 1.175, 0.49, 1.2725, 0.5875, 1.3725, 0.685],
  "SoftwareVersions": "syngo_MR_E11",
  "SpacingBetweenSlices": 2,
  "StationName": "MRC35049",
  "TaskName": "friends",
  "TotalReadoutTime": 0.0576811,
  "TxRefAmp": 219.788,
  "WipMemBlock": "fc1d0163-1193-49e2-8b9a-4b0a352b9800||Sequence: R016 ve11c/master r/e634e98; Dec 19 2017 11:00:25 by eja",
  "dcmmeta_affine": [
    [-1.9971600770950317, 0.1060648187994957, -0.010102233849465847, 96.44245910644531],
    [0.10318471491336823, 1.878212809562683, -0.679462730884552, -78.73883056640625],
    [0.026546472683548927, 0.6790190935134888, 1.8810179233551025, -66.85269927978516],
    [0.0, 0.0, 0.0, 1.0]
],
  "dcmmeta_reorient_transform": [
    [0.0, -1.0, 0.0, 103.0],
    [1.0, 0.0, 0.0, 0.0],
    [0.0, 0.0, 1.0, 0.0],
    [0.0, 0.0, 0.0, 1.0]
],
  "dcmmeta_shape": [104, 104, 60, 462],
  "dcmmeta_slice_dim": 2,
  "dcmmeta_version": 0.6,
  "global": {
    "const": {
      "AcquisitionMatrix": [104, 0, 0, 104],
      "AngioFlag": "N",
      "BitsAllocated": 16,
      "BitsStored": 16,
      "BodyPartExamined": "BRAIN",
      "Columns": 832,
      "EchoNumbers": 1,
      "EchoTime": 37.0,
      "EchoTrainLength": 104,
      "FlipAngle": 52.0,
      "HighBit": 15,
      "ImageOrientationPatient": [0.99858001668393, -0.0515923588099, 0.01327323592595, 0.05303240986252, 0.93910640336204, -0.3395095384059],
      "ImagePositionPatient": [-872.94098098717, -760.82730968591, 240.58629371154],
      "ImageType": [
        "ORIGINAL",
        "PRIMARY",
        "M",
        "MB",
        "ND",
        "MOSAIC"
],
      "ImagedNucleus": "1H",
      "ImagingFrequency": 123.259141,
      "InPlanePhaseEncodingDirection": "COL",
      "MRAcquisitionType": "2D",
      "MagneticFieldStrength": 3.0,
      "Manufacturer": "SIEMENS",
      "ManufacturerModelName": "Prisma_fit",
      "Modality": "MR",
      "NumberOfAverages": 1.0,
      "NumberOfPhaseEncodingSteps": 104,
      "PercentPhaseFieldOfView": 100.0,
      "PercentSampling": 100.0,
      "PerformedProcedureStepStartTime": "131024.208000",
      "PhotometricInterpretation": "MONOCHROME2",
      "PixelBandwidth": 2290.0,
      "PixelRepresentation": 0,
      "PixelSpacing": [2.0, 2.0],
      "ProtocolName": "func_task-s01e23b",
      "RepetitionTime": 1490.0,
      "Rows": 832,
      "SAR": 0.02721231808986,
      "SamplesPerPixel": 1,
      "ScanOptions": "FS",
      "ScanningSequence": "EP",
      "SequenceName": "epfid2d1_104",
      "SequenceVariant": [
        "SK",
        "SS"
],
      "SeriesDescription": "func_task-s01e23b",
      "SeriesNumber": 34,
      "SeriesTime": "152301.805000",
      "SliceLocation": -36.612654114449,
      "SliceThickness": 2.0,
      "SmallestImagePixelValue": 0,
      "SoftwareVersions": "syngo MR E11",
      "SpacingBetweenSlices": 2.0000000271517,
      "SpecificCharacterSet": "ISO_IR 100",
      "StudyID": "1",
      "StudyTime": "131024.118000",
      "TransmitCoilName": "Body",
      "VariableFlipAngleFlag": "N",
      "WindowCenterWidthExplanation": "Algo1",
      "dBdt": 0.0},
    "slices": {}
  },
  "time": {
    "samples": {
      "AcquisitionNumber": [1, 2, 3, 4, 5, 6, 7, 8, 9, 10, 11, 12, 13, 14, 15, 16, 17, 18, 19, 20, 21, 22, 23, 24, 25, 26, 27, 28, 29, 30, 31, 32, 33, 34, 35, 36, 37, 38, 39, 40, 41, 42, 43, 44, 45, 46, 47, 48, 49, 50, 51, 52, 53, 54, 55, 56, 57, 58, 59, 60, 61, 62, 63, 64, 65, 66, 67, 68, 69, 70, 71, 72, 73, 74, 75, 76, 77, 78, 79, 80, 81, 82, 83, 84, 85, 86, 87, 88, 89, 90, 91, 92, 93, 94, 95, 96, 97, 98, 99, 100, 101, 102, 103, 104, 105, 106, 107, 108, 109, 110, 111, 112, 113, 114, 115, 116, 117, 118, 119, 120, 121, 122, 123, 124, 125, 126, 127, 128, 129, 130, 131, 132, 133, 134, 135, 136, 137, 138, 139, 140, 141, 142, 143, 144, 145, 146, 147, 148, 149, 150, 151, 152, 153, 154, 155, 156, 157, 158, 159, 160, 161, 162, 163, 164, 165, 166, 167, 168, 169, 170, 171, 172, 173, 174, 175, 176, 177, 178, 179, 180, 181, 182, 183, 184, 185, 186, 187, 188, 189, 190, 191, 192, 193, 194, 195, 196, 197, 198, 199, 200, 201, 202, 203, 204, 205, 206, 207, 208, 209, 210, 211, 212, 213, 214, 215, 216, 217, 218, 219, 220, 221, 222, 223, 224, 225, 226, 227, 228, 229, 230, 231, 232, 233, 234, 235, 236, 237, 238, 239, 240, 241, 242, 243, 244, 245, 246, 247, 248, 249, 250, 251, 252, 253, 254, 255, 256, 257, 258, 259, 260, 261, 262, 263, 264, 265, 266, 267, 268, 269, 270, 271, 272, 273, 274, 275, 276, 277, 278, 279, 280, 281, 282, 283, 284, 285, 286, 287, 288, 289, 290, 291, 292, 293, 294, 295, 296, 297, 298, 299, 300, 301, 302, 303, 304, 305, 306, 307, 308, 309, 310, 311, 312, 313, 314, 315, 316, 317, 318, 319, 320, 321, 322, 323, 324, 325, 326, 327, 328, 329, 330, 331, 332, 333, 334, 335, 336, 337, 338, 339, 340, 341, 342, 343, 344, 345, 346, 347, 348, 349, 350, 351, 352, 353, 354, 355, 356, 357, 358, 359, 360, 361, 362, 363, 364, 365, 366, 367, 368, 369, 370, 371, 372, 373, 374, 375, 376, 377, 378, 379, 380, 381, 382, 383, 384, 385, 386, 387, 388, 389, 390, 391, 392, 393, 394, 395, 396, 397, 398, 399, 400, 401, 402, 403, 404, 405, 406, 407, 408, 409, 410, 411, 412, 413, 414, 415, 416, 417, 418, 419, 420, 421, 422, 423, 424, 425, 426, 427, 428, 429, 430, 431, 432, 433, 434, 435, 436, 437, 438, 439, 440, 441, 442, 443, 444, 445, 446, 447, 448, 449, 450, 451, 452, 453, 454, 455, 456, 457, 458, 459, 460, 461, 462],
      "AcquisitionTime": ["152134.632500", "152136.122500", "152137.612500", "152139.102500", "152140.592500", "152142.082500", "152143.572500", "152145.062500", "152146.552500", "152148.042500", "152149.532500", "152151.022500", "152152.512500", "152154.002500", "152155.492500", "152156.982500", "152158.472500", "152159.962500", "152201.452500", "152202.942500", "152204.432500", "152205.922500", "152207.412500", "152208.902500", "152210.392500", "152211.882500", "152213.372500", "152214.862500", "152216.352500", "152217.842500", "152219.332500", "152220.822500", "152222.312500", "152223.802500", "152225.292500", "152226.782500", "152228.272500", "152229.762500", "152231.252500", "152232.742500", "152234.232500", "152235.722500", "152237.212500", "152238.702500", "152240.192500", "152241.682500", "152243.172500", "152244.662500", "152246.152500", "152247.642500", "152249.132500", "152250.622500", "152252.112500", "152253.602500", "152255.092500", "152256.582500", "152258.072500", "152259.562500", "152301.052500", "152302.542500", "152304.032500", "152305.522500", "152307.012500", "152308.502500", "152309.992500", "152311.482500", "152312.972500", "152314.462500", "152315.952500", "152317.442500", "152318.932500", "152320.422500", "152321.912500", "152323.402500", "152324.892500", "152326.382500", "152327.872500", "152329.362500", "152330.852500", "152332.342500", "152333.832500", "152335.322500", "152336.812500", "152338.302500", "152339.792500", "152341.282500", "152342.772500", "152344.262500", "152345.752500", "152347.242500", "152348.732500", "152350.222500", "152351.712500", "152353.202500", "152354.692500", "152356.182500", "152357.672500", "152359.162500", "152400.652500", "152402.142500", "152403.632500", "152405.122500", "152406.612500", "152408.102500", "152409.592500", "152411.082500", "152412.572500", "152414.062500", "152415.552500", "152417.042500", "152418.532500", "152420.022500", "152421.512500", "152423.002500", "152424.492500", "152425.982500", "152427.472500", "152428.962500", "152430.452500", "152431.942500", "152433.432500", "152434.922500", "152436.412500", "152437.902500", "152439.392500", "152440.882500", "152442.372500", "152443.862500", "152445.352500", "152446.842500", "152448.332500", "152449.822500", "152451.312500", "152452.802500", "152454.292500", "152455.782500", "152457.272500", "152458.762500", "152500.252500", "152501.742500", "152503.232500", "152504.722500", "152506.212500", "152507.702500", "152509.192500", "152510.682500", "152512.172500", "152513.662500", "152515.152500", "152516.642500", "152518.132500", "152519.622500", "152521.112500", "152522.602500", "152524.092500", "152525.582500", "152527.072500", "152528.562500", "152530.052500", "152531.542500", "152533.032500", "152534.522500", "152536.012500", "152537.502500", "152538.992500", "152540.482500", "152541.972500", "152543.462500", "152544.952500", "152546.442500", "152547.932500", "152549.422500", "152550.912500", "152552.402500", "152553.892500", "152555.382500", "152556.872500", "152558.362500", "152559.852500", "152601.342500", "152602.832500", "152604.322500", "152605.812500", "152607.302500", "152608.792500", "152610.282500", "152611.772500", "152613.262500", "152614.752500", "152616.242500", "152617.732500", "152619.222500", "152620.712500", "152622.202500", "152623.692500", "152625.182500", "152626.672500", "152628.162500", "152629.652500", "152631.142500", "152632.632500", "152634.122500", "152635.612500", "152637.102500", "152638.592500", "152640.082500", "152641.572500", "152643.062500", "152644.552500", "152646.042500", "152647.532500", "152649.022500", "152650.512500", "152652.002500", "152653.492500", "152654.982500", "152656.472500", "152657.962500", "152659.452500", "152700.942500", "152702.432500", "152703.922500", "152705.412500", "152706.902500", "152708.392500", "152709.882500", "152711.372500", "152712.862500", "152714.352500", "152715.842500", "152717.332500", "152718.822500", "152720.312500", "152721.802500", "152723.292500", "152724.782500", "152726.272500", "152727.762500", "152729.252500", "152730.742500", "152732.232500", "152733.722500", "152735.212500", "152736.702500", "152738.192500", "152739.682500", "152741.172500", "152742.662500", "152744.152500", "152745.642500", "152747.132500", "152748.622500", "152750.112500", "152751.602500", "152753.092500", "152754.582500", "152756.072500", "152757.562500", "152759.052500", "152800.542500", "152802.032500", "152803.522500", "152805.012500", "152806.502500", "152807.992500", "152809.482500", "152810.972500", "152812.462500", "152813.952500", "152815.442500", "152816.932500", "152818.422500", "152819.912500", "152821.402500", "152822.892500", "152824.382500", "152825.872500", "152827.362500", "152828.852500", "152830.342500", "152831.832500", "152833.322500", "152834.812500", "152836.302500", "152837.792500", "152839.282500", "152840.772500", "152842.262500", "152843.752500", "152845.242500", "152846.732500", "152848.222500", "152849.712500", "152851.202500", "152852.692500", "152854.182500", "152855.672500", "152857.162500", "152858.652500", "152900.142500", "152901.632500", "152903.122500", "152904.612500", "152906.102500", "152907.592500", "152909.082500", "152910.572500", "152912.062500", "152913.552500", "152915.042500", "152916.532500", "152918.022500", "152919.512500", "152921.002500", "152922.492500", "152923.982500", "152925.472500", "152926.962500", "152928.452500", "152929.942500", "152931.432500", "152932.922500", "152934.412500", "152935.902500", "152937.392500", "152938.882500", "152940.372500", "152941.862500", "152943.352500", "152944.842500", "152946.332500", "152947.822500", "152949.312500", "152950.802500", "152952.292500", "152953.782500", "152955.272500", "152956.762500", "152958.252500", "152959.742500", "153001.232500", "153002.722500", "153004.212500", "153005.702500", "153007.192500", "153008.682500", "153010.172500", "153011.662500", "153013.152500", "153014.642500", "153016.132500", "153017.622500", "153019.112500", "153020.602500", "153022.092500", "153023.582500", "153025.072500", "153026.562500", "153028.052500", "153029.542500", "153031.032500", "153032.522500", "153034.012500", "153035.502500", "153036.992500", "153038.482500", "153039.972500", "153041.462500", "153042.952500", "153044.442500", "153045.932500", "153047.422500", "153048.912500", "153050.402500", "153051.892500", "153053.382500", "153054.872500", "153056.362500", "153057.852500", "153059.342500", "153100.832500", "153102.322500", "153103.812500", "153105.302500", "153106.792500", "153108.282500", "153109.772500", "153111.262500", "153112.752500", "153114.242500", "153115.732500", "153117.222500", "153118.712500", "153120.202500", "153121.692500", "153123.182500", "153124.672500", "153126.162500", "153127.652500", "153129.142500", "153130.632500", "153132.122500", "153133.612500", "153135.102500", "153136.592500", "153138.082500", "153139.572500", "153141.062500", "153142.552500", "153144.042500", "153145.532500", "153147.022500", "153148.512500", "153150.002500", "153151.492500", "153152.982500", "153154.472500", "153155.962500", "153157.452500", "153158.942500", "153200.432500", "153201.922500", "153203.412500", "153204.902500", "153206.392500", "153207.882500", "153209.372500", "153210.862500", "153212.352500", "153213.842500", "153215.332500", "153216.822500", "153218.312500", "153219.802500", "153221.292500", "153222.782500", "153224.272500", "153225.762500", "153227.252500", "153228.742500", "153230.232500", "153231.722500", "153233.212500", "153234.702500", "153236.192500", "153237.682500", "153239.172500", "153240.662500", "153242.152500", "153243.642500", "153245.132500", "153246.622500", "153248.112500", "153249.602500", "153251.092500", "153252.582500", "153254.072500", "153255.562500", "153257.052500", "153258.542500", "153300.032500", "153301.522500"],
      "ContentTime": ["152301.807000", "152301.811000", "152301.814000", "152301.817000", "152301.819000", "152301.822000", "152301.825000", "152301.828000", "152301.839000", "152301.842000", "152301.845000", "152301.848000", "152301.851000", "152301.854000", "152301.857000", "152301.860000", "152301.863000", "152301.866000", "152301.869000", "152301.872000", "152301.875000", "152301.878000", "152301.881000", "152301.883000", "152301.886000", "152301.889000", "152301.892000", "152301.895000", "152301.898000", "152301.901000", "152301.904000", "152301.907000", "152321.768000", "152321.771000", "152321.774000", "152321.777000", "152321.780000", "152321.783000", "152321.786000", "152321.788000", "152321.791000", "152321.794000", "152321.797000", "152321.800000", "152321.803000", "152321.806000", "152321.808000", "152321.811000", "152321.814000", "152321.817000", "152321.820000", "152321.823000", "152341.768000", "152341.771000", "152341.774000", "152341.777000", "152341.780000", "152341.783000", "152341.786000", "152341.788000", "152341.791000", "152341.794000", "152341.797000", "152341.800000", "152341.803000", "152341.806000", "152341.809000", "152341.812000", "152341.815000", "152341.818000", "152341.820000", "152341.823000", "152341.826000", "152401.767000", "152401.770000", "152401.773000", "152401.776000", "152401.779000", "152401.782000", "152401.785000", "152401.787000", "152401.790000", "152401.793000", "152401.796000", "152401.799000", "152401.802000", "152401.805000", "152401.808000", "152401.810000", "152401.813000", "152401.829000", "152401.832000", "152401.835000", "152441.767000", "152441.770000", "152441.773000", "152441.776000", "152441.779000", "152441.782000", "152441.785000", "152441.788000", "152441.791000", "152441.793000", "152441.796000", "152441.799000", "152441.802000", "152441.805000", "152441.808000", "152441.811000", "152441.814000", "152441.817000", "152441.820000", "152441.823000", "152441.825000", "152441.828000", "152441.831000", "152441.834000", "152441.837000", "152441.840000", "152441.843000", "152441.846000", "152441.849000", "152441.852000", "152441.855000", "152441.858000", "152521.768000", "152521.771000", "152521.774000", "152521.777000", "152521.780000", "152521.783000", "152521.786000", "152521.789000", "152521.791000", "152521.794000", "152521.797000", "152521.800000", "152521.803000", "152521.806000", "152521.809000", "152521.812000", "152521.815000", "152521.818000", "152521.822000", "152521.825000", "152521.828000", "152521.831000", "152521.834000", "152521.836000", "152521.839000", "152521.842000", "152601.767000", "152601.770000", "152601.773000", "152601.776000", "152601.779000", "152601.782000", "152601.785000", "152601.788000", "152601.791000", "152601.793000", "152601.796000", "152601.799000", "152601.813000", "152601.816000", "152601.818000", "152601.821000", "152601.824000", "152601.827000", "152601.830000", "152601.833000", "152601.836000", "152601.839000", "152601.842000", "152601.844000", "152601.847000", "152601.850000", "152601.853000", "152641.767000", "152641.770000", "152641.773000", "152641.776000", "152641.779000", "152641.782000", "152641.785000", "152641.788000", "152641.791000", "152641.794000", "152641.796000", "152641.799000", "152641.802000", "152641.805000", "152641.808000", "152641.811000", "152641.814000", "152641.817000", "152641.820000", "152641.823000", "152641.826000", "152641.829000", "152641.832000", "152641.834000", "152641.837000", "152641.840000", "152641.843000", "152721.767000", "152721.770000", "152721.773000", "152721.776000", "152721.779000", "152721.782000", "152721.785000", "152721.788000", "152721.791000", "152721.794000", "152721.796000", "152721.799000", "152721.802000", "152721.805000", "152721.808000", "152721.811000", "152721.814000", "152721.817000", "152721.820000", "152721.823000", "152721.825000", "152721.828000", "152721.831000", "152721.834000", "152721.837000", "152721.840000", "152721.843000", "152801.768000", "152801.771000", "152801.774000", "152801.777000", "152801.780000", "152801.792000", "152801.795000", "152801.798000", "152801.801000", "152801.804000", "152801.807000", "152801.810000", "152801.813000", "152801.816000", "152801.818000", "152801.821000", "152801.824000", "152801.827000", "152801.830000", "152801.833000", "152801.836000", "152801.839000", "152801.842000", "152801.845000", "152801.848000", "152801.851000", "152801.854000", "152841.767000", "152841.770000", "152841.773000", "152841.776000", "152841.779000", "152841.782000", "152841.785000", "152841.788000", "152841.791000", "152841.794000", "152841.797000", "152841.799000", "152841.802000", "152841.805000", "152841.808000", "152841.811000", "152841.814000", "152841.817000", "152841.820000", "152841.823000", "152841.826000", "152841.829000", "152841.831000", "152841.834000", "152841.837000", "152841.840000", "152841.843000", "152921.767000", "152921.783000", "152921.786000", "152921.789000", "152921.792000", "152921.795000", "152921.798000", "152921.801000", "152921.804000", "152921.807000", "152921.810000", "152921.813000", "152921.816000", "152921.818000", "152921.821000", "152921.824000", "152921.827000", "152921.830000", "152921.833000", "152921.836000", "152921.839000", "152921.842000", "152921.845000", "152921.848000", "152921.850000", "152921.853000", "152921.856000", "153001.768000", "153001.771000", "153001.774000", "153001.777000", "153001.780000", "153001.783000", "153001.786000", "153001.789000", "153001.792000", "153001.795000", "153001.797000", "153001.800000", "153001.803000", "153001.806000", "153001.810000", "153001.813000", "153001.816000", "153001.819000", "153001.822000", "153001.825000", "153001.828000", "153001.831000", "153001.834000", "153001.837000", "153001.840000", "153001.842000", "153041.767000", "153041.770000", "153041.773000", "153041.776000", "153041.779000", "153041.782000", "153041.785000", "153041.788000", "153041.791000", "153041.794000", "153041.797000", "153041.800000", "153041.803000", "153041.806000", "153041.809000", "153041.812000", "153041.815000", "153041.818000", "153041.820000", "153041.823000", "153041.826000", "153041.829000", "153041.832000", "153041.835000", "153041.838000", "153041.841000", "153041.844000", "153121.767000", "153121.770000", "153121.773000", "153121.776000", "153121.779000", "153121.782000", "153121.785000", "153121.788000", "153121.791000", "153121.794000", "153121.796000", "153121.799000", "153121.802000", "153121.805000", "153121.808000", "153121.811000", "153121.814000", "153121.817000", "153121.820000", "153121.823000", "153121.826000", "153121.829000", "153121.832000", "153121.835000", "153121.838000", "153121.841000", "153121.844000", "153201.767000", "153201.770000", "153201.773000", "153201.776000", "153201.779000", "153201.782000", "153201.785000", "153201.788000", "153201.791000", "153201.794000", "153201.797000", "153201.799000", "153201.802000", "153201.805000", "153201.808000", "153201.811000", "153201.814000", "153201.817000", "153201.820000", "153201.823000", "153201.826000", "153201.829000", "153201.832000", "153201.834000", "153201.837000", "153201.840000", "153201.843000", "153241.768000", "153241.771000", "153241.774000", "153241.777000", "153241.780000", "153241.783000", "153241.786000", "153241.789000", "153241.792000", "153241.795000", "153241.798000", "153241.801000", "153241.804000", "153241.806000", "153241.809000", "153241.812000", "153241.815000", "153241.818000", "153241.821000", "153241.824000", "153241.827000", "153241.830000", "153241.833000", "153241.836000", "153241.839000", "153241.842000", "153241.845000", "153303.785000", "153303.788000", "153303.791000", "153303.794000", "153303.797000", "153303.800000", "153303.803000", "153303.806000", "153303.809000", "153303.812000", "153303.822000", "153303.825000", "153303.828000", "153303.831000", "153303.834000"],
