{
  "AcquisitionMatrixPE": 104,
  "AcquisitionNumber": 1,
  "AcquisitionTime": "13:49:23.887500",
  "BandwidthPerPixelPhaseEncode": 17.17,
  "BaseResolution": 104,
  "BodyPartExamined": "BRAIN",
  "CoilString": "HC1-7;NC1_2",
  "ConsistencyInfo": "N4_VE11C_LATEST_20160120",
  "ConversionSoftware": "dcm2niix",
  "ConversionSoftwareVersion": "v1.0.20190720  (JP2:OpenJPEG) GCC7.3.0",
  "DerivedVendorReportedEchoSpacing": 0.000560011,
  "DeviceSerialNumber": "167006",
  "DwellTime": 2.1e-06,
  "EchoTime": 0.037,
  "EchoTrainLength": 104,
  "EffectiveEchoSpacing": 0.000560011,
  "FlipAngle": 52,
  "ImageComments": "Unaliased_MB4_PE3_LB",
  "ImageOrientationPatientDICOM": [0.998477, -0.0549167, 0.00524916, 0.053027, 0.929144, -0.365896],
  "ImageType": [
    "ORIGINAL",
    "PRIMARY",
    "M",
    "MB",
    "ND",
    "MOSAIC"
],
  "ImagingFrequency": 123.259,
  "InPlanePhaseEncodingDirectionDICOM": "COL",
  "InstitutionAddress": "Chemin_Queen-Mary_4565_Montreal_District_CA_H3W_1W5",
  "InstitutionName": "IUGM",
  "InstitutionalDepartmentName": "Department",
  "MRAcquisitionType": "2D",
  "MagneticFieldStrength": 3,
  "Manufacturer": "Siemens",
  "ManufacturersModelName": "Prisma_fit",
  "Modality": "MR",
  "MultibandAccelerationFactor": 4,
  "PartialFourier": 1,
  "PatientPosition": "HFS",
  "PercentPhaseFOV": 100,
  "PhaseEncodingDirection": "j",
  "PhaseEncodingSteps": 104,
  "PhaseResolution": 1,
  "PixelBandwidth": 2290,
  "ProcedureStepDescription": "video_friends",
  "ProtocolName": "func_task-s01e20b",
  "PulseSequenceDetails": "%CustomerSeq%_cmrr_mbep2d_bold",
  "ReceiveCoilActiveElements": "HC1-7;NC1,2",
  "ReceiveCoilName": "HeadNeck_64",
  "ReconMatrixPE": 104,
  "RepetitionTime": 1.49,
  "SAR": 0.0278112,
  "ScanOptions": "FS",
  "ScanningSequence": "EP",
  "SequenceName": "epfid2d1_104",
  "SequenceVariant": "SK_SS",
  "SeriesDescription": "func_task-s01e20b",
  "SeriesNumber": 15,
  "ShimSetting": [638, -7269, -8838, 566, 36, -264, -92, -8],
  "SliceThickness": 2,
  "SliceTiming": [0, 0.785, 0.0975, 0.8825, 0.195, 0.98, 0.295, 1.0775, 0.3925, 1.175, 0.49, 1.275, 0.5875, 1.3725, 0.685, 0, 0.785, 0.0975, 0.8825, 0.195, 0.98, 0.295, 1.0775, 0.3925, 1.175, 0.49, 1.275, 0.5875, 1.3725, 0.685, 0, 0.785, 0.0975, 0.8825, 0.195, 0.98, 0.295, 1.0775, 0.3925, 1.175, 0.49, 1.275, 0.5875, 1.3725, 0.685, 0, 0.785, 0.0975, 0.8825, 0.195, 0.98, 0.295, 1.0775, 0.3925, 1.175, 0.49, 1.275, 0.5875, 1.3725, 0.685],
  "SoftwareVersions": "syngo_MR_E11",
  "SpacingBetweenSlices": 2,
  "StationName": "MRC35049",
  "TaskName": "friends",
  "TotalReadoutTime": 0.0576811,
  "TxRefAmp": 220.47,
  "WipMemBlock": "d3d495d6-1571-4e24-8198-c34a9213f5d4||Sequence: R016 ve11c/master r/e634e98; Dec 19 2017 11:00:25 by eja",
  "dcmmeta_affine": [
    [-1.996954321861267, 0.1060539036989212, -0.030433136969804764, 96.9482192993164],
    [0.10983347147703171, 1.8582879304885864, -0.7312336564064026, -76.0931167602539],
    [0.010498329065740108, 0.7317913770675659, 1.8612821102142334, -69.58161163330078],
    [0.0, 0.0, 0.0, 1.0]
],
  "dcmmeta_reorient_transform": [
    [0.0, -1.0, 0.0, 103.0],
    [1.0, 0.0, 0.0, 0.0],
    [0.0, 0.0, 1.0, 0.0],
    [0.0, 0.0, 0.0, 1.0]
],
  "dcmmeta_shape": [104, 104, 60, 460],
  "dcmmeta_slice_dim": 2,
  "dcmmeta_version": 0.6,
  "global": {
    "const": {
      "AcquisitionMatrix": [104, 0, 0, 104],
      "AngioFlag": "N",
      "BitsAllocated": 16,
      "BitsStored": 16,
      "BodyPartExamined": "BRAIN",
      "Columns": 832,
      "EchoNumbers": 1,
      "EchoTime": 37.0,
      "EchoTrainLength": 104,
      "FlipAngle": 52.0,
      "HighBit": 15,
      "ImageOrientationPatient": [0.99847713956567, -0.0549167373099, 0.00524916450398, 0.05302695367972, 0.9291439521815, -0.3658956932078],
      "ImagePositionPatient": [-873.36675151122, -751.74795006074, 268.34357739363],
      "ImageType": [
        "ORIGINAL",
        "PRIMARY",
        "M",
        "MB",
        "ND",
        "MOSAIC"
],
      "ImagedNucleus": "1H",
      "ImagingFrequency": 123.259135,
      "InPlanePhaseEncodingDirection": "COL",
      "MRAcquisitionType": "2D",
      "MagneticFieldStrength": 3.0,
      "Manufacturer": "SIEMENS",
      "ManufacturerModelName": "Prisma_fit",
      "Modality": "MR",
      "NumberOfAverages": 1.0,
      "NumberOfPhaseEncodingSteps": 104,
      "PercentPhaseFieldOfView": 100.0,
      "PercentSampling": 100.0,
      "PerformedProcedureStepStartTime": "131024.208000",
      "PhotometricInterpretation": "MONOCHROME2",
      "PixelBandwidth": 2290.0,
      "PixelRepresentation": 0,
      "PixelSpacing": [2.0, 2.0],
      "ProtocolName": "func_task-s01e20b",
      "RepetitionTime": 1490.0,
      "Rows": 832,
      "SAR": 0.02781121672073,
      "SamplesPerPixel": 1,
      "ScanOptions": "FS",
      "ScanningSequence": "EP",
      "SequenceName": "epfid2d1_104",
      "SequenceVariant": [
        "SK",
        "SS"
],
      "SeriesDescription": "func_task-s01e20b",
      "SeriesNumber": 15,
      "SeriesTime": "135030.097000",
      "SliceLocation": -38.409796877533,
      "SliceThickness": 2.0,
      "SmallestImagePixelValue": 0,
      "SoftwareVersions": "syngo MR E11",
      "SpacingBetweenSlices": 1.9999999835755,
      "SpecificCharacterSet": "ISO_IR 100",
      "StudyID": "1",
      "StudyTime": "131024.118000",
      "TransmitCoilName": "Body",
      "VariableFlipAngleFlag": "N",
      "WindowCenterWidthExplanation": "Algo1",
      "dBdt": 0.0},
    "slices": {}
  },
  "time": {
    "samples": {
      "AcquisitionNumber": [1, 2, 3, 4, 5, 6, 7, 8, 9, 10, 11, 12, 13, 14, 15, 16, 17, 18, 19, 20, 21, 22, 23, 24, 25, 26, 27, 28, 29, 30, 31, 32, 33, 34, 35, 36, 37, 38, 39, 40, 41, 42, 43, 44, 45, 46, 47, 48, 49, 50, 51, 52, 53, 54, 55, 56, 57, 58, 59, 60, 61, 62, 63, 64, 65, 66, 67, 68, 69, 70, 71, 72, 73, 74, 75, 76, 77, 78, 79, 80, 81, 82, 83, 84, 85, 86, 87, 88, 89, 90, 91, 92, 93, 94, 95, 96, 97, 98, 99, 100, 101, 102, 103, 104, 105, 106, 107, 108, 109, 110, 111, 112, 113, 114, 115, 116, 117, 118, 119, 120, 121, 122, 123, 124, 125, 126, 127, 128, 129, 130, 131, 132, 133, 134, 135, 136, 137, 138, 139, 140, 141, 142, 143, 144, 145, 146, 147, 148, 149, 150, 151, 152, 153, 154, 155, 156, 157, 158, 159, 160, 161, 162, 163, 164, 165, 166, 167, 168, 169, 170, 171, 172, 173, 174, 175, 176, 177, 178, 179, 180, 181, 182, 183, 184, 185, 186, 187, 188, 189, 190, 191, 192, 193, 194, 195, 196, 197, 198, 199, 200, 201, 202, 203, 204, 205, 206, 207, 208, 209, 210, 211, 212, 213, 214, 215, 216, 217, 218, 219, 220, 221, 222, 223, 224, 225, 226, 227, 228, 229, 230, 231, 232, 233, 234, 235, 236, 237, 238, 239, 240, 241, 242, 243, 244, 245, 246, 247, 248, 249, 250, 251, 252, 253, 254, 255, 256, 257, 258, 259, 260, 261, 262, 263, 264, 265, 266, 267, 268, 269, 270, 271, 272, 273, 274, 275, 276, 277, 278, 279, 280, 281, 282, 283, 284, 285, 286, 287, 288, 289, 290, 291, 292, 293, 294, 295, 296, 297, 298, 299, 300, 301, 302, 303, 304, 305, 306, 307, 308, 309, 310, 311, 312, 313, 314, 315, 316, 317, 318, 319, 320, 321, 322, 323, 324, 325, 326, 327, 328, 329, 330, 331, 332, 333, 334, 335, 336, 337, 338, 339, 340, 341, 342, 343, 344, 345, 346, 347, 348, 349, 350, 351, 352, 353, 354, 355, 356, 357, 358, 359, 360, 361, 362, 363, 364, 365, 366, 367, 368, 369, 370, 371, 372, 373, 374, 375, 376, 377, 378, 379, 380, 381, 382, 383, 384, 385, 386, 387, 388, 389, 390, 391, 392, 393, 394, 395, 396, 397, 398, 399, 400, 401, 402, 403, 404, 405, 406, 407, 408, 409, 410, 411, 412, 413, 414, 415, 416, 417, 418, 419, 420, 421, 422, 423, 424, 425, 426, 427, 428, 429, 430, 431, 432, 433, 434, 435, 436, 437, 438, 439, 440, 441, 442, 443, 444, 445, 446, 447, 448, 449, 450, 451, 452, 453, 454, 455, 456, 457, 458, 459, 460],
      "AcquisitionTime": ["134923.887500", "134925.377500", "134926.867500", "134928.357500", "134929.847500", "134931.337500", "134932.827500", "134934.317500", "134935.807500", "134937.297500", "134938.787500", "134940.277500", "134941.767500", "134943.257500", "134944.747500", "134946.237500", "134947.727500", "134949.217500", "134950.707500", "134952.197500", "134953.687500", "134955.177500", "134956.667500", "134958.157500", "134959.647500", "135001.137500", "135002.627500", "135004.117500", "135005.607500", "135007.097500", "135008.587500", "135010.077500", "135011.567500", "135013.057500", "135014.547500", "135016.037500", "135017.527500", "135019.017500", "135020.507500", "135021.997500", "135023.487500", "135024.977500", "135026.467500", "135027.957500", "135029.447500", "135030.937500", "135032.427500", "135033.917500", "135035.407500", "135036.897500", "135038.387500", "135039.877500", "135041.367500", "135042.857500", "135044.347500", "135045.837500", "135047.327500", "135048.817500", "135050.307500", "135051.797500", "135053.287500", "135054.777500", "135056.267500", "135057.757500", "135059.247500", "135100.737500", "135102.227500", "135103.717500", "135105.207500", "135106.697500", "135108.187500", "135109.677500", "135111.167500", "135112.657500", "135114.147500", "135115.637500", "135117.127500", "135118.617500", "135120.107500", "135121.597500", "135123.087500", "135124.577500", "135126.067500", "135127.557500", "135129.047500", "135130.537500", "135132.027500", "135133.517500", "135135.007500", "135136.497500", "135137.987500", "135139.477500", "135140.967500", "135142.457500", "135143.947500", "135145.437500", "135146.927500", "135148.417500", "135149.907500", "135151.397500", "135152.887500", "135154.377500", "135155.867500", "135157.357500", "135158.847500", "135200.337500", "135201.827500", "135203.317500", "135204.807500", "135206.297500", "135207.787500", "135209.277500", "135210.767500", "135212.257500", "135213.747500", "135215.237500", "135216.727500", "135218.217500", "135219.707500", "135221.197500", "135222.687500", "135224.177500", "135225.667500", "135227.157500", "135228.647500", "135230.137500", "135231.627500", "135233.117500", "135234.607500", "135236.097500", "135237.587500", "135239.077500", "135240.567500", "135242.057500", "135243.547500", "135245.037500", "135246.527500", "135248.017500", "135249.507500", "135250.997500", "135252.487500", "135253.977500", "135255.467500", "135256.957500", "135258.447500", "135259.937500", "135301.427500", "135302.917500", "135304.407500", "135305.897500", "135307.387500", "135308.877500", "135310.367500", "135311.857500", "135313.347500", "135314.837500", "135316.327500", "135317.817500", "135319.307500", "135320.797500", "135322.287500", "135323.777500", "135325.267500", "135326.757500", "135328.247500", "135329.737500", "135331.227500", "135332.717500", "135334.207500", "135335.697500", "135337.187500", "135338.677500", "135340.167500", "135341.657500", "135343.147500", "135344.637500", "135346.127500", "135347.617500", "135349.107500", "135350.597500", "135352.087500", "135353.577500", "135355.067500", "135356.557500", "135358.047500", "135359.537500", "135401.027500", "135402.517500", "135404.007500", "135405.497500", "135406.987500", "135408.477500", "135409.967500", "135411.457500", "135412.947500", "135414.437500", "135415.927500", "135417.417500", "135418.907500", "135420.397500", "135421.887500", "135423.377500", "135424.867500", "135426.357500", "135427.847500", "135429.337500", "135430.827500", "135432.317500", "135433.807500", "135435.297500", "135436.787500", "135438.277500", "135439.767500", "135441.257500", "135442.747500", "135444.237500", "135445.727500", "135447.217500", "135448.707500", "135450.197500", "135451.687500", "135453.177500", "135454.667500", "135456.157500", "135457.647500", "135459.137500", "135500.627500", "135502.117500", "135503.607500", "135505.097500", "135506.587500", "135508.077500", "135509.567500", "135511.057500", "135512.547500", "135514.037500", "135515.527500", "135517.017500", "135518.507500", "135519.997500", "135521.487500", "135522.977500", "135524.467500", "135525.957500", "135527.447500", "135528.937500", "135530.427500", "135531.917500", "135533.407500", "135534.897500", "135536.387500", "135537.877500", "135539.367500", "135540.857500", "135542.347500", "135543.837500", "135545.327500", "135546.817500", "135548.307500", "135549.797500", "135551.287500", "135552.777500", "135554.267500", "135555.757500", "135557.247500", "135558.737500", "135600.227500", "135601.717500", "135603.207500", "135604.697500", "135606.187500", "135607.677500", "135609.167500", "135610.657500", "135612.147500", "135613.637500", "135615.127500", "135616.617500", "135618.107500", "135619.597500", "135621.087500", "135622.577500", "135624.067500", "135625.557500", "135627.047500", "135628.537500", "135630.027500", "135631.517500", "135633.007500", "135634.497500", "135635.987500", "135637.477500", "135638.967500", "135640.457500", "135641.947500", "135643.437500", "135644.927500", "135646.417500", "135647.907500", "135649.397500", "135650.887500", "135652.377500", "135653.867500", "135655.357500", "135656.847500", "135658.337500", "135659.827500", "135701.317500", "135702.807500", "135704.297500", "135705.787500", "135707.277500", "135708.767500", "135710.257500", "135711.747500", "135713.237500", "135714.727500", "135716.217500", "135717.707500", "135719.197500", "135720.687500", "135722.177500", "135723.667500", "135725.157500", "135726.647500", "135728.137500", "135729.627500", "135731.117500", "135732.607500", "135734.097500", "135735.587500", "135737.077500", "135738.567500", "135740.057500", "135741.547500", "135743.037500", "135744.527500", "135746.017500", "135747.507500", "135748.997500", "135750.487500", "135751.977500", "135753.467500", "135754.957500", "135756.447500", "135757.937500", "135759.427500", "135800.917500", "135802.407500", "135803.897500", "135805.387500", "135806.877500", "135808.367500", "135809.857500", "135811.347500", "135812.837500", "135814.327500", "135815.817500", "135817.307500", "135818.797500", "135820.287500", "135821.777500", "135823.267500", "135824.757500", "135826.247500", "135827.737500", "135829.227500", "135830.717500", "135832.207500", "135833.697500", "135835.187500", "135836.677500", "135838.167500", "135839.657500", "135841.147500", "135842.637500", "135844.127500", "135845.617500", "135847.107500", "135848.597500", "135850.087500", "135851.577500", "135853.067500", "135854.557500", "135856.047500", "135857.537500", "135859.027500", "135900.517500", "135902.007500", "135903.497500", "135904.987500", "135906.477500", "135907.967500", "135909.457500", "135910.947500", "135912.437500", "135913.927500", "135915.417500", "135916.907500", "135918.397500", "135919.887500", "135921.377500", "135922.867500", "135924.357500", "135925.847500", "135927.337500", "135928.827500", "135930.317500", "135931.807500", "135933.297500", "135934.787500", "135936.277500", "135937.767500", "135939.257500", "135940.747500", "135942.237500", "135943.727500", "135945.217500", "135946.707500", "135948.197500", "135949.687500", "135951.177500", "135952.667500", "135954.157500", "135955.647500", "135957.137500", "135958.627500", "140000.117500", "140001.607500", "140003.097500", "140004.587500", "140006.077500", "140007.567500", "140009.057500", "140010.547500", "140012.037500", "140013.527500", "140015.017500", "140016.507500", "140017.997500", "140019.487500", "140020.977500", "140022.467500", "140023.957500", "140025.447500", "140026.937500", "140028.427500", "140029.917500", "140031.407500", "140032.897500", "140034.387500", "140035.877500", "140037.367500", "140038.857500", "140040.347500", "140041.837500", "140043.327500", "140044.817500", "140046.307500", "140047.797500"],
      "ContentTime": ["135030.099000", "135030.103000", "135030.115000", "135030.118000", "135030.121000", "135030.123000", "135030.144000", "135030.147000", "135030.150000", "135030.159000", "135030.162000", "135030.165000", "135050.069000", "135050.072000", "135050.075000", "135050.078000", "135050.080000", "135050.083000", "135050.086000", "135050.089000", "135050.097000", "135050.100000", "135050.103000", "135050.106000", "135050.109000", "135050.112000", "135050.115000", "135050.117000", "135050.120000", "135050.123000", "135050.126000", "135050.129000", "135050.132000", "135110.069000", "135110.072000", "135110.075000", "135110.078000", "135110.081000", "135110.083000", "135110.095000", "135110.098000", "135110.101000", "135110.104000", "135110.107000", "135110.110000", "135110.112000", "135110.115000", "135110.118000", "135110.121000", "135110.124000", "135110.127000", "135110.129000", "135110.132000", "135130.069000", "135130.072000", "135130.075000", "135130.078000", "135130.080000", "135130.083000", "135130.086000", "135130.089000", "135130.092000", "135130.095000", "135130.098000", "135130.101000", "135130.104000", "135130.107000", "135130.110000", "135130.113000", "135130.116000", "135130.119000", "135130.122000", "135130.124000", "135150.070000", "135150.073000", "135150.076000", "135150.079000", "135150.081000", "135150.084000", "135150.087000", "135150.090000", "135150.093000", "135150.096000", "135150.099000", "135150.101000", "135150.104000", "135150.107000", "135150.110000", "135150.113000", "135150.116000", "135150.119000", "135150.122000", "135150.125000", "135150.127000", "135230.070000", "135230.073000", "135230.076000", "135230.088000", "135230.091000", "135230.094000", "135230.097000", "135230.100000", "135230.103000", "135230.112000", "135230.115000", "135230.118000", "135230.121000", "135230.124000", "135230.127000", "135230.130000", "135230.133000", "135230.135000", "135230.138000", "135230.141000", "135230.144000", "135230.147000", "135230.150000", "135230.153000", "135230.156000", "135230.159000", "135230.162000", "135230.165000", "135230.167000", "135230.186000", "135310.069000", "135310.072000", "135310.075000", "135310.078000", "135310.081000", "135310.083000", "135310.086000", "135310.089000", "135310.092000", "135310.095000", "135310.098000", "135310.101000", "135310.104000", "135310.107000", "135310.109000", "135310.112000", "135310.115000", "135310.118000", "135310.121000", "135310.124000", "135310.127000", "135310.130000", "135310.133000", "135310.136000", "135310.138000", "135310.141000", "135310.144000", "135350.069000", "135350.072000", "135350.075000", "135350.078000", "135350.081000", "135350.084000", "135350.087000", "135350.089000", "135350.092000", "135350.095000", "135350.098000", "135350.101000", "135350.104000", "135350.107000", "135350.110000", "135350.112000", "135350.115000", "135350.118000", "135350.121000", "135350.124000", "135350.127000", "135350.130000", "135350.133000", "135350.135000", "135350.138000", "135350.141000", "135350.144000", "135430.070000", "135430.073000", "135430.076000", "135430.079000", "135430.082000", "135430.085000", "135430.087000", "135430.090000", "135430.093000", "135430.096000", "135430.099000", "135430.102000", "135430.105000", "135430.108000", "135430.111000", "135430.113000", "135430.116000", "135430.119000", "135430.122000", "135430.125000", "135430.128000", "135430.131000", "135430.134000", "135430.137000", "135430.140000", "135430.142000", "135430.145000", "135510.069000", "135510.072000", "135510.075000", "135510.078000", "135510.081000", "135510.084000", "135510.087000", "135510.090000", "135510.093000", "135510.095000", "135510.098000", "135510.101000", "135510.104000", "135510.107000", "135510.110000", "135510.113000", "135510.116000", "135510.118000", "135510.128000", "135510.131000", "135510.134000", "135510.137000", "135510.140000", "135510.143000", "135510.146000", "135510.149000", "135510.151000", "135550.069000", "135550.072000", "135550.075000", "135550.078000", "135550.081000", "135550.084000", "135550.086000", "135550.089000", "135550.110000", "135550.113000", "135550.116000", "135550.119000", "135550.121000", "135550.124000", "135550.127000", "135550.130000", "135550.133000", "135550.136000", "135550.139000", "135550.142000", "135550.144000", "135550.147000", "135550.150000", "135550.153000", "135550.156000", "135550.159000", "135630.070000", "135630.073000", "135630.076000", "135630.079000", "135630.082000", "135630.084000", "135630.087000", "135630.090000", "135630.093000", "135630.096000", "135630.099000", "135630.102000", "135630.105000", "135630.108000", "135630.111000", "135630.114000", "135630.116000", "135630.119000", "135630.122000", "135630.125000", "135630.128000", "135630.131000", "135630.134000", "135630.137000", "135630.140000", "135630.143000", "135630.145000", "135710.070000", "135710.073000", "135710.076000", "135710.079000", "135710.082000", "135710.085000", "135710.087000", "135710.090000", "135710.093000", "135710.096000", "135710.099000", "135710.102000", "135710.105000", "135710.108000", "135710.111000", "135710.114000", "135710.116000", "135710.119000", "135710.123000", "135710.125000", "135710.128000", "135710.131000", "135710.134000", "135710.137000", "135710.140000", "135710.143000", "135710.146000", "135750.069000", "135750.072000", "135750.075000", "135750.078000", "135750.081000", "135750.084000", "135750.086000", "135750.089000", "135750.092000", "135750.095000", "135750.098000", "135750.101000", "135750.104000", "135750.107000", "135750.110000", "135750.113000", "135750.115000", "135750.118000", "135750.121000", "135750.124000", "135750.127000", "135750.130000", "135750.133000", "135750.136000", "135750.139000", "135750.141000", "135750.144000", "135830.069000", "135830.072000", "135830.075000", "135830.078000", "135830.081000", "135830.084000", "135830.087000", "135830.090000", "135830.093000", "135830.096000", "135830.098000", "135830.101000", "135830.104000", "135830.107000", "135830.110000", "135830.113000", "135830.116000", "135830.119000", "135830.122000", "135830.125000", "135830.127000", "135830.130000", "135830.133000", "135830.136000", "135830.139000", "135830.142000", "135830.145000", "135910.070000", "135910.073000", "135910.076000", "135910.079000", "135910.082000", "135910.085000", "135910.088000", "135910.091000", "135910.093000", "135910.096000", "135910.099000", "135910.102000", "135910.105000", "135910.108000", "135910.111000", "135910.114000", "135910.117000", "135910.119000", "135910.122000", "135910.125000", "135910.128000", "135910.131000", "135910.134000", "135910.137000", "135910.140000", "135910.142000", "135910.145000", "135950.069000", "135950.072000", "135950.075000", "135950.078000", "135950.081000", "135950.084000", "135950.087000", "135950.089000", "135950.092000", "135950.095000", "135950.098000", "135950.101000", "135950.104000", "135950.107000", "135950.110000", "135950.113000", "135950.116000", "135950.119000", "135950.123000", "135950.125000", "135950.128000", "135950.131000", "135950.134000", "135950.137000", "135950.140000", "135950.143000", "140030.069000", "140030.072000", "140030.075000", "140030.078000", "140030.081000", "140030.084000", "140030.086000", "140030.089000", "140030.092000", "140030.095000", "140030.116000", "140030.119000", "140030.122000", "140030.125000", "140030.128000", "140030.131000", "140030.134000", "140030.136000", "140030.139000", "140030.142000", "140030.145000", "140030.148000", "140030.151000", "140030.154000", "140030.157000", "140030.160000", "140030.163000", "140049.769000", "140049.772000", "140049.775000", "140049.778000", "140049.781000", "140049.784000", "140049.787000", "140049.790000", "140049.793000", "140049.796000", "140049.799000", "140049.802000", "140049.805000", "140049.808000"],
