{
  "AcquisitionMatrixPE": 104,
  "AcquisitionNumber": 1,
  "AcquisitionTime": "13:13:22.877500",
  "BandwidthPerPixelPhaseEncode": 17.17,
  "BaseResolution": 104,
  "BodyPartExamined": "BRAIN",
  "CoilString": "HC1-7;NC1_2",
  "ConsistencyInfo": "N4_VE11C_LATEST_20160120",
  "ConversionSoftware": "dcm2niix",
  "ConversionSoftwareVersion": "v1.0.20190720  (JP2:OpenJPEG) GCC7.3.0",
  "DerivedVendorReportedEchoSpacing": 0.000560011,
  "DeviceSerialNumber": "167006",
  "DwellTime": 2.1e-06,
  "EchoTime": 0.037,
  "EchoTrainLength": 104,
  "EffectiveEchoSpacing": 0.000560011,
  "FlipAngle": 52,
  "ImageComments": "Unaliased_MB4_PE3_LB",
  "ImageOrientationPatientDICOM": [0.998477, -0.0549167, 0.00524916, 0.053027, 0.929144, -0.365896],
  "ImageType": [
    "ORIGINAL",
    "PRIMARY",
    "M",
    "MB",
    "ND",
    "MOSAIC"
],
  "ImagingFrequency": 123.259,
  "InPlanePhaseEncodingDirectionDICOM": "COL",
  "InstitutionAddress": "Chemin_Queen-Mary_4565_Montreal_District_CA_H3W_1W5",
  "InstitutionName": "IUGM",
  "InstitutionalDepartmentName": "Department",
  "MRAcquisitionType": "2D",
  "MagneticFieldStrength": 3,
  "Manufacturer": "Siemens",
  "ManufacturersModelName": "Prisma_fit",
  "Modality": "MR",
  "MultibandAccelerationFactor": 4,
  "PartialFourier": 1,
  "PatientPosition": "HFS",
  "PercentPhaseFOV": 100,
  "PhaseEncodingDirection": "j",
  "PhaseEncodingSteps": 104,
  "PhaseResolution": 1,
  "PixelBandwidth": 2290,
  "ProcedureStepDescription": "video_friends",
  "ProtocolName": "func_task-s01e19a",
  "PulseSequenceDetails": "%CustomerSeq%_cmrr_mbep2d_bold",
  "ReceiveCoilActiveElements": "HC1-7;NC1,2",
  "ReceiveCoilName": "HeadNeck_64",
  "ReconMatrixPE": 104,
  "RepetitionTime": 1.49,
  "SAR": 0.0278112,
  "ScanOptions": "FS",
  "ScanningSequence": "EP",
  "SequenceName": "epfid2d1_104",
  "SequenceVariant": "SK_SS",
  "SeriesDescription": "func_task-s01e19a",
  "SeriesNumber": 9,
  "ShimSetting": [638, -7269, -8838, 566, 36, -264, -92, -8],
  "SliceThickness": 2,
  "SliceTiming": [0, 0.7825, 0.0975, 0.8825, 0.195, 0.98, 0.2925, 1.0775, 0.3925, 1.175, 0.49, 1.2725, 0.5875, 1.37, 0.685, 0, 0.7825, 0.0975, 0.8825, 0.195, 0.98, 0.2925, 1.0775, 0.3925, 1.175, 0.49, 1.2725, 0.5875, 1.37, 0.685, 0, 0.7825, 0.0975, 0.8825, 0.195, 0.98, 0.2925, 1.0775, 0.3925, 1.175, 0.49, 1.2725, 0.5875, 1.37, 0.685, 0, 0.7825, 0.0975, 0.8825, 0.195, 0.98, 0.2925, 1.0775, 0.3925, 1.175, 0.49, 1.2725, 0.5875, 1.37, 0.685],
  "SoftwareVersions": "syngo_MR_E11",
  "SpacingBetweenSlices": 2,
  "StationName": "MRC35049",
  "TaskName": "friends",
  "TotalReadoutTime": 0.0576811,
  "TxRefAmp": 220.47,
  "WipMemBlock": "dfb5f21e-64ae-41cd-b324-2a5759e6259f||Sequence: R016 ve11c/master r/e634e98; Dec 19 2017 11:00:25 by eja",
  "dcmmeta_affine": [
    [-1.996954321861267, 0.1060539036989212, -0.030433136969804764, 96.9482192993164],
    [0.10983347147703171, 1.8582879304885864, -0.7312336564064026, -76.0931167602539],
    [0.010498329065740108, 0.7317913770675659, 1.8612821102142334, -69.58161163330078],
    [0.0, 0.0, 0.0, 1.0]
],
  "dcmmeta_reorient_transform": [
    [0.0, -1.0, 0.0, 103.0],
    [1.0, 0.0, 0.0, 0.0],
    [0.0, 0.0, 1.0, 0.0],
    [0.0, 0.0, 0.0, 1.0]
],
  "dcmmeta_shape": [104, 104, 60, 460],
  "dcmmeta_slice_dim": 2,
  "dcmmeta_version": 0.6,
  "global": {
    "const": {
      "AcquisitionMatrix": [104, 0, 0, 104],
      "AngioFlag": "N",
      "BitsAllocated": 16,
      "BitsStored": 16,
      "BodyPartExamined": "BRAIN",
      "Columns": 832,
      "EchoNumbers": 1,
      "EchoTime": 37.0,
      "EchoTrainLength": 104,
      "FlipAngle": 52.0,
      "HighBit": 15,
      "ImageOrientationPatient": [0.99847713956567, -0.0549167373099, 0.00524916450398, 0.05302695367972, 0.9291439521815, -0.3658956932078],
      "ImagePositionPatient": [-873.36675151122, -751.74795006074, 268.34357739363],
      "ImageType": [
        "ORIGINAL",
        "PRIMARY",
        "M",
        "MB",
        "ND",
        "MOSAIC"
],
      "ImagedNucleus": "1H",
      "ImagingFrequency": 123.259109,
      "InPlanePhaseEncodingDirection": "COL",
      "MRAcquisitionType": "2D",
      "MagneticFieldStrength": 3.0,
      "Manufacturer": "SIEMENS",
      "ManufacturerModelName": "Prisma_fit",
      "Modality": "MR",
      "NumberOfAverages": 1.0,
      "NumberOfPhaseEncodingSteps": 104,
      "PercentPhaseFieldOfView": 100.0,
      "PercentSampling": 100.0,
      "PerformedProcedureStepStartTime": "131024.208000",
      "PhotometricInterpretation": "MONOCHROME2",
      "PixelBandwidth": 2290.0,
      "PixelRepresentation": 0,
      "PixelSpacing": [2.0, 2.0],
      "ProtocolName": "func_task-s01e19a",
      "RepetitionTime": 1490.0,
      "Rows": 832,
      "SAR": 0.02781121672073,
      "SamplesPerPixel": 1,
      "ScanOptions": "FS",
      "ScanningSequence": "EP",
      "SequenceName": "epfid2d1_104",
      "SequenceVariant": [
        "SK",
        "SS"
],
      "SeriesDescription": "func_task-s01e19a",
      "SeriesNumber": 9,
      "SeriesTime": "131450.115000",
      "SliceLocation": -38.409796877533,
      "SliceThickness": 2.0,
      "SmallestImagePixelValue": 0,
      "SoftwareVersions": "syngo MR E11",
      "SpacingBetweenSlices": 1.9999999835755,
      "SpecificCharacterSet": "ISO_IR 100",
      "StudyID": "1",
      "StudyTime": "131024.118000",
      "TransmitCoilName": "Body",
      "VariableFlipAngleFlag": "N",
      "WindowCenterWidthExplanation": "Algo1",
      "dBdt": 0.0},
    "slices": {}
  },
  "time": {
    "samples": {
      "AcquisitionNumber": [1, 2, 3, 4, 5, 6, 7, 8, 9, 10, 11, 12, 13, 14, 15, 16, 17, 18, 19, 20, 21, 22, 23, 24, 25, 26, 27, 28, 29, 30, 31, 32, 33, 34, 35, 36, 37, 38, 39, 40, 41, 42, 43, 44, 45, 46, 47, 48, 49, 50, 51, 52, 53, 54, 55, 56, 57, 58, 59, 60, 61, 62, 63, 64, 65, 66, 67, 68, 69, 70, 71, 72, 73, 74, 75, 76, 77, 78, 79, 80, 81, 82, 83, 84, 85, 86, 87, 88, 89, 90, 91, 92, 93, 94, 95, 96, 97, 98, 99, 100, 101, 102, 103, 104, 105, 106, 107, 108, 109, 110, 111, 112, 113, 114, 115, 116, 117, 118, 119, 120, 121, 122, 123, 124, 125, 126, 127, 128, 129, 130, 131, 132, 133, 134, 135, 136, 137, 138, 139, 140, 141, 142, 143, 144, 145, 146, 147, 148, 149, 150, 151, 152, 153, 154, 155, 156, 157, 158, 159, 160, 161, 162, 163, 164, 165, 166, 167, 168, 169, 170, 171, 172, 173, 174, 175, 176, 177, 178, 179, 180, 181, 182, 183, 184, 185, 186, 187, 188, 189, 190, 191, 192, 193, 194, 195, 196, 197, 198, 199, 200, 201, 202, 203, 204, 205, 206, 207, 208, 209, 210, 211, 212, 213, 214, 215, 216, 217, 218, 219, 220, 221, 222, 223, 224, 225, 226, 227, 228, 229, 230, 231, 232, 233, 234, 235, 236, 237, 238, 239, 240, 241, 242, 243, 244, 245, 246, 247, 248, 249, 250, 251, 252, 253, 254, 255, 256, 257, 258, 259, 260, 261, 262, 263, 264, 265, 266, 267, 268, 269, 270, 271, 272, 273, 274, 275, 276, 277, 278, 279, 280, 281, 282, 283, 284, 285, 286, 287, 288, 289, 290, 291, 292, 293, 294, 295, 296, 297, 298, 299, 300, 301, 302, 303, 304, 305, 306, 307, 308, 309, 310, 311, 312, 313, 314, 315, 316, 317, 318, 319, 320, 321, 322, 323, 324, 325, 326, 327, 328, 329, 330, 331, 332, 333, 334, 335, 336, 337, 338, 339, 340, 341, 342, 343, 344, 345, 346, 347, 348, 349, 350, 351, 352, 353, 354, 355, 356, 357, 358, 359, 360, 361, 362, 363, 364, 365, 366, 367, 368, 369, 370, 371, 372, 373, 374, 375, 376, 377, 378, 379, 380, 381, 382, 383, 384, 385, 386, 387, 388, 389, 390, 391, 392, 393, 394, 395, 396, 397, 398, 399, 400, 401, 402, 403, 404, 405, 406, 407, 408, 409, 410, 411, 412, 413, 414, 415, 416, 417, 418, 419, 420, 421, 422, 423, 424, 425, 426, 427, 428, 429, 430, 431, 432, 433, 434, 435, 436, 437, 438, 439, 440, 441, 442, 443, 444, 445, 446, 447, 448, 449, 450, 451, 452, 453, 454, 455, 456, 457, 458, 459, 460],
      "AcquisitionTime": ["131322.877500", "131324.367500", "131325.857500", "131327.347500", "131328.837500", "131330.327500", "131331.817500", "131333.307500", "131334.797500", "131336.287500", "131337.777500", "131339.267500", "131340.757500", "131342.247500", "131343.737500", "131345.227500", "131346.717500", "131348.207500", "131349.697500", "131351.187500", "131352.677500", "131354.167500", "131355.657500", "131357.147500", "131358.637500", "131400.127500", "131401.617500", "131403.107500", "131404.597500", "131406.087500", "131407.577500", "131409.067500", "131410.557500", "131412.047500", "131413.537500", "131415.027500", "131416.517500", "131418.007500", "131419.497500", "131420.987500", "131422.477500", "131423.967500", "131425.457500", "131426.947500", "131428.437500", "131429.927500", "131431.417500", "131432.907500", "131434.397500", "131435.887500", "131437.377500", "131438.867500", "131440.357500", "131441.847500", "131443.337500", "131444.827500", "131446.317500", "131447.807500", "131449.297500", "131450.787500", "131452.277500", "131453.767500", "131455.257500", "131456.747500", "131458.237500", "131459.727500", "131501.217500", "131502.707500", "131504.197500", "131505.687500", "131507.177500", "131508.667500", "131510.157500", "131511.647500", "131513.137500", "131514.627500", "131516.117500", "131517.607500", "131519.097500", "131520.587500", "131522.077500", "131523.567500", "131525.057500", "131526.547500", "131528.037500", "131529.527500", "131531.017500", "131532.507500", "131533.997500", "131535.487500", "131536.977500", "131538.467500", "131539.957500", "131541.447500", "131542.937500", "131544.427500", "131545.917500", "131547.407500", "131548.897500", "131550.387500", "131551.877500", "131553.367500", "131554.857500", "131556.347500", "131557.837500", "131559.327500", "131600.817500", "131602.307500", "131603.797500", "131605.287500", "131606.777500", "131608.267500", "131609.757500", "131611.247500", "131612.737500", "131614.227500", "131615.717500", "131617.207500", "131618.697500", "131620.187500", "131621.677500", "131623.167500", "131624.657500", "131626.147500", "131627.637500", "131629.127500", "131630.617500", "131632.107500", "131633.597500", "131635.087500", "131636.577500", "131638.067500", "131639.557500", "131641.047500", "131642.537500", "131644.027500", "131645.517500", "131647.007500", "131648.497500", "131649.987500", "131651.477500", "131652.967500", "131654.457500", "131655.947500", "131657.437500", "131658.927500", "131700.417500", "131701.907500", "131703.397500", "131704.887500", "131706.377500", "131707.867500", "131709.357500", "131710.847500", "131712.337500", "131713.827500", "131715.317500", "131716.807500", "131718.297500", "131719.787500", "131721.277500", "131722.767500", "131724.257500", "131725.747500", "131727.237500", "131728.727500", "131730.217500", "131731.707500", "131733.197500", "131734.687500", "131736.177500", "131737.667500", "131739.157500", "131740.647500", "131742.137500", "131743.627500", "131745.117500", "131746.607500", "131748.097500", "131749.587500", "131751.077500", "131752.567500", "131754.057500", "131755.547500", "131757.037500", "131758.527500", "131800.017500", "131801.507500", "131802.997500", "131804.487500", "131805.977500", "131807.467500", "131808.957500", "131810.447500", "131811.937500", "131813.427500", "131814.917500", "131816.407500", "131817.897500", "131819.387500", "131820.877500", "131822.367500", "131823.857500", "131825.347500", "131826.837500", "131828.327500", "131829.817500", "131831.307500", "131832.797500", "131834.287500", "131835.777500", "131837.267500", "131838.757500", "131840.247500", "131841.737500", "131843.227500", "131844.717500", "131846.207500", "131847.697500", "131849.187500", "131850.677500", "131852.167500", "131853.657500", "131855.147500", "131856.637500", "131858.127500", "131859.617500", "131901.107500", "131902.597500", "131904.087500", "131905.577500", "131907.067500", "131908.557500", "131910.047500", "131911.537500", "131913.027500", "131914.517500", "131916.007500", "131917.497500", "131918.987500", "131920.477500", "131921.967500", "131923.457500", "131924.947500", "131926.437500", "131927.927500", "131929.417500", "131930.907500", "131932.397500", "131933.887500", "131935.377500", "131936.867500", "131938.357500", "131939.847500", "131941.337500", "131942.827500", "131944.317500", "131945.807500", "131947.297500", "131948.787500", "131950.277500", "131951.767500", "131953.257500", "131954.747500", "131956.237500", "131957.727500", "131959.217500", "132000.707500", "132002.197500", "132003.687500", "132005.177500", "132006.667500", "132008.157500", "132009.647500", "132011.137500", "132012.627500", "132014.117500", "132015.607500", "132017.097500", "132018.587500", "132020.077500", "132021.567500", "132023.057500", "132024.547500", "132026.037500", "132027.527500", "132029.017500", "132030.507500", "132031.997500", "132033.487500", "132034.977500", "132036.467500", "132037.957500", "132039.447500", "132040.937500", "132042.427500", "132043.917500", "132045.407500", "132046.897500", "132048.387500", "132049.877500", "132051.367500", "132052.857500", "132054.347500", "132055.837500", "132057.327500", "132058.817500", "132100.307500", "132101.797500", "132103.287500", "132104.777500", "132106.267500", "132107.757500", "132109.247500", "132110.737500", "132112.227500", "132113.717500", "132115.207500", "132116.697500", "132118.187500", "132119.677500", "132121.167500", "132122.657500", "132124.147500", "132125.637500", "132127.127500", "132128.617500", "132130.107500", "132131.597500", "132133.087500", "132134.577500", "132136.067500", "132137.557500", "132139.047500", "132140.537500", "132142.027500", "132143.517500", "132145.007500", "132146.497500", "132147.987500", "132149.477500", "132150.967500", "132152.457500", "132153.947500", "132155.437500", "132156.927500", "132158.417500", "132159.907500", "132201.397500", "132202.887500", "132204.377500", "132205.867500", "132207.357500", "132208.847500", "132210.337500", "132211.827500", "132213.317500", "132214.807500", "132216.297500", "132217.787500", "132219.277500", "132220.767500", "132222.257500", "132223.747500", "132225.237500", "132226.727500", "132228.217500", "132229.707500", "132231.197500", "132232.687500", "132234.177500", "132235.667500", "132237.157500", "132238.647500", "132240.137500", "132241.627500", "132243.117500", "132244.607500", "132246.097500", "132247.587500", "132249.077500", "132250.567500", "132252.057500", "132253.547500", "132255.037500", "132256.527500", "132258.017500", "132259.507500", "132300.997500", "132302.487500", "132303.977500", "132305.467500", "132306.957500", "132308.447500", "132309.937500", "132311.427500", "132312.917500", "132314.407500", "132315.897500", "132317.387500", "132318.877500", "132320.367500", "132321.857500", "132323.347500", "132324.837500", "132326.327500", "132327.817500", "132329.307500", "132330.797500", "132332.287500", "132333.777500", "132335.267500", "132336.757500", "132338.247500", "132339.737500", "132341.227500", "132342.717500", "132344.207500", "132345.697500", "132347.187500", "132348.677500", "132350.167500", "132351.657500", "132353.147500", "132354.637500", "132356.127500", "132357.617500", "132359.107500", "132400.597500", "132402.087500", "132403.577500", "132405.067500", "132406.557500", "132408.047500", "132409.537500", "132411.027500", "132412.517500", "132414.007500", "132415.497500", "132416.987500", "132418.477500", "132419.967500", "132421.457500", "132422.947500", "132424.437500", "132425.927500", "132427.417500", "132428.907500", "132430.397500", "132431.887500", "132433.377500", "132434.867500", "132436.357500", "132437.847500", "132439.337500", "132440.827500", "132442.317500", "132443.807500", "132445.297500", "132446.787500"],
      "ContentTime": ["131450.117000", "131450.121000", "131450.123000", "131450.126000", "131450.129000", "131450.132000", "131450.135000", "131450.138000", "131450.141000", "131450.143000", "131450.146000", "131450.149000", "131450.152000", "131450.155000", "131450.159000", "131450.163000", "131450.173000", "131450.176000", "131450.179000", "131450.181000", "131450.184000", "131450.187000", "131450.190000", "131450.193000", "131450.196000", "131450.201000", "131450.204000", "131450.207000", "131450.210000", "131450.213000", "131450.215000", "131510.070000", "131510.073000", "131510.076000", "131510.078000", "131510.081000", "131510.084000", "131510.087000", "131510.090000", "131510.093000", "131510.096000", "131510.099000", "131510.102000", "131510.104000", "131510.107000", "131510.110000", "131510.113000", "131510.116000", "131510.119000", "131510.122000", "131510.124000", "131510.127000", "131530.070000", "131530.073000", "131530.076000", "131530.079000", "131530.081000", "131530.084000", "131530.087000", "131530.090000", "131530.093000", "131530.096000", "131530.099000", "131530.101000", "131530.104000", "131530.107000", "131530.110000", "131530.113000", "131530.116000", "131530.119000", "131530.121000", "131530.124000", "131550.069000", "131550.072000", "131550.075000", "131550.078000", "131550.080000", "131550.090000", "131550.093000", "131550.096000", "131550.099000", "131550.102000", "131550.105000", "131550.107000", "131550.110000", "131550.113000", "131550.116000", "131550.119000", "131550.122000", "131550.125000", "131550.128000", "131550.131000", "131630.069000", "131630.072000", "131630.075000", "131630.078000", "131630.081000", "131630.083000", "131630.086000", "131630.089000", "131630.092000", "131630.095000", "131630.098000", "131630.101000", "131630.104000", "131630.107000", "131630.110000", "131630.113000", "131630.116000", "131630.119000", "131630.122000", "131630.125000", "131630.128000", "131630.131000", "131630.133000", "131630.136000", "131630.139000", "131630.142000", "131630.145000", "131630.148000", "131630.160000", "131630.163000", "131630.166000", "131630.169000", "131710.070000", "131710.073000", "131710.076000", "131710.079000", "131710.082000", "131710.085000", "131710.087000", "131710.090000", "131710.093000", "131710.096000", "131710.099000", "131710.102000", "131710.105000", "131710.108000", "131710.110000", "131710.113000", "131710.116000", "131710.119000", "131710.122000", "131710.125000", "131710.128000", "131710.131000", "131710.134000", "131710.136000", "131710.139000", "131710.142000", "131710.145000", "131750.070000", "131750.073000", "131750.077000", "131750.080000", "131750.082000", "131750.085000", "131750.088000", "131750.091000", "131750.094000", "131750.110000", "131750.113000", "131750.116000", "131750.119000", "131750.121000", "131750.124000", "131750.127000", "131750.130000", "131750.133000", "131750.136000", "131750.139000", "131750.141000", "131750.144000", "131750.147000", "131750.150000", "131750.153000", "131750.156000", "131750.159000", "131830.069000", "131830.072000", "131830.075000", "131830.078000", "131830.081000", "131830.084000", "131830.087000", "131830.089000", "131830.092000", "131830.095000", "131830.098000", "131830.101000", "131830.104000", "131830.107000", "131830.110000", "131830.113000", "131830.115000", "131830.118000", "131830.121000", "131830.134000", "131830.137000", "131830.140000", "131830.143000", "131830.145000", "131830.148000", "131830.151000", "131830.154000", "131910.069000", "131910.072000", "131910.075000", "131910.078000", "131910.081000", "131910.084000", "131910.087000", "131910.090000", "131910.093000", "131910.095000", "131910.098000", "131910.101000", "131910.104000", "131910.107000", "131910.110000", "131910.113000", "131910.115000", "131910.118000", "131910.121000", "131910.124000", "131910.127000", "131910.130000", "131910.133000", "131910.136000", "131910.138000", "131910.141000", "131910.144000", "131950.070000", "131950.073000", "131950.076000", "131950.079000", "131950.082000", "131950.084000", "131950.087000", "131950.090000", "131950.093000", "131950.096000", "131950.099000", "131950.102000", "131950.105000", "131950.108000", "131950.110000", "131950.113000", "131950.116000", "131950.119000", "131950.122000", "131950.125000", "131950.128000", "131950.131000", "131950.133000", "131950.136000", "131950.139000", "131950.142000", "131950.145000", "132030.069000", "132030.072000", "132030.075000", "132030.078000", "132030.081000", "132030.084000", "132030.086000", "132030.089000", "132030.092000", "132030.095000", "132030.098000", "132030.101000", "132030.104000", "132030.107000", "132030.110000", "132030.112000", "132030.115000", "132030.118000", "132030.121000", "132030.124000", "132030.127000", "132030.130000", "132030.133000", "132030.136000", "132030.139000", "132030.141000", "132110.069000", "132110.072000", "132110.084000", "132110.087000", "132110.090000", "132110.093000", "132110.096000", "132110.099000", "132110.102000", "132110.105000", "132110.108000", "132110.110000", "132110.114000", "132110.116000", "132110.119000", "132110.122000", "132110.125000", "132110.128000", "132110.131000", "132110.134000", "132110.136000", "132110.139000", "132110.142000", "132110.145000", "132110.148000", "132110.151000", "132110.154000", "132150.070000", "132150.073000", "132150.076000", "132150.079000", "132150.082000", "132150.085000", "132150.088000", "132150.091000", "132150.094000", "132150.096000", "132150.099000", "132150.102000", "132150.105000", "132150.108000", "132150.111000", "132150.114000", "132150.117000", "132150.120000", "132150.122000", "132150.125000", "132150.128000", "132150.131000", "132150.134000", "132150.137000", "132150.140000", "132150.143000", "132150.146000", "132230.070000", "132230.073000", "132230.076000", "132230.079000", "132230.082000", "132230.084000", "132230.087000", "132230.090000", "132230.093000", "132230.096000", "132230.099000", "132230.102000", "132230.105000", "132230.108000", "132230.111000", "132230.113000", "132230.116000", "132230.119000", "132230.122000", "132230.125000", "132230.128000", "132230.131000", "132230.134000", "132230.136000", "132230.139000", "132230.142000", "132230.145000", "132310.069000", "132310.080000", "132310.083000", "132310.086000", "132310.089000", "132310.092000", "132310.095000", "132310.098000", "132310.101000", "132310.104000", "132310.107000", "132310.109000", "132310.112000", "132310.115000", "132310.118000", "132310.121000", "132310.124000", "132310.127000", "132310.130000", "132310.133000", "132310.136000", "132310.138000", "132310.141000", "132310.144000", "132310.147000", "132310.150000", "132310.153000", "132350.069000", "132350.072000", "132350.075000", "132350.078000", "132350.081000", "132350.084000", "132350.087000", "132350.089000", "132350.092000", "132350.095000", "132350.098000", "132350.101000", "132350.104000", "132350.107000", "132350.110000", "132350.113000", "132350.116000", "132350.119000", "132350.121000", "132350.124000", "132350.127000", "132350.130000", "132350.133000", "132350.136000", "132350.139000", "132350.142000", "132350.144000", "132430.070000", "132430.073000", "132430.076000", "132430.079000", "132430.082000", "132430.085000", "132430.087000", "132430.090000", "132430.093000", "132430.096000", "132430.100000", "132430.103000", "132430.106000", "132430.109000", "132430.112000", "132430.115000", "132430.118000", "132430.121000", "132430.123000", "132430.126000", "132430.129000", "132430.132000", "132430.135000", "132430.138000", "132430.141000", "132430.144000", "132430.147000", "132449.370000", "132449.374000", "132449.376000", "132449.379000", "132449.382000", "132449.385000", "132449.388000", "132449.391000", "132449.394000", "132449.397000", "132449.400000", "132449.403000", "132449.405000"],
