{
  "AcquisitionMatrixPE": 104,
  "AcquisitionNumber": 1,
  "AcquisitionTime": "14:57:15.670000",
  "BandwidthPerPixelPhaseEncode": 17.17,
  "BaseResolution": 104,
  "BodyPartExamined": "BRAIN",
  "CoilString": "HC1-7;NC1_2",
  "ConsistencyInfo": "N4_VE11C_LATEST_20160120",
  "ConversionSoftware": "dcm2niix",
  "ConversionSoftwareVersion": "v1.0.20190720  (JP2:OpenJPEG) GCC7.3.0",
  "DerivedVendorReportedEchoSpacing": 0.000560011,
  "DeviceSerialNumber": "167006",
  "DwellTime": 2.1e-06,
  "EchoTime": 0.037,
  "EchoTrainLength": 104,
  "EffectiveEchoSpacing": 0.000560011,
  "FlipAngle": 52,
  "ImageComments": "Unaliased_MB4_PE3_LB",
  "ImageOrientationPatientDICOM": [0.99858, -0.0515924, 0.0132732, 0.0530324, 0.939106, -0.33951],
  "ImageType": [
    "ORIGINAL",
    "PRIMARY",
    "M",
    "MB",
    "ND",
    "MOSAIC"
],
  "ImagingFrequency": 123.259,
  "InPlanePhaseEncodingDirectionDICOM": "COL",
  "InstitutionAddress": "Chemin_Queen-Mary_4565_Montreal_District_CA_H3W_1W5",
  "InstitutionName": "IUGM",
  "InstitutionalDepartmentName": "Department",
  "MRAcquisitionType": "2D",
  "MagneticFieldStrength": 3,
  "Manufacturer": "Siemens",
  "ManufacturersModelName": "Prisma_fit",
  "Modality": "MR",
  "MultibandAccelerationFactor": 4,
  "PartialFourier": 1,
  "PatientPosition": "HFS",
  "PercentPhaseFOV": 100,
  "PhaseEncodingDirection": "j",
  "PhaseEncodingSteps": 104,
  "PhaseResolution": 1,
  "PixelBandwidth": 2290,
  "ProcedureStepDescription": "video_friends",
  "ProtocolName": "func_task-s01e22b",
  "PulseSequenceDetails": "%CustomerSeq%_cmrr_mbep2d_bold",
  "ReceiveCoilActiveElements": "HC1-7;NC1,2",
  "ReceiveCoilName": "HeadNeck_64",
  "ReconMatrixPE": 104,
  "RepetitionTime": 1.49,
  "SAR": 0.0272153,
  "ScanOptions": "FS",
  "ScanningSequence": "EP",
  "SequenceName": "epfid2d1_104",
  "SequenceVariant": "SK_SS",
  "SeriesDescription": "func_task-s01e22b",
  "SeriesNumber": 30,
  "ShimSetting": [635, -7274, -8831, 602, 28, -223, -67, -14],
  "SliceThickness": 2,
  "SliceTiming": [0, 0.785, 0.0975, 0.8825, 0.1975, 0.98, 0.295, 1.0775, 0.3925, 1.1775, 0.49, 1.275, 0.5875, 1.3725, 0.6875, 0, 0.785, 0.0975, 0.8825, 0.1975, 0.98, 0.295, 1.0775, 0.3925, 1.1775, 0.49, 1.275, 0.5875, 1.3725, 0.6875, 0, 0.785, 0.0975, 0.8825, 0.1975, 0.98, 0.295, 1.0775, 0.3925, 1.1775, 0.49, 1.275, 0.5875, 1.3725, 0.6875, 0, 0.785, 0.0975, 0.8825, 0.1975, 0.98, 0.295, 1.0775, 0.3925, 1.1775, 0.49, 1.275, 0.5875, 1.3725, 0.6875],
  "SoftwareVersions": "syngo_MR_E11",
  "SpacingBetweenSlices": 2,
  "StationName": "MRC35049",
  "TaskName": "friends",
  "TotalReadoutTime": 0.0576811,
  "TxRefAmp": 219.788,
  "WipMemBlock": "9da6fc03-4d2a-4812-a630-22b58dcc7f7e||Sequence: R016 ve11c/master r/e634e98; Dec 19 2017 11:00:25 by eja",
  "dcmmeta_affine": [
    [-1.9971600770950317, 0.1060648187994957, -0.010102233849465847, 96.44245910644531],
    [0.10318471491336823, 1.878212809562683, -0.679462730884552, -78.73883056640625],
    [0.026546472683548927, 0.6790190935134888, 1.8810179233551025, -66.85269927978516],
    [0.0, 0.0, 0.0, 1.0]
],
  "dcmmeta_reorient_transform": [
    [0.0, -1.0, 0.0, 103.0],
    [1.0, 0.0, 0.0, 0.0],
    [0.0, 0.0, 1.0, 0.0],
    [0.0, 0.0, 0.0, 1.0]
],
  "dcmmeta_shape": [104, 104, 60, 474],
  "dcmmeta_slice_dim": 2,
  "dcmmeta_version": 0.6,
  "global": {
    "const": {
      "AcquisitionMatrix": [104, 0, 0, 104],
      "AngioFlag": "N",
      "BitsAllocated": 16,
      "BitsStored": 16,
      "BodyPartExamined": "BRAIN",
      "Columns": 832,
      "EchoNumbers": 1,
      "EchoTime": 37.0,
      "EchoTrainLength": 104,
      "FlipAngle": 52.0,
      "HighBit": 15,
      "ImageOrientationPatient": [0.99858001668393, -0.0515923588099, 0.01327323592595, 0.05303240986252, 0.93910640336204, -0.3395095384059],
      "ImagePositionPatient": [-872.94098098717, -760.82730968591, 240.58629371154],
      "ImageType": [
        "ORIGINAL",
        "PRIMARY",
        "M",
        "MB",
        "ND",
        "MOSAIC"
],
      "ImagedNucleus": "1H",
      "ImagingFrequency": 123.259131,
      "InPlanePhaseEncodingDirection": "COL",
      "MRAcquisitionType": "2D",
      "MagneticFieldStrength": 3.0,
      "Manufacturer": "SIEMENS",
      "ManufacturerModelName": "Prisma_fit",
      "Modality": "MR",
      "NumberOfAverages": 1.0,
      "NumberOfPhaseEncodingSteps": 104,
      "PercentPhaseFieldOfView": 100.0,
      "PercentSampling": 100.0,
      "PerformedProcedureStepStartTime": "131024.208000",
      "PhotometricInterpretation": "MONOCHROME2",
      "PixelBandwidth": 2290.0,
      "PixelRepresentation": 0,
      "PixelSpacing": [2.0, 2.0],
      "ProtocolName": "func_task-s01e22b",
      "RepetitionTime": 1490.0,
      "Rows": 832,
      "SAR": 0.02721526200528,
      "SamplesPerPixel": 1,
      "ScanOptions": "FS",
      "ScanningSequence": "EP",
      "SequenceName": "epfid2d1_104",
      "SequenceVariant": [
        "SK",
        "SS"
],
      "SeriesDescription": "func_task-s01e22b",
      "SeriesNumber": 30,
      "SeriesTime": "145842.452000",
      "SliceLocation": -36.612654114449,
      "SliceThickness": 2.0,
      "SmallestImagePixelValue": 0,
      "SoftwareVersions": "syngo MR E11",
      "SpacingBetweenSlices": 2.0000000271517,
      "SpecificCharacterSet": "ISO_IR 100",
      "StudyID": "1",
      "StudyTime": "131024.118000",
      "TransmitCoilName": "Body",
      "VariableFlipAngleFlag": "N",
      "WindowCenterWidthExplanation": "Algo1",
      "dBdt": 0.0},
    "slices": {}
  },
  "time": {
    "samples": {
      "AcquisitionNumber": [1, 2, 3, 4, 5, 6, 7, 8, 9, 10, 11, 12, 13, 14, 15, 16, 17, 18, 19, 20, 21, 22, 23, 24, 25, 26, 27, 28, 29, 30, 31, 32, 33, 34, 35, 36, 37, 38, 39, 40, 41, 42, 43, 44, 45, 46, 47, 48, 49, 50, 51, 52, 53, 54, 55, 56, 57, 58, 59, 60, 61, 62, 63, 64, 65, 66, 67, 68, 69, 70, 71, 72, 73, 74, 75, 76, 77, 78, 79, 80, 81, 82, 83, 84, 85, 86, 87, 88, 89, 90, 91, 92, 93, 94, 95, 96, 97, 98, 99, 100, 101, 102, 103, 104, 105, 106, 107, 108, 109, 110, 111, 112, 113, 114, 115, 116, 117, 118, 119, 120, 121, 122, 123, 124, 125, 126, 127, 128, 129, 130, 131, 132, 133, 134, 135, 136, 137, 138, 139, 140, 141, 142, 143, 144, 145, 146, 147, 148, 149, 150, 151, 152, 153, 154, 155, 156, 157, 158, 159, 160, 161, 162, 163, 164, 165, 166, 167, 168, 169, 170, 171, 172, 173, 174, 175, 176, 177, 178, 179, 180, 181, 182, 183, 184, 185, 186, 187, 188, 189, 190, 191, 192, 193, 194, 195, 196, 197, 198, 199, 200, 201, 202, 203, 204, 205, 206, 207, 208, 209, 210, 211, 212, 213, 214, 215, 216, 217, 218, 219, 220, 221, 222, 223, 224, 225, 226, 227, 228, 229, 230, 231, 232, 233, 234, 235, 236, 237, 238, 239, 240, 241, 242, 243, 244, 245, 246, 247, 248, 249, 250, 251, 252, 253, 254, 255, 256, 257, 258, 259, 260, 261, 262, 263, 264, 265, 266, 267, 268, 269, 270, 271, 272, 273, 274, 275, 276, 277, 278, 279, 280, 281, 282, 283, 284, 285, 286, 287, 288, 289, 290, 291, 292, 293, 294, 295, 296, 297, 298, 299, 300, 301, 302, 303, 304, 305, 306, 307, 308, 309, 310, 311, 312, 313, 314, 315, 316, 317, 318, 319, 320, 321, 322, 323, 324, 325, 326, 327, 328, 329, 330, 331, 332, 333, 334, 335, 336, 337, 338, 339, 340, 341, 342, 343, 344, 345, 346, 347, 348, 349, 350, 351, 352, 353, 354, 355, 356, 357, 358, 359, 360, 361, 362, 363, 364, 365, 366, 367, 368, 369, 370, 371, 372, 373, 374, 375, 376, 377, 378, 379, 380, 381, 382, 383, 384, 385, 386, 387, 388, 389, 390, 391, 392, 393, 394, 395, 396, 397, 398, 399, 400, 401, 402, 403, 404, 405, 406, 407, 408, 409, 410, 411, 412, 413, 414, 415, 416, 417, 418, 419, 420, 421, 422, 423, 424, 425, 426, 427, 428, 429, 430, 431, 432, 433, 434, 435, 436, 437, 438, 439, 440, 441, 442, 443, 444, 445, 446, 447, 448, 449, 450, 451, 452, 453, 454, 455, 456, 457, 458, 459, 460, 461, 462, 463, 464, 465, 466, 467, 468, 469, 470, 471, 472, 473, 474],
      "AcquisitionTime": ["145715.670000", "145717.160000", "145718.650000", "145720.140000", "145721.630000", "145723.120000", "145724.610000", "145726.100000", "145727.590000", "145729.080000", "145730.570000", "145732.060000", "145733.550000", "145735.040000", "145736.530000", "145738.020000", "145739.510000", "145741.000000", "145742.490000", "145743.980000", "145745.470000", "145746.960000", "145748.450000", "145749.940000", "145751.430000", "145752.920000", "145754.410000", "145755.900000", "145757.390000", "145758.880000", "145800.370000", "145801.860000", "145803.350000", "145804.840000", "145806.330000", "145807.820000", "145809.310000", "145810.800000", "145812.290000", "145813.780000", "145815.270000", "145816.760000", "145818.250000", "145819.740000", "145821.230000", "145822.720000", "145824.210000", "145825.700000", "145827.190000", "145828.680000", "145830.170000", "145831.660000", "145833.150000", "145834.640000", "145836.130000", "145837.620000", "145839.110000", "145840.600000", "145842.090000", "145843.580000", "145845.070000", "145846.560000", "145848.050000", "145849.540000", "145851.030000", "145852.520000", "145854.010000", "145855.500000", "145856.990000", "145858.480000", "145859.970000", "145901.460000", "145902.950000", "145904.440000", "145905.930000", "145907.420000", "145908.910000", "145910.400000", "145911.890000", "145913.380000", "145914.870000", "145916.360000", "145917.850000", "145919.340000", "145920.830000", "145922.320000", "145923.810000", "145925.300000", "145926.790000", "145928.280000", "145929.770000", "145931.260000", "145932.750000", "145934.240000", "145935.730000", "145937.220000", "145938.710000", "145940.200000", "145941.690000", "145943.180000", "145944.670000", "145946.160000", "145947.650000", "145949.140000", "145950.630000", "145952.120000", "145953.610000", "145955.100000", "145956.590000", "145958.080000", "145959.570000", "150001.060000", "150002.550000", "150004.040000", "150005.530000", "150007.020000", "150008.510000", "150010.000000", "150011.490000", "150012.980000", "150014.470000", "150015.960000", "150017.450000", "150018.940000", "150020.430000", "150021.920000", "150023.410000", "150024.900000", "150026.390000", "150027.880000", "150029.370000", "150030.860000", "150032.350000", "150033.840000", "150035.330000", "150036.820000", "150038.310000", "150039.800000", "150041.290000", "150042.780000", "150044.270000", "150045.760000", "150047.250000", "150048.740000", "150050.230000", "150051.720000", "150053.210000", "150054.700000", "150056.190000", "150057.680000", "150059.170000", "150100.660000", "150102.150000", "150103.640000", "150105.130000", "150106.620000", "150108.110000", "150109.600000", "150111.090000", "150112.580000", "150114.070000", "150115.560000", "150117.050000", "150118.540000", "150120.030000", "150121.520000", "150123.010000", "150124.500000", "150125.990000", "150127.480000", "150128.970000", "150130.460000", "150131.950000", "150133.440000", "150134.930000", "150136.420000", "150137.910000", "150139.400000", "150140.890000", "150142.380000", "150143.870000", "150145.360000", "150146.850000", "150148.340000", "150149.830000", "150151.320000", "150152.810000", "150154.300000", "150155.790000", "150157.280000", "150158.770000", "150200.260000", "150201.750000", "150203.240000", "150204.730000", "150206.220000", "150207.710000", "150209.200000", "150210.690000", "150212.180000", "150213.670000", "150215.160000", "150216.650000", "150218.140000", "150219.630000", "150221.120000", "150222.610000", "150224.100000", "150225.590000", "150227.080000", "150228.570000", "150230.060000", "150231.550000", "150233.040000", "150234.530000", "150236.020000", "150237.510000", "150239.000000", "150240.490000", "150241.980000", "150243.470000", "150244.960000", "150246.450000", "150247.940000", "150249.430000", "150250.920000", "150252.410000", "150253.900000", "150255.390000", "150256.880000", "150258.370000", "150259.860000", "150301.350000", "150302.840000", "150304.330000", "150305.820000", "150307.310000", "150308.800000", "150310.290000", "150311.780000", "150313.270000", "150314.760000", "150316.250000", "150317.740000", "150319.230000", "150320.720000", "150322.210000", "150323.700000", "150325.190000", "150326.680000", "150328.170000", "150329.660000", "150331.150000", "150332.640000", "150334.130000", "150335.620000", "150337.110000", "150338.600000", "150340.090000", "150341.580000", "150343.070000", "150344.560000", "150346.050000", "150347.540000", "150349.030000", "150350.520000", "150352.010000", "150353.500000", "150354.990000", "150356.480000", "150357.970000", "150359.460000", "150400.950000", "150402.440000", "150403.930000", "150405.420000", "150406.910000", "150408.400000", "150409.890000", "150411.380000", "150412.870000", "150414.360000", "150415.850000", "150417.340000", "150418.830000", "150420.320000", "150421.810000", "150423.300000", "150424.790000", "150426.280000", "150427.770000", "150429.260000", "150430.750000", "150432.240000", "150433.730000", "150435.220000", "150436.710000", "150438.200000", "150439.690000", "150441.180000", "150442.670000", "150444.160000", "150445.650000", "150447.140000", "150448.630000", "150450.120000", "150451.610000", "150453.100000", "150454.590000", "150456.080000", "150457.570000", "150459.060000", "150500.550000", "150502.040000", "150503.530000", "150505.020000", "150506.510000", "150508.000000", "150509.490000", "150510.980000", "150512.470000", "150513.960000", "150515.450000", "150516.940000", "150518.430000", "150519.920000", "150521.410000", "150522.900000", "150524.390000", "150525.880000", "150527.370000", "150528.860000", "150530.350000", "150531.840000", "150533.330000", "150534.820000", "150536.310000", "150537.800000", "150539.290000", "150540.780000", "150542.270000", "150543.760000", "150545.250000", "150546.740000", "150548.230000", "150549.720000", "150551.210000", "150552.700000", "150554.190000", "150555.680000", "150557.170000", "150558.660000", "150600.150000", "150601.640000", "150603.130000", "150604.620000", "150606.110000", "150607.600000", "150609.090000", "150610.580000", "150612.070000", "150613.560000", "150615.050000", "150616.540000", "150618.030000", "150619.520000", "150621.010000", "150622.500000", "150623.990000", "150625.480000", "150626.970000", "150628.460000", "150629.950000", "150631.440000", "150632.930000", "150634.420000", "150635.910000", "150637.400000", "150638.890000", "150640.380000", "150641.870000", "150643.360000", "150644.850000", "150646.340000", "150647.830000", "150649.320000", "150650.810000", "150652.300000", "150653.790000", "150655.280000", "150656.770000", "150658.260000", "150659.750000", "150701.240000", "150702.730000", "150704.220000", "150705.710000", "150707.200000", "150708.690000", "150710.180000", "150711.670000", "150713.160000", "150714.650000", "150716.140000", "150717.630000", "150719.120000", "150720.610000", "150722.100000", "150723.590000", "150725.080000", "150726.570000", "150728.060000", "150729.550000", "150731.040000", "150732.530000", "150734.020000", "150735.510000", "150737.000000", "150738.490000", "150739.980000", "150741.470000", "150742.960000", "150744.450000", "150745.940000", "150747.430000", "150748.920000", "150750.410000", "150751.900000", "150753.390000", "150754.880000", "150756.370000", "150757.860000", "150759.350000", "150800.840000", "150802.330000", "150803.820000", "150805.310000", "150806.800000", "150808.290000", "150809.780000", "150811.270000", "150812.760000", "150814.250000", "150815.740000", "150817.230000", "150818.720000", "150820.210000", "150821.700000", "150823.190000", "150824.680000", "150826.170000", "150827.660000", "150829.150000", "150830.640000", "150832.130000", "150833.620000", "150835.110000", "150836.600000", "150838.090000", "150839.580000", "150841.070000", "150842.560000", "150844.050000", "150845.540000", "150847.030000", "150848.520000", "150850.010000", "150851.500000", "150852.990000", "150854.480000", "150855.970000", "150857.460000", "150858.950000", "150900.440000"],
      "ContentTime": ["145842.455000", "145842.458000", "145842.461000", "145842.464000", "145842.467000", "145842.470000", "145842.473000", "145842.476000", "145842.483000", "145842.485000", "145842.488000", "145842.491000", "145842.494000", "145842.497000", "145842.500000", "145842.503000", "145842.506000", "145842.509000", "145842.511000", "145842.514000", "145842.517000", "145842.520000", "145842.523000", "145842.526000", "145842.529000", "145842.532000", "145842.535000", "145842.538000", "145842.540000", "145842.543000", "145842.546000", "145842.549000", "145842.552000", "145842.555000", "145902.419000", "145902.422000", "145902.425000", "145902.428000", "145902.431000", "145902.434000", "145902.437000", "145902.439000", "145902.442000", "145902.445000", "145902.448000", "145902.451000", "145902.454000", "145902.457000", "145902.459000", "145902.462000", "145902.465000", "145902.468000", "145902.471000", "145902.474000", "145922.419000", "145922.422000", "145922.425000", "145922.428000", "145922.431000", "145922.434000", "145922.437000", "145922.440000", "145922.443000", "145922.446000", "145922.449000", "145922.452000", "145922.455000", "145922.458000", "145922.461000", "145922.463000", "145922.466000", "145922.469000", "145922.472000", "145922.475000", "145942.419000", "145942.422000", "145942.425000", "145942.428000", "145942.431000", "145942.433000", "145942.436000", "145942.439000", "145942.442000", "145942.445000", "145942.451000", "145942.454000", "145942.457000", "145942.460000", "145942.463000", "145942.466000", "145942.469000", "145942.471000", "145942.474000", "145942.477000", "145942.480000", "150022.420000", "150022.423000", "150022.426000", "150022.439000", "150022.442000", "150022.445000", "150022.448000", "150022.451000", "150022.453000", "150022.456000", "150022.459000", "150022.462000", "150022.465000", "150022.468000", "150022.471000", "150022.473000", "150022.476000", "150022.479000", "150022.482000", "150022.485000", "150022.488000", "150022.491000", "150022.494000", "150022.496000", "150022.499000", "150022.502000", "150022.505000", "150022.508000", "150022.511000", "150102.420000", "150102.423000", "150102.426000", "150102.429000", "150102.432000", "150102.441000", "150102.444000", "150102.447000", "150102.450000", "150102.453000", "150102.456000", "150102.459000", "150102.461000", "150102.464000", "150102.467000", "150102.470000", "150102.473000", "150102.476000", "150102.479000", "150102.482000", "150102.485000", "150102.488000", "150102.490000", "150102.493000", "150102.496000", "150102.499000", "150102.502000", "150142.419000", "150142.422000", "150142.425000", "150142.428000", "150142.431000", "150142.434000", "150142.437000", "150142.439000", "150142.442000", "150142.445000", "150142.448000", "150142.451000", "150142.454000", "150142.457000", "150142.460000", "150142.462000", "150142.465000", "150142.468000", "150142.471000", "150142.474000", "150142.477000", "150142.480000", "150142.483000", "150142.486000", "150142.489000", "150142.491000", "150142.494000", "150222.420000", "150222.423000", "150222.426000", "150222.429000", "150222.432000", "150222.435000", "150222.438000", "150222.440000", "150222.443000", "150222.446000", "150222.449000", "150222.452000", "150222.455000", "150222.458000", "150222.461000", "150222.463000", "150222.466000", "150222.469000", "150222.472000", "150222.475000", "150222.478000", "150222.481000", "150222.484000", "150222.487000", "150222.489000", "150222.492000", "150222.495000", "150302.420000", "150302.423000", "150302.426000", "150302.429000", "150302.432000", "150302.435000", "150302.438000", "150302.441000", "150302.444000", "150302.446000", "150302.449000", "150302.452000", "150302.455000", "150302.458000", "150302.461000", "150302.464000", "150302.467000", "150302.470000", "150302.473000", "150302.476000", "150302.478000", "150302.481000", "150302.484000", "150302.487000", "150302.490000", "150302.493000", "150302.496000", "150342.419000", "150342.422000", "150342.425000", "150342.428000", "150342.431000", "150342.434000", "150342.437000", "150342.440000", "150342.442000", "150342.445000", "150342.449000", "150342.452000", "150342.455000", "150342.458000", "150342.461000", "150342.464000", "150342.467000", "150342.470000", "150342.473000", "150342.476000", "150342.479000", "150342.482000", "150342.484000", "150342.487000", "150342.490000", "150342.493000", "150422.419000", "150422.422000", "150422.425000", "150422.428000", "150422.431000", "150422.434000", "150422.437000", "150422.440000", "150422.443000", "150422.446000", "150422.448000", "150422.451000", "150422.454000", "150422.457000", "150422.460000", "150422.463000", "150422.466000", "150422.469000", "150422.472000", "150422.475000", "150422.477000", "150422.480000", "150422.483000", "150422.486000", "150422.489000", "150422.492000", "150422.495000", "150502.420000", "150502.423000", "150502.426000", "150502.429000", "150502.432000", "150502.435000", "150502.438000", "150502.441000", "150502.443000", "150502.446000", "150502.449000", "150502.452000", "150502.455000", "150502.458000", "150502.461000", "150502.464000", "150502.467000", "150502.470000", "150502.473000", "150502.476000", "150502.479000", "150502.482000", "150502.485000", "150502.488000", "150502.491000", "150502.494000", "150502.496000", "150542.420000", "150542.441000", "150542.444000", "150542.447000", "150542.450000", "150542.452000", "150542.455000", "150542.458000", "150542.461000", "150542.464000", "150542.467000", "150542.470000", "150542.473000", "150542.476000", "150542.479000", "150542.482000", "150542.485000", "150542.488000", "150542.491000", "150542.493000", "150542.496000", "150542.499000", "150542.502000", "150542.505000", "150542.508000", "150542.511000", "150542.514000", "150622.419000", "150622.422000", "150622.425000", "150622.428000", "150622.431000", "150622.434000", "150622.437000", "150622.440000", "150622.442000", "150622.445000", "150622.448000", "150622.451000", "150622.454000", "150622.457000", "150622.460000", "150622.463000", "150622.466000", "150622.469000", "150622.472000", "150622.474000", "150622.477000", "150622.480000", "150622.483000", "150622.486000", "150622.489000", "150622.492000", "150622.495000", "150702.420000", "150702.423000", "150702.426000", "150702.429000", "150702.432000", "150702.435000", "150702.438000", "150702.440000", "150702.443000", "150702.446000", "150702.449000", "150702.452000", "150702.455000", "150702.458000", "150702.461000", "150702.464000", "150702.467000", "150702.470000", "150702.473000", "150702.475000", "150702.478000", "150702.481000", "150702.484000", "150702.487000", "150702.490000", "150702.493000", "150702.496000", "150742.420000", "150742.423000", "150742.426000", "150742.429000", "150742.432000", "150742.435000", "150742.438000", "150742.441000", "150742.444000", "150742.447000", "150742.449000", "150742.452000", "150742.455000", "150742.458000", "150742.461000", "150742.464000", "150742.467000", "150742.470000", "150742.473000", "150742.476000", "150742.479000", "150742.482000", "150742.485000", "150742.488000", "150742.491000", "150742.493000", "150822.419000", "150822.422000", "150822.425000", "150822.428000", "150822.431000", "150822.434000", "150822.437000", "150822.440000", "150822.442000", "150822.445000", "150822.448000", "150822.451000", "150822.454000", "150822.457000", "150822.460000", "150822.463000", "150822.466000", "150822.469000", "150822.472000", "150822.474000", "150822.477000", "150822.480000", "150822.483000", "150822.486000", "150822.489000", "150822.492000", "150822.495000", "150902.419000", "150902.422000", "150902.425000", "150902.428000", "150902.432000", "150902.435000", "150902.438000", "150902.441000", "150902.443000", "150902.446000", "150902.449000", "150902.452000", "150902.455000", "150902.458000", "150902.461000", "150902.464000", "150902.467000", "150902.470000", "150902.472000", "150902.475000", "150902.478000", "150902.481000", "150902.484000", "150902.487000", "150902.490000", "150902.493000", "150902.496000", "150902.970000"],
