{
  "AcquisitionMatrixPE": 104,
  "AcquisitionNumber": 1,
  "AcquisitionTime": "17:24:4.740000",
  "BandwidthPerPixelPhaseEncode": 17.17,
  "BaseResolution": 104,
  "BodyPartExamined": "BRAIN",
  "CoilString": "HC1-7;NC1_2",
  "ConsistencyInfo": "N4_VE11C_LATEST_20160120",
  "ConversionSoftware": "dcm2niix",
  "ConversionSoftwareVersion": "v1.0.20190902",
  "DerivedVendorReportedEchoSpacing": 0.000560011,
  "DeviceSerialNumber": "167006",
  "DwellTime": 2.1e-06,
  "EchoTime": 0.037,
  "EchoTrainLength": 104,
  "EffectiveEchoSpacing": 0.000560011,
  "FlipAngle": 52,
  "ImageComments": "Unaliased_MB4_PE3_LB",
  "ImageOrientationPatientDICOM": [0.999344, -0.0359525, -0.00444293, 0.0315802, 0.924694, -0.379398],
  "ImageType": [
    "ORIGINAL",
    "PRIMARY",
    "M",
    "MB",
    "ND",
    "MOSAIC"
],
  "ImagingFrequency": 123.259,
  "InPlanePhaseEncodingDirectionDICOM": "COL",
  "InstitutionAddress": "Chemin_Queen-Mary_4565_Montreal_District_CA_H3W_1W5",
  "InstitutionName": "IUGM",
  "InstitutionalDepartmentName": "Department",
  "MRAcquisitionType": "2D",
  "MagneticFieldStrength": 3,
  "Manufacturer": "Siemens",
  "ManufacturersModelName": "Prisma_fit",
  "Modality": "MR",
  "MultibandAccelerationFactor": 4,
  "PartialFourier": 1,
  "PatientPosition": "HFS",
  "PercentPhaseFOV": 100,
  "PhaseEncodingDirection": "j",
  "PhaseEncodingSteps": 104,
  "PhaseResolution": 1,
  "PixelBandwidth": 2290,
  "ProcedureStepDescription": "video_friends",
  "ProtocolName": "func_task-friends-s03e24b",
  "PulseSequenceDetails": "%CustomerSeq%_cmrr_mbep2d_bold",
  "ReceiveCoilActiveElements": "HC1-7;NC1,2",
  "ReceiveCoilName": "HeadNeck_64",
  "ReconMatrixPE": 104,
  "RepetitionTime": 1.49,
  "SAR": 0.0438723,
  "ScanOptions": "FS",
  "ScanningSequence": "EP",
  "SequenceName": "epfid2d1_104",
  "SequenceVariant": "SK_SS",
  "SeriesDescription": "func_task-friends-s03e24b",
  "SeriesNumber": 11,
  "ShimSetting": [617, -7303, -8824, 414, 31, -473, 70, 34],
  "SliceThickness": 2,
  "SliceTiming": [0, 0.785, 0.0975, 0.8825, 0.1975, 0.98, 0.295, 1.0775, 0.3925, 1.1775, 0.49, 1.275, 0.5875, 1.3725, 0.6875, 0, 0.785, 0.0975, 0.8825, 0.1975, 0.98, 0.295, 1.0775, 0.3925, 1.1775, 0.49, 1.275, 0.5875, 1.3725, 0.6875, 0, 0.785, 0.0975, 0.8825, 0.1975, 0.98, 0.295, 1.0775, 0.3925, 1.1775, 0.49, 1.275, 0.5875, 1.3725, 0.6875, 0, 0.785, 0.0975, 0.8825, 0.1975, 0.98, 0.295, 1.0775, 0.3925, 1.1775, 0.49, 1.275, 0.5875, 1.3725, 0.6875],
  "SoftwareVersions": "syngo_MR_E11",
  "SpacingBetweenSlices": 2,
  "StationName": "MRC35049",
  "TaskName": "s03e24b",
  "TotalReadoutTime": 0.0576811,
  "TxRefAmp": 255.194,
  "WipMemBlock": "b31cdf69-8c67-4a06-87e9-165610a1d516||Sequence: R016 ve11c/master r/e634e98; Dec 19 2017 11:00:25 by eja",
  "dcmmeta_affine": [
    [-1.9986872673034668, 0.06316038221120834, -0.03549733757972717, 97.86138153076172],
    [0.07190505415201187, 1.849388837814331, -0.7580174207687378, -72.32068634033203],
    [-0.008885856717824936, 0.7587960958480835, 1.8504457473754883, -57.80222702026367],
    [0.0, 0.0, 0.0, 1.0]
],
  "dcmmeta_reorient_transform": [
    [0.0, -1.0, 0.0, 103.0],
    [1.0, 0.0, 0.0, 0.0],
    [0.0, 0.0, 1.0, 0.0],
    [0.0, 0.0, 0.0, 1.0]
],
  "dcmmeta_shape": [104, 104, 60, 454],
  "dcmmeta_slice_dim": 2,
  "dcmmeta_version": 0.6,
  "global": {
    "const": {
      "AcquisitionMatrix": [104, 0, 0, 104],
      "AngioFlag": "N",
      "BitsAllocated": 16,
      "BitsStored": 16,
      "BodyPartExamined": "BRAIN",
      "Columns": 832,
      "EchoNumbers": 1,
      "EchoTime": 37.0,
      "EchoTrainLength": 104,
      "FlipAngle": 52.0,
      "HighBit": 15,
      "ImageOrientationPatient": [0.99934362273879, -0.0359525253367, -0.0044429284505, 0.03158019069773, 0.92469444659903, -0.3793980389834],
      "ImagePositionPatient": [-854.87943851809, -765.17048781029, 299.78999200332],
      "ImageType": [
        "ORIGINAL",
        "PRIMARY",
        "M",
        "MB",
        "ND",
        "MOSAIC"
],
      "ImagedNucleus": "1H",
      "ImagingFrequency": 123.258933,
      "InPlanePhaseEncodingDirection": "COL",
      "MRAcquisitionType": "2D",
      "MagneticFieldStrength": 3.0,
      "Manufacturer": "SIEMENS",
      "ManufacturerModelName": "Prisma_fit",
      "Modality": "MR",
      "NumberOfAverages": 1.0,
      "NumberOfPhaseEncodingSteps": 104,
      "PercentPhaseFieldOfView": 100.0,
      "PercentSampling": 100.0,
      "PerformedProcedureStepStartTime": "170630.788000",
      "PhotometricInterpretation": "MONOCHROME2",
      "PixelBandwidth": 2290.0,
      "PixelRepresentation": 0,
      "PixelSpacing": [2.0, 2.0],
      "ProtocolName": "func_task-friends-s03e24b",
      "RepetitionTime": 1490.0,
      "Rows": 832,
      "SAR": 0.04387228735142,
      "SamplesPerPixel": 1,
      "ScanOptions": "FS",
      "ScanningSequence": "EP",
      "SequenceName": "epfid2d1_104",
      "SequenceVariant": [
        "SK",
        "SS"
],
      "SeriesDescription": "func_task-friends-s03e24b",
      "SeriesNumber": 11,
      "SeriesTime": "172538.548000",
      "SliceLocation": -27.806684101424,
      "SliceThickness": 2.0,
      "SmallestImagePixelValue": 0,
      "SoftwareVersions": "syngo MR E11",
      "SpacingBetweenSlices": 2.0000000369374,
      "SpecificCharacterSet": "ISO_IR 100",
      "StudyID": "1",
      "StudyTime": "170630.731000",
      "TransmitCoilName": "Body",
      "VariableFlipAngleFlag": "N",
      "WindowCenterWidthExplanation": "Algo1",
      "dBdt": 0.0},
    "slices": {}
  },
  "time": {
    "samples": {
      "AcquisitionNumber": [1, 2, 3, 4, 5, 6, 7, 8, 9, 10, 11, 12, 13, 14, 15, 16, 17, 18, 19, 20, 21, 22, 23, 24, 25, 26, 27, 28, 29, 30, 31, 32, 33, 34, 35, 36, 37, 38, 39, 40, 41, 42, 43, 44, 45, 46, 47, 48, 49, 50, 51, 52, 53, 54, 55, 56, 57, 58, 59, 60, 61, 62, 63, 64, 65, 66, 67, 68, 69, 70, 71, 72, 73, 74, 75, 76, 77, 78, 79, 80, 81, 82, 83, 84, 85, 86, 87, 88, 89, 90, 91, 92, 93, 94, 95, 96, 97, 98, 99, 100, 101, 102, 103, 104, 105, 106, 107, 108, 109, 110, 111, 112, 113, 114, 115, 116, 117, 118, 119, 120, 121, 122, 123, 124, 125, 126, 127, 128, 129, 130, 131, 132, 133, 134, 135, 136, 137, 138, 139, 140, 141, 142, 143, 144, 145, 146, 147, 148, 149, 150, 151, 152, 153, 154, 155, 156, 157, 158, 159, 160, 161, 162, 163, 164, 165, 166, 167, 168, 169, 170, 171, 172, 173, 174, 175, 176, 177, 178, 179, 180, 181, 182, 183, 184, 185, 186, 187, 188, 189, 190, 191, 192, 193, 194, 195, 196, 197, 198, 199, 200, 201, 202, 203, 204, 205, 206, 207, 208, 209, 210, 211, 212, 213, 214, 215, 216, 217, 218, 219, 220, 221, 222, 223, 224, 225, 226, 227, 228, 229, 230, 231, 232, 233, 234, 235, 236, 237, 238, 239, 240, 241, 242, 243, 244, 245, 246, 247, 248, 249, 250, 251, 252, 253, 254, 255, 256, 257, 258, 259, 260, 261, 262, 263, 264, 265, 266, 267, 268, 269, 270, 271, 272, 273, 274, 275, 276, 277, 278, 279, 280, 281, 282, 283, 284, 285, 286, 287, 288, 289, 290, 291, 292, 293, 294, 295, 296, 297, 298, 299, 300, 301, 302, 303, 304, 305, 306, 307, 308, 309, 310, 311, 312, 313, 314, 315, 316, 317, 318, 319, 320, 321, 322, 323, 324, 325, 326, 327, 328, 329, 330, 331, 332, 333, 334, 335, 336, 337, 338, 339, 340, 341, 342, 343, 344, 345, 346, 347, 348, 349, 350, 351, 352, 353, 354, 355, 356, 357, 358, 359, 360, 361, 362, 363, 364, 365, 366, 367, 368, 369, 370, 371, 372, 373, 374, 375, 376, 377, 378, 379, 380, 381, 382, 383, 384, 385, 386, 387, 388, 389, 390, 391, 392, 393, 394, 395, 396, 397, 398, 399, 400, 401, 402, 403, 404, 405, 406, 407, 408, 409, 410, 411, 412, 413, 414, 415, 416, 417, 418, 419, 420, 421, 422, 423, 424, 425, 426, 427, 428, 429, 430, 431, 432, 433, 434, 435, 436, 437, 438, 439, 440, 441, 442, 443, 444, 445, 446, 447, 448, 449, 450, 451, 452, 453, 454],
      "AcquisitionTime": ["172404.740000", "172406.230000", "172407.720000", "172409.210000", "172410.700000", "172412.190000", "172413.680000", "172415.170000", "172416.660000", "172418.150000", "172419.640000", "172421.130000", "172422.620000", "172424.110000", "172425.600000", "172427.090000", "172428.580000", "172430.070000", "172431.560000", "172433.050000", "172434.540000", "172436.030000", "172437.520000", "172439.010000", "172440.500000", "172441.990000", "172443.480000", "172444.970000", "172446.460000", "172447.950000", "172449.440000", "172450.930000", "172452.420000", "172453.910000", "172455.400000", "172456.890000", "172458.380000", "172459.870000", "172501.360000", "172502.850000", "172504.340000", "172505.830000", "172507.320000", "172508.810000", "172510.300000", "172511.790000", "172513.280000", "172514.770000", "172516.260000", "172517.750000", "172519.240000", "172520.730000", "172522.220000", "172523.710000", "172525.200000", "172526.690000", "172528.180000", "172529.670000", "172531.160000", "172532.650000", "172534.140000", "172535.630000", "172537.120000", "172538.610000", "172540.100000", "172541.590000", "172543.080000", "172544.570000", "172546.060000", "172547.550000", "172549.040000", "172550.530000", "172552.020000", "172553.510000", "172555.000000", "172556.490000", "172557.980000", "172559.470000", "172600.960000", "172602.450000", "172603.940000", "172605.430000", "172606.920000", "172608.410000", "172609.900000", "172611.390000", "172612.880000", "172614.370000", "172615.860000", "172617.350000", "172618.840000", "172620.330000", "172621.820000", "172623.310000", "172624.800000", "172626.290000", "172627.780000", "172629.270000", "172630.760000", "172632.250000", "172633.740000", "172635.230000", "172636.720000", "172638.210000", "172639.700000", "172641.190000", "172642.680000", "172644.170000", "172645.660000", "172647.150000", "172648.640000", "172650.130000", "172651.620000", "172653.110000", "172654.600000", "172656.090000", "172657.580000", "172659.070000", "172700.560000", "172702.050000", "172703.540000", "172705.030000", "172706.520000", "172708.010000", "172709.500000", "172710.990000", "172712.480000", "172713.970000", "172715.460000", "172716.950000", "172718.440000", "172719.930000", "172721.420000", "172722.910000", "172724.400000", "172725.890000", "172727.380000", "172728.870000", "172730.360000", "172731.850000", "172733.340000", "172734.830000", "172736.320000", "172737.810000", "172739.300000", "172740.790000", "172742.280000", "172743.770000", "172745.260000", "172746.750000", "172748.240000", "172749.730000", "172751.220000", "172752.710000", "172754.200000", "172755.690000", "172757.180000", "172758.670000", "172800.160000", "172801.650000", "172803.140000", "172804.630000", "172806.120000", "172807.610000", "172809.100000", "172810.590000", "172812.080000", "172813.570000", "172815.060000", "172816.550000", "172818.040000", "172819.530000", "172821.020000", "172822.510000", "172824.000000", "172825.490000", "172826.980000", "172828.470000", "172829.960000", "172831.450000", "172832.940000", "172834.430000", "172835.920000", "172837.410000", "172838.900000", "172840.390000", "172841.880000", "172843.370000", "172844.860000", "172846.350000", "172847.840000", "172849.330000", "172850.820000", "172852.310000", "172853.800000", "172855.290000", "172856.780000", "172858.270000", "172859.760000", "172901.250000", "172902.740000", "172904.230000", "172905.720000", "172907.210000", "172908.700000", "172910.190000", "172911.680000", "172913.170000", "172914.660000", "172916.150000", "172917.640000", "172919.130000", "172920.620000", "172922.110000", "172923.600000", "172925.090000", "172926.580000", "172928.070000", "172929.560000", "172931.050000", "172932.540000", "172934.030000", "172935.520000", "172937.010000", "172938.500000", "172939.990000", "172941.480000", "172942.970000", "172944.460000", "172945.950000", "172947.440000", "172948.930000", "172950.420000", "172951.910000", "172953.400000", "172954.890000", "172956.380000", "172957.870000", "172959.360000", "173000.850000", "173002.340000", "173003.830000", "173005.320000", "173006.810000", "173008.300000", "173009.790000", "173011.280000", "173012.770000", "173014.260000", "173015.750000", "173017.240000", "173018.730000", "173020.220000", "173021.710000", "173023.200000", "173024.690000", "173026.180000", "173027.670000", "173029.160000", "173030.650000", "173032.140000", "173033.630000", "173035.120000", "173036.610000", "173038.100000", "173039.590000", "173041.080000", "173042.570000", "173044.060000", "173045.550000", "173047.040000", "173048.530000", "173050.020000", "173051.510000", "173053.000000", "173054.490000", "173055.980000", "173057.470000", "173058.960000", "173100.450000", "173101.940000", "173103.430000", "173104.920000", "173106.410000", "173107.900000", "173109.390000", "173110.880000", "173112.370000", "173113.860000", "173115.350000", "173116.840000", "173118.330000", "173119.820000", "173121.310000", "173122.800000", "173124.290000", "173125.780000", "173127.270000", "173128.760000", "173130.250000", "173131.740000", "173133.230000", "173134.720000", "173136.210000", "173137.700000", "173139.190000", "173140.680000", "173142.170000", "173143.660000", "173145.150000", "173146.640000", "173148.130000", "173149.620000", "173151.110000", "173152.600000", "173154.090000", "173155.580000", "173157.070000", "173158.560000", "173200.050000", "173201.540000", "173203.030000", "173204.520000", "173206.010000", "173207.500000", "173208.990000", "173210.480000", "173211.970000", "173213.460000", "173214.950000", "173216.440000", "173217.930000", "173219.420000", "173220.910000", "173222.400000", "173223.890000", "173225.380000", "173226.870000", "173228.360000", "173229.850000", "173231.340000", "173232.830000", "173234.320000", "173235.810000", "173237.300000", "173238.790000", "173240.280000", "173241.770000", "173243.260000", "173244.750000", "173246.240000", "173247.730000", "173249.220000", "173250.710000", "173252.200000", "173253.690000", "173255.180000", "173256.670000", "173258.160000", "173259.650000", "173301.140000", "173302.630000", "173304.120000", "173305.610000", "173307.100000", "173308.590000", "173310.080000", "173311.570000", "173313.060000", "173314.550000", "173316.040000", "173317.530000", "173319.020000", "173320.510000", "173322.000000", "173323.490000", "173324.980000", "173326.470000", "173327.960000", "173329.450000", "173330.940000", "173332.430000", "173333.920000", "173335.410000", "173336.900000", "173338.390000", "173339.880000", "173341.370000", "173342.860000", "173344.350000", "173345.840000", "173347.330000", "173348.820000", "173350.310000", "173351.800000", "173353.290000", "173354.780000", "173356.270000", "173357.760000", "173359.250000", "173400.740000", "173402.230000", "173403.720000", "173405.210000", "173406.700000", "173408.190000", "173409.680000", "173411.170000", "173412.660000", "173414.150000", "173415.640000", "173417.130000", "173418.620000", "173420.110000", "173421.600000", "173423.090000", "173424.580000", "173426.070000", "173427.560000", "173429.050000", "173430.540000", "173432.030000", "173433.520000", "173435.010000", "173436.500000", "173437.990000", "173439.480000", "173440.970000", "173442.460000", "173443.950000", "173445.440000", "173446.930000", "173448.420000", "173449.910000", "173451.400000", "173452.890000", "173454.380000", "173455.870000", "173457.360000", "173458.850000", "173500.340000", "173501.830000", "173503.320000", "173504.810000", "173506.300000", "173507.790000", "173509.280000", "173510.770000", "173512.260000", "173513.750000", "173515.240000", "173516.730000", "173518.220000", "173519.710000"],
      "ContentTime": ["172538.551000", "172538.554000", "172538.557000", "172538.560000", "172538.563000", "172538.566000", "172538.569000", "172538.572000", "172538.575000", "172538.578000", "172538.581000", "172538.583000", "172538.586000", "172538.589000", "172538.592000", "172538.595000", "172538.598000", "172538.601000", "172538.613000", "172538.616000", "172538.619000", "172538.621000", "172538.624000", "172538.627000", "172538.630000", "172538.633000", "172538.636000", "172538.639000", "172538.642000", "172538.645000", "172538.648000", "172538.650000", "172538.653000", "172538.656000", "172538.659000", "172538.662000", "172538.665000", "172538.668000", "172538.671000", "172558.517000", "172558.520000", "172558.523000", "172558.526000", "172558.529000", "172558.532000", "172558.534000", "172558.537000", "172558.540000", "172558.547000", "172558.550000", "172558.553000", "172558.556000", "172558.567000", "172558.569000", "172558.572000", "172558.575000", "172558.578000", "172558.581000", "172558.584000", "172618.517000", "172618.520000", "172618.523000", "172618.526000", "172618.529000", "172618.532000", "172618.535000", "172618.538000", "172618.540000", "172618.543000", "172618.546000", "172618.549000", "172618.552000", "172618.555000", "172618.558000", "172618.560000", "172618.563000", "172618.566000", "172618.569000", "172618.572000", "172638.516000", "172638.519000", "172638.522000", "172638.525000", "172638.528000", "172638.531000", "172638.533000", "172638.536000", "172638.539000", "172638.542000", "172638.545000", "172638.548000", "172638.551000", "172638.554000", "172638.556000", "172638.559000", "172638.562000", "172638.565000", "172638.568000", "172638.571000", "172718.517000", "172718.520000", "172718.523000", "172718.526000", "172718.529000", "172718.532000", "172718.534000", "172718.537000", "172718.540000", "172718.543000", "172718.546000", "172718.549000", "172718.552000", "172718.555000", "172718.557000", "172718.560000", "172718.563000", "172718.566000", "172718.569000", "172718.572000", "172718.575000", "172718.578000", "172718.581000", "172718.584000", "172718.587000", "172718.589000", "172718.592000", "172718.595000", "172718.598000", "172718.601000", "172758.517000", "172758.520000", "172758.523000", "172758.526000", "172758.529000", "172758.532000", "172758.534000", "172758.537000", "172758.540000", "172758.543000", "172758.546000", "172758.549000", "172758.552000", "172758.555000", "172758.557000", "172758.560000", "172758.563000", "172758.566000", "172758.569000", "172758.572000", "172758.575000", "172758.578000", "172758.581000", "172758.584000", "172758.586000", "172758.589000", "172758.592000", "172838.517000", "172838.520000", "172838.523000", "172838.526000", "172838.529000", "172838.531000", "172838.534000", "172838.537000", "172838.540000", "172838.543000", "172838.546000", "172838.549000", "172838.552000", "172838.555000", "172838.557000", "172838.560000", "172838.563000", "172838.566000", "172838.569000", "172838.572000", "172838.575000", "172838.578000", "172838.581000", "172838.584000", "172838.586000", "172838.589000", "172838.592000", "172918.516000", "172918.519000", "172918.522000", "172918.525000", "172918.528000", "172918.531000", "172918.534000", "172918.536000", "172918.539000", "172918.542000", "172918.545000", "172918.548000", "172918.551000", "172918.554000", "172918.556000", "172918.559000", "172918.562000", "172918.565000", "172918.570000", "172918.573000", "172918.576000", "172918.579000", "172918.582000", "172918.584000", "172918.587000", "172918.590000", "172958.517000", "172958.520000", "172958.523000", "172958.526000", "172958.529000", "172958.532000", "172958.534000", "172958.537000", "172958.540000", "172958.543000", "172958.546000", "172958.549000", "172958.552000", "172958.555000", "172958.558000", "172958.560000", "172958.563000", "172958.566000", "172958.569000", "172958.572000", "172958.575000", "172958.578000", "172958.581000", "172958.584000", "172958.587000", "172958.590000", "172958.592000", "173038.517000", "173038.520000", "173038.523000", "173038.526000", "173038.529000", "173038.532000", "173038.535000", "173038.550000", "173038.553000", "173038.556000", "173038.558000", "173038.561000", "173038.564000", "173038.567000", "173038.570000", "173038.573000", "173038.576000", "173038.579000", "173038.594000", "173038.598000", "173038.600000", "173038.603000", "173038.606000", "173038.609000", "173038.612000", "173038.615000", "173038.618000", "173118.516000", "173118.519000", "173118.522000", "173118.525000", "173118.528000", "173118.531000", "173118.533000", "173118.536000", "173118.539000", "173118.542000", "173118.545000", "173118.548000", "173118.551000", "173118.554000", "173118.556000", "173118.559000", "173118.562000", "173118.565000", "173118.568000", "173118.571000", "173118.574000", "173118.577000", "173118.580000", "173118.583000", "173118.586000", "173118.589000", "173118.591000", "173158.517000", "173158.520000", "173158.523000", "173158.526000", "173158.529000", "173158.532000", "173158.535000", "173158.538000", "173158.540000", "173158.543000", "173158.546000", "173158.549000", "173158.552000", "173158.555000", "173158.558000", "173158.560000", "173158.563000", "173158.566000", "173158.569000", "173158.572000", "173158.575000", "173158.578000", "173158.581000", "173158.584000", "173158.586000", "173158.589000", "173158.592000", "173238.517000", "173238.520000", "173238.523000", "173238.526000", "173238.529000", "173238.532000", "173238.535000", "173238.538000", "173238.540000", "173238.543000", "173238.546000", "173238.549000", "173238.552000", "173238.555000", "173238.558000", "173238.561000", "173238.563000", "173238.566000", "173238.569000", "173238.572000", "173238.575000", "173238.578000", "173238.581000", "173238.584000", "173238.587000", "173238.590000", "173238.593000", "173318.517000", "173318.520000", "173318.523000", "173318.526000", "173318.529000", "173318.532000", "173318.535000", "173318.537000", "173318.540000", "173318.543000", "173318.546000", "173318.549000", "173318.552000", "173318.555000", "173318.558000", "173318.561000", "173318.563000", "173318.566000", "173318.569000", "173318.572000", "173318.575000", "173318.579000", "173318.583000", "173318.588000", "173318.591000", "173318.594000", "173358.516000", "173358.519000", "173358.522000", "173358.525000", "173358.528000", "173358.531000", "173358.534000", "173358.537000", "173358.539000", "173358.542000", "173358.545000", "173358.548000", "173358.551000", "173358.554000", "173358.557000", "173358.560000", "173358.563000", "173358.574000", "173358.577000", "173358.579000", "173358.582000", "173358.585000", "173358.588000", "173358.591000", "173358.594000", "173358.597000", "173358.600000", "173438.517000", "173438.520000", "173438.523000", "173438.526000", "173438.529000", "173438.532000", "173438.535000", "173438.537000", "173438.540000", "173438.543000", "173438.546000", "173438.549000", "173438.552000", "173438.555000", "173438.558000", "173438.561000", "173438.564000", "173438.567000", "173438.570000", "173438.573000", "173438.575000", "173438.578000", "173438.581000", "173438.584000", "173438.587000", "173438.590000", "173438.593000", "173518.517000", "173518.520000", "173518.523000", "173518.526000", "173518.529000", "173518.532000", "173518.535000", "173518.537000", "173518.540000", "173518.543000", "173518.546000", "173518.549000", "173518.552000", "173518.555000", "173518.558000", "173518.561000", "173518.564000", "173518.566000", "173518.588000", "173518.591000", "173518.594000", "173518.597000", "173518.600000", "173518.602000", "173518.605000", "173518.623000", "173518.626000", "173522.300000", "173522.303000", "173522.306000"],
