{
  "AcquisitionMatrixPE": 104,
  "AcquisitionNumber": 1,
  "AcquisitionTime": "17:12:9.292500",
  "BandwidthPerPixelPhaseEncode": 17.17,
  "BaseResolution": 104,
  "BodyPartExamined": "BRAIN",
  "CoilString": "HC1-7;NC1_2",
  "ConsistencyInfo": "N4_VE11C_LATEST_20160120",
  "ConversionSoftware": "dcm2niix",
  "ConversionSoftwareVersion": "v1.0.20190902",
  "DerivedVendorReportedEchoSpacing": 0.000560011,
  "DeviceSerialNumber": "167006",
  "DwellTime": 2.1e-06,
  "EchoTime": 0.037,
  "EchoTrainLength": 104,
  "EffectiveEchoSpacing": 0.000560011,
  "FlipAngle": 52,
  "ImageComments": "Unaliased_MB4_PE3_LB",
  "ImageOrientationPatientDICOM": [0.999344, -0.0359525, -0.00444293, 0.0315802, 0.924694, -0.379398],
  "ImageType": [
    "ORIGINAL",
    "PRIMARY",
    "M",
    "MB",
    "ND",
    "MOSAIC"
],
  "ImagingFrequency": 123.259,
  "InPlanePhaseEncodingDirectionDICOM": "COL",
  "InstitutionAddress": "Chemin_Queen-Mary_4565_Montreal_District_CA_H3W_1W5",
  "InstitutionName": "IUGM",
  "InstitutionalDepartmentName": "Department",
  "MRAcquisitionType": "2D",
  "MagneticFieldStrength": 3,
  "Manufacturer": "Siemens",
  "ManufacturersModelName": "Prisma_fit",
  "Modality": "MR",
  "MultibandAccelerationFactor": 4,
  "PartialFourier": 1,
  "PatientPosition": "HFS",
  "PercentPhaseFOV": 100,
  "PhaseEncodingDirection": "j",
  "PhaseEncodingSteps": 104,
  "PhaseResolution": 1,
  "PixelBandwidth": 2290,
  "ProcedureStepDescription": "video_friends",
  "ProtocolName": "func_task-friends-s03e24a",
  "PulseSequenceDetails": "%CustomerSeq%_cmrr_mbep2d_bold",
  "ReceiveCoilActiveElements": "HC1-7;NC1,2",
  "ReceiveCoilName": "HeadNeck_64",
  "ReconMatrixPE": 104,
  "RepetitionTime": 1.49,
  "SAR": 0.0438723,
  "ScanOptions": "FS",
  "ScanningSequence": "EP",
  "SequenceName": "epfid2d1_104",
  "SequenceVariant": "SK_SS",
  "SeriesDescription": "func_task-friends-s03e24a",
  "SeriesNumber": 9,
  "ShimSetting": [617, -7303, -8824, 414, 31, -473, 70, 34],
  "SliceThickness": 2,
  "SliceTiming": [0, 0.7825, 0.0975, 0.8825, 0.195, 0.98, 0.2925, 1.0775, 0.3925, 1.175, 0.49, 1.2725, 0.5875, 1.3725, 0.685, 0, 0.7825, 0.0975, 0.8825, 0.195, 0.98, 0.2925, 1.0775, 0.3925, 1.175, 0.49, 1.2725, 0.5875, 1.3725, 0.685, 0, 0.7825, 0.0975, 0.8825, 0.195, 0.98, 0.2925, 1.0775, 0.3925, 1.175, 0.49, 1.2725, 0.5875, 1.3725, 0.685, 0, 0.7825, 0.0975, 0.8825, 0.195, 0.98, 0.2925, 1.0775, 0.3925, 1.175, 0.49, 1.2725, 0.5875, 1.3725, 0.685],
  "SoftwareVersions": "syngo_MR_E11",
  "SpacingBetweenSlices": 2,
  "StationName": "MRC35049",
  "TaskName": "s03e24a",
  "TotalReadoutTime": 0.0576811,
  "TxRefAmp": 255.194,
  "WipMemBlock": "2683e333-fef2-4a8a-a0d9-6676b3f79d9e||Sequence: R016 ve11c/master r/e634e98; Dec 19 2017 11:00:25 by eja",
  "dcmmeta_affine": [
    [-1.9986872673034668, 0.06316038221120834, -0.03549733757972717, 97.86138153076172],
    [0.07190505415201187, 1.849388837814331, -0.7580174207687378, -72.32068634033203],
    [-0.008885856717824936, 0.7587960958480835, 1.8504457473754883, -57.80222702026367],
    [0.0, 0.0, 0.0, 1.0]
],
  "dcmmeta_reorient_transform": [
    [0.0, -1.0, 0.0, 103.0],
    [1.0, 0.0, 0.0, 0.0],
    [0.0, 0.0, 1.0, 0.0],
    [0.0, 0.0, 0.0, 1.0]
],
  "dcmmeta_shape": [104, 104, 60, 454],
  "dcmmeta_slice_dim": 2,
  "dcmmeta_version": 0.6,
  "global": {
    "const": {
      "AcquisitionMatrix": [104, 0, 0, 104],
      "AngioFlag": "N",
      "BitsAllocated": 16,
      "BitsStored": 16,
      "BodyPartExamined": "BRAIN",
      "Columns": 832,
      "EchoNumbers": 1,
      "EchoTime": 37.0,
      "EchoTrainLength": 104,
      "FlipAngle": 52.0,
      "HighBit": 15,
      "ImageOrientationPatient": [0.99934362273879, -0.0359525253367, -0.0044429284505, 0.03158019069773, 0.92469444659903, -0.3793980389834],
      "ImagePositionPatient": [-854.87943851809, -765.17048781029, 299.78999200332],
      "ImageType": [
        "ORIGINAL",
        "PRIMARY",
        "M",
        "MB",
        "ND",
        "MOSAIC"
],
      "ImagedNucleus": "1H",
      "ImagingFrequency": 123.258923,
      "InPlanePhaseEncodingDirection": "COL",
      "MRAcquisitionType": "2D",
      "MagneticFieldStrength": 3.0,
      "Manufacturer": "SIEMENS",
      "ManufacturerModelName": "Prisma_fit",
      "Modality": "MR",
      "NumberOfAverages": 1.0,
      "NumberOfPhaseEncodingSteps": 104,
      "PercentPhaseFieldOfView": 100.0,
      "PercentSampling": 100.0,
      "PerformedProcedureStepStartTime": "170630.788000",
      "PhotometricInterpretation": "MONOCHROME2",
      "PixelBandwidth": 2290.0,
      "PixelRepresentation": 0,
      "PixelSpacing": [2.0, 2.0],
      "ProtocolName": "func_task-friends-s03e24a",
      "RepetitionTime": 1490.0,
      "Rows": 832,
      "SAR": 0.04387228735142,
      "SamplesPerPixel": 1,
      "ScanOptions": "FS",
      "ScanningSequence": "EP",
      "SequenceName": "epfid2d1_104",
      "SequenceVariant": [
        "SK",
        "SS"
],
      "SeriesDescription": "func_task-friends-s03e24a",
      "SeriesNumber": 9,
      "SeriesTime": "171325.930000",
      "SliceLocation": -27.806684101424,
      "SliceThickness": 2.0,
      "SmallestImagePixelValue": 0,
      "SoftwareVersions": "syngo MR E11",
      "SpacingBetweenSlices": 2.0000000369374,
      "SpecificCharacterSet": "ISO_IR 100",
      "StudyID": "1",
      "StudyTime": "170630.731000",
      "TransmitCoilName": "Body",
      "VariableFlipAngleFlag": "N",
      "WindowCenterWidthExplanation": "Algo1",
      "dBdt": 0.0},
    "slices": {}
  },
  "time": {
    "samples": {
      "AcquisitionNumber": [1, 2, 3, 4, 5, 6, 7, 8, 9, 10, 11, 12, 13, 14, 15, 16, 17, 18, 19, 20, 21, 22, 23, 24, 25, 26, 27, 28, 29, 30, 31, 32, 33, 34, 35, 36, 37, 38, 39, 40, 41, 42, 43, 44, 45, 46, 47, 48, 49, 50, 51, 52, 53, 54, 55, 56, 57, 58, 59, 60, 61, 62, 63, 64, 65, 66, 67, 68, 69, 70, 71, 72, 73, 74, 75, 76, 77, 78, 79, 80, 81, 82, 83, 84, 85, 86, 87, 88, 89, 90, 91, 92, 93, 94, 95, 96, 97, 98, 99, 100, 101, 102, 103, 104, 105, 106, 107, 108, 109, 110, 111, 112, 113, 114, 115, 116, 117, 118, 119, 120, 121, 122, 123, 124, 125, 126, 127, 128, 129, 130, 131, 132, 133, 134, 135, 136, 137, 138, 139, 140, 141, 142, 143, 144, 145, 146, 147, 148, 149, 150, 151, 152, 153, 154, 155, 156, 157, 158, 159, 160, 161, 162, 163, 164, 165, 166, 167, 168, 169, 170, 171, 172, 173, 174, 175, 176, 177, 178, 179, 180, 181, 182, 183, 184, 185, 186, 187, 188, 189, 190, 191, 192, 193, 194, 195, 196, 197, 198, 199, 200, 201, 202, 203, 204, 205, 206, 207, 208, 209, 210, 211, 212, 213, 214, 215, 216, 217, 218, 219, 220, 221, 222, 223, 224, 225, 226, 227, 228, 229, 230, 231, 232, 233, 234, 235, 236, 237, 238, 239, 240, 241, 242, 243, 244, 245, 246, 247, 248, 249, 250, 251, 252, 253, 254, 255, 256, 257, 258, 259, 260, 261, 262, 263, 264, 265, 266, 267, 268, 269, 270, 271, 272, 273, 274, 275, 276, 277, 278, 279, 280, 281, 282, 283, 284, 285, 286, 287, 288, 289, 290, 291, 292, 293, 294, 295, 296, 297, 298, 299, 300, 301, 302, 303, 304, 305, 306, 307, 308, 309, 310, 311, 312, 313, 314, 315, 316, 317, 318, 319, 320, 321, 322, 323, 324, 325, 326, 327, 328, 329, 330, 331, 332, 333, 334, 335, 336, 337, 338, 339, 340, 341, 342, 343, 344, 345, 346, 347, 348, 349, 350, 351, 352, 353, 354, 355, 356, 357, 358, 359, 360, 361, 362, 363, 364, 365, 366, 367, 368, 369, 370, 371, 372, 373, 374, 375, 376, 377, 378, 379, 380, 381, 382, 383, 384, 385, 386, 387, 388, 389, 390, 391, 392, 393, 394, 395, 396, 397, 398, 399, 400, 401, 402, 403, 404, 405, 406, 407, 408, 409, 410, 411, 412, 413, 414, 415, 416, 417, 418, 419, 420, 421, 422, 423, 424, 425, 426, 427, 428, 429, 430, 431, 432, 433, 434, 435, 436, 437, 438, 439, 440, 441, 442, 443, 444, 445, 446, 447, 448, 449, 450, 451, 452, 453, 454],
      "AcquisitionTime": ["171209.292500", "171210.782500", "171212.272500", "171213.762500", "171215.252500", "171216.742500", "171218.232500", "171219.722500", "171221.212500", "171222.702500", "171224.192500", "171225.682500", "171227.172500", "171228.662500", "171230.152500", "171231.642500", "171233.132500", "171234.622500", "171236.112500", "171237.602500", "171239.092500", "171240.582500", "171242.072500", "171243.562500", "171245.052500", "171246.542500", "171248.032500", "171249.522500", "171251.012500", "171252.502500", "171253.992500", "171255.482500", "171256.972500", "171258.462500", "171259.952500", "171301.442500", "171302.932500", "171304.422500", "171305.912500", "171307.402500", "171308.892500", "171310.382500", "171311.872500", "171313.362500", "171314.852500", "171316.342500", "171317.832500", "171319.322500", "171320.812500", "171322.302500", "171323.792500", "171325.282500", "171326.772500", "171328.262500", "171329.752500", "171331.242500", "171332.732500", "171334.222500", "171335.712500", "171337.202500", "171338.692500", "171340.182500", "171341.672500", "171343.162500", "171344.652500", "171346.142500", "171347.632500", "171349.122500", "171350.612500", "171352.102500", "171353.592500", "171355.082500", "171356.572500", "171358.062500", "171359.552500", "171401.042500", "171402.532500", "171404.022500", "171405.512500", "171407.002500", "171408.492500", "171409.982500", "171411.472500", "171412.962500", "171414.452500", "171415.942500", "171417.432500", "171418.922500", "171420.412500", "171421.902500", "171423.392500", "171424.882500", "171426.372500", "171427.862500", "171429.352500", "171430.842500", "171432.332500", "171433.822500", "171435.312500", "171436.802500", "171438.292500", "171439.782500", "171441.272500", "171442.762500", "171444.252500", "171445.742500", "171447.232500", "171448.722500", "171450.212500", "171451.702500", "171453.192500", "171454.682500", "171456.172500", "171457.662500", "171459.152500", "171500.642500", "171502.132500", "171503.622500", "171505.112500", "171506.602500", "171508.092500", "171509.582500", "171511.072500", "171512.562500", "171514.052500", "171515.542500", "171517.032500", "171518.522500", "171520.012500", "171521.502500", "171522.992500", "171524.482500", "171525.972500", "171527.462500", "171528.952500", "171530.442500", "171531.932500", "171533.422500", "171534.912500", "171536.402500", "171537.892500", "171539.382500", "171540.872500", "171542.362500", "171543.852500", "171545.342500", "171546.832500", "171548.322500", "171549.812500", "171551.302500", "171552.792500", "171554.282500", "171555.772500", "171557.262500", "171558.752500", "171600.242500", "171601.732500", "171603.222500", "171604.712500", "171606.202500", "171607.692500", "171609.182500", "171610.672500", "171612.162500", "171613.652500", "171615.142500", "171616.632500", "171618.122500", "171619.612500", "171621.102500", "171622.592500", "171624.082500", "171625.572500", "171627.062500", "171628.552500", "171630.042500", "171631.532500", "171633.022500", "171634.512500", "171636.002500", "171637.492500", "171638.982500", "171640.472500", "171641.962500", "171643.452500", "171644.942500", "171646.432500", "171647.922500", "171649.412500", "171650.902500", "171652.392500", "171653.882500", "171655.372500", "171656.862500", "171658.352500", "171659.842500", "171701.332500", "171702.822500", "171704.312500", "171705.802500", "171707.292500", "171708.782500", "171710.272500", "171711.762500", "171713.252500", "171714.742500", "171716.232500", "171717.722500", "171719.212500", "171720.702500", "171722.192500", "171723.682500", "171725.172500", "171726.662500", "171728.152500", "171729.642500", "171731.132500", "171732.622500", "171734.112500", "171735.602500", "171737.092500", "171738.582500", "171740.072500", "171741.562500", "171743.052500", "171744.542500", "171746.032500", "171747.522500", "171749.012500", "171750.502500", "171751.992500", "171753.482500", "171754.972500", "171756.462500", "171757.952500", "171759.442500", "171800.932500", "171802.422500", "171803.912500", "171805.402500", "171806.892500", "171808.382500", "171809.872500", "171811.362500", "171812.852500", "171814.342500", "171815.832500", "171817.322500", "171818.812500", "171820.302500", "171821.792500", "171823.282500", "171824.772500", "171826.262500", "171827.752500", "171829.242500", "171830.732500", "171832.222500", "171833.712500", "171835.202500", "171836.692500", "171838.182500", "171839.672500", "171841.162500", "171842.652500", "171844.142500", "171845.632500", "171847.122500", "171848.612500", "171850.102500", "171851.592500", "171853.082500", "171854.572500", "171856.062500", "171857.552500", "171859.042500", "171900.532500", "171902.022500", "171903.512500", "171905.002500", "171906.492500", "171907.982500", "171909.472500", "171910.962500", "171912.452500", "171913.942500", "171915.432500", "171916.922500", "171918.412500", "171919.902500", "171921.392500", "171922.882500", "171924.372500", "171925.862500", "171927.352500", "171928.842500", "171930.332500", "171931.822500", "171933.312500", "171934.802500", "171936.292500", "171937.782500", "171939.272500", "171940.762500", "171942.252500", "171943.742500", "171945.232500", "171946.722500", "171948.212500", "171949.702500", "171951.192500", "171952.682500", "171954.172500", "171955.662500", "171957.152500", "171958.642500", "172000.132500", "172001.622500", "172003.112500", "172004.602500", "172006.092500", "172007.582500", "172009.072500", "172010.562500", "172012.052500", "172013.542500", "172015.032500", "172016.522500", "172018.012500", "172019.502500", "172020.992500", "172022.482500", "172023.972500", "172025.462500", "172026.952500", "172028.442500", "172029.932500", "172031.422500", "172032.912500", "172034.402500", "172035.892500", "172037.382500", "172038.872500", "172040.362500", "172041.852500", "172043.342500", "172044.832500", "172046.322500", "172047.812500", "172049.302500", "172050.792500", "172052.282500", "172053.772500", "172055.262500", "172056.752500", "172058.242500", "172059.732500", "172101.222500", "172102.712500", "172104.202500", "172105.692500", "172107.182500", "172108.672500", "172110.162500", "172111.652500", "172113.142500", "172114.632500", "172116.122500", "172117.612500", "172119.102500", "172120.592500", "172122.082500", "172123.572500", "172125.062500", "172126.552500", "172128.042500", "172129.532500", "172131.022500", "172132.512500", "172134.002500", "172135.492500", "172136.982500", "172138.472500", "172139.962500", "172141.452500", "172142.942500", "172144.432500", "172145.922500", "172147.412500", "172148.902500", "172150.392500", "172151.882500", "172153.372500", "172154.862500", "172156.352500", "172157.842500", "172159.332500", "172200.822500", "172202.312500", "172203.802500", "172205.292500", "172206.782500", "172208.272500", "172209.762500", "172211.252500", "172212.742500", "172214.232500", "172215.722500", "172217.212500", "172218.702500", "172220.192500", "172221.682500", "172223.172500", "172224.662500", "172226.152500", "172227.642500", "172229.132500", "172230.622500", "172232.112500", "172233.602500", "172235.092500", "172236.582500", "172238.072500", "172239.562500", "172241.052500", "172242.542500", "172244.032500", "172245.522500", "172247.012500", "172248.502500", "172249.992500", "172251.482500", "172252.972500", "172254.462500", "172255.952500", "172257.442500", "172258.932500", "172300.422500", "172301.912500", "172303.402500", "172304.892500", "172306.382500", "172307.872500", "172309.362500", "172310.852500", "172312.342500", "172313.832500", "172315.322500", "172316.812500", "172318.302500", "172319.792500", "172321.282500", "172322.772500", "172324.262500"],
      "ContentTime": ["171325.932000", "171325.936000", "171325.939000", "171325.941000", "171325.953000", "171325.956000", "171325.959000", "171325.962000", "171325.965000", "171325.967000", "171325.970000", "171325.973000", "171325.976000", "171325.979000", "171325.982000", "171325.985000", "171325.988000", "171325.991000", "171325.994000", "171325.996000", "171326.000000", "171345.902000", "171345.905000", "171345.908000", "171345.911000", "171345.914000", "171345.916000", "171345.919000", "171345.922000", "171345.925000", "171345.928000", "171345.931000", "171345.934000", "171345.937000", "171345.940000", "171345.942000", "171345.945000", "171345.948000", "171345.951000", "171345.954000", "171345.957000", "171405.902000", "171405.905000", "171405.908000", "171405.911000", "171405.914000", "171405.916000", "171405.919000", "171405.922000", "171405.925000", "171405.929000", "171405.931000", "171405.940000", "171405.943000", "171405.946000", "171405.949000", "171405.952000", "171405.954000", "171405.957000", "171405.960000", "171405.963000", "171425.901000", "171425.904000", "171425.907000", "171425.910000", "171425.913000", "171425.915000", "171425.918000", "171425.921000", "171425.924000", "171425.927000", "171425.930000", "171425.933000", "171425.936000", "171425.938000", "171425.941000", "171425.944000", "171425.947000", "171425.950000", "171425.953000", "171425.956000", "171425.959000", "171445.901000", "171445.904000", "171445.907000", "171445.910000", "171445.912000", "171445.915000", "171445.918000", "171445.921000", "171445.924000", "171445.927000", "171445.930000", "171445.933000", "171445.936000", "171445.938000", "171445.941000", "171445.944000", "171445.947000", "171445.950000", "171445.953000", "171445.956000", "171525.902000", "171525.905000", "171525.908000", "171525.911000", "171525.914000", "171525.917000", "171525.919000", "171525.922000", "171525.925000", "171525.928000", "171525.931000", "171525.934000", "171525.937000", "171525.940000", "171525.943000", "171525.946000", "171525.948000", "171525.962000", "171525.965000", "171525.968000", "171525.970000", "171525.973000", "171525.976000", "171525.979000", "171525.982000", "171525.991000", "171525.994000", "171525.997000", "171526.001000", "171605.902000", "171605.905000", "171605.908000", "171605.911000", "171605.914000", "171605.917000", "171605.920000", "171605.923000", "171605.926000", "171605.928000", "171605.931000", "171605.934000", "171605.937000", "171605.940000", "171605.943000", "171605.946000", "171605.949000", "171605.951000", "171605.954000", "171605.957000", "171605.960000", "171605.963000", "171605.966000", "171605.969000", "171605.972000", "171605.975000", "171605.978000", "171645.901000", "171645.904000", "171645.907000", "171645.910000", "171645.913000", "171645.916000", "171645.918000", "171645.921000", "171645.924000", "171645.927000", "171645.930000", "171645.933000", "171645.936000", "171645.938000", "171645.941000", "171645.944000", "171645.947000", "171645.950000", "171645.953000", "171645.956000", "171645.959000", "171645.962000", "171645.965000", "171645.968000", "171645.970000", "171645.973000", "171645.976000", "171725.902000", "171725.905000", "171725.908000", "171725.911000", "171725.914000", "171725.917000", "171725.919000", "171725.922000", "171725.925000", "171725.928000", "171725.931000", "171725.934000", "171725.936000", "171725.939000", "171725.942000", "171725.945000", "171725.948000", "171725.951000", "171725.954000", "171725.957000", "171725.960000", "171725.963000", "171725.965000", "171725.968000", "171725.971000", "171725.974000", "171725.977000", "171805.902000", "171805.905000", "171805.908000", "171805.911000", "171805.914000", "171805.917000", "171805.920000", "171805.922000", "171805.925000", "171805.928000", "171805.931000", "171805.934000", "171805.937000", "171805.940000", "171805.944000", "171805.948000", "171805.951000", "171805.954000", "171805.956000", "171805.959000", "171805.962000", "171805.965000", "171805.968000", "171805.971000", "171805.974000", "171805.977000", "171845.902000", "171845.905000", "171845.908000", "171845.911000", "171845.914000", "171845.917000", "171845.920000", "171845.922000", "171845.925000", "171845.928000", "171845.931000", "171845.934000", "171845.937000", "171845.940000", "171845.943000", "171845.946000", "171845.949000", "171845.951000", "171845.954000", "171845.957000", "171845.960000", "171845.963000", "171845.966000", "171845.969000", "171845.971000", "171845.982000", "171845.985000", "171925.902000", "171925.905000", "171925.908000", "171925.911000", "171925.914000", "171925.917000", "171925.920000", "171925.922000", "171925.925000", "171925.928000", "171925.931000", "171925.934000", "171925.937000", "171925.940000", "171925.943000", "171925.946000", "171925.949000", "171925.952000", "171925.955000", "171925.958000", "171925.960000", "171925.963000", "171925.966000", "171925.969000", "171925.972000", "171925.975000", "171925.978000", "172005.902000", "172005.905000", "172005.908000", "172005.911000", "172005.914000", "172005.917000", "172005.920000", "172005.922000", "172005.925000", "172005.928000", "172005.931000", "172005.934000", "172005.937000", "172005.940000", "172005.943000", "172005.946000", "172005.949000", "172005.952000", "172005.955000", "172005.958000", "172005.960000", "172005.963000", "172005.966000", "172005.969000", "172005.972000", "172005.975000", "172005.978000", "172045.902000", "172045.905000", "172045.921000", "172045.924000", "172045.927000", "172045.930000", "172045.933000", "172045.937000", "172045.939000", "172045.942000", "172045.946000", "172045.949000", "172045.952000", "172045.955000", "172045.958000", "172045.961000", "172045.964000", "172045.967000", "172045.970000", "172045.972000", "172045.975000", "172045.978000", "172045.981000", "172045.984000", "172045.987000", "172045.990000", "172045.993000", "172125.901000", "172125.904000", "172125.907000", "172125.910000", "172125.913000", "172125.916000", "172125.918000", "172125.921000", "172125.924000", "172125.927000", "172125.930000", "172125.933000", "172125.936000", "172125.939000", "172125.942000", "172125.945000", "172125.948000", "172125.951000", "172125.953000", "172125.956000", "172125.959000", "172125.962000", "172125.965000", "172125.968000", "172125.971000", "172125.974000", "172125.977000", "172205.902000", "172205.905000", "172205.908000", "172205.911000", "172205.914000", "172205.917000", "172205.919000", "172205.922000", "172205.925000", "172205.928000", "172205.931000", "172205.934000", "172205.937000", "172205.940000", "172205.943000", "172205.946000", "172205.949000", "172205.952000", "172205.955000", "172205.957000", "172205.960000", "172205.963000", "172205.966000", "172205.969000", "172205.972000", "172205.975000", "172205.978000", "172245.902000", "172245.905000", "172245.908000", "172245.911000", "172245.914000", "172245.917000", "172245.920000", "172245.922000", "172245.925000", "172245.929000", "172245.932000", "172245.935000", "172245.938000", "172245.941000", "172245.944000", "172245.947000", "172245.950000", "172245.953000", "172245.956000", "172245.958000", "172245.961000", "172245.964000", "172245.967000", "172245.970000", "172245.973000", "172245.976000", "172325.901000", "172325.904000", "172325.907000", "172325.910000", "172325.913000", "172325.916000", "172325.918000", "172325.921000", "172325.924000", "172325.927000", "172325.930000", "172325.933000", "172325.936000", "172325.939000", "172325.942000", "172325.945000", "172325.948000", "172325.951000", "172325.954000", "172325.957000", "172325.959000", "172325.962000", "172325.965000", "172325.968000", "172325.971000", "172325.974000", "172325.977000", "172326.343000"],
