{
  "AcquisitionMatrixPE": 104,
  "AcquisitionNumber": 1,
  "AcquisitionTime": "17:35:50.675000",
  "BandwidthPerPixelPhaseEncode": 17.17,
  "BaseResolution": 104,
  "BodyPartExamined": "BRAIN",
  "CoilString": "HC1-7;NC1_2",
  "ConsistencyInfo": "N4_VE11C_LATEST_20160120",
  "ConversionSoftware": "dcm2niix",
  "ConversionSoftwareVersion": "v1.0.20190902",
  "DerivedVendorReportedEchoSpacing": 0.000560011,
  "DeviceSerialNumber": "167006",
  "DwellTime": 2.1e-06,
  "EchoTime": 0.037,
  "EchoTrainLength": 104,
  "EffectiveEchoSpacing": 0.000560011,
  "FlipAngle": 52,
  "ImageComments": "Unaliased_MB4_PE3_LB",
  "ImageOrientationPatientDICOM": [0.999344, -0.0359525, -0.00444293, 0.0315802, 0.924694, -0.379398],
  "ImageType": [
    "ORIGINAL",
    "PRIMARY",
    "M",
    "MB",
    "ND",
    "MOSAIC"
],
  "ImagingFrequency": 123.259,
  "InPlanePhaseEncodingDirectionDICOM": "COL",
  "InstitutionAddress": "Chemin_Queen-Mary_4565_Montreal_District_CA_H3W_1W5",
  "InstitutionName": "IUGM",
  "InstitutionalDepartmentName": "Department",
  "MRAcquisitionType": "2D",
  "MagneticFieldStrength": 3,
  "Manufacturer": "Siemens",
  "ManufacturersModelName": "Prisma_fit",
  "Modality": "MR",
  "MultibandAccelerationFactor": 4,
  "PartialFourier": 1,
  "PatientPosition": "HFS",
  "PercentPhaseFOV": 100,
  "PhaseEncodingDirection": "j",
  "PhaseEncodingSteps": 104,
  "PhaseResolution": 1,
  "PixelBandwidth": 2290,
  "ProcedureStepDescription": "video_friends",
  "ProtocolName": "func_task-friends-s03e25a",
  "PulseSequenceDetails": "%CustomerSeq%_cmrr_mbep2d_bold",
  "ReceiveCoilActiveElements": "HC1-7;NC1,2",
  "ReceiveCoilName": "HeadNeck_64",
  "ReconMatrixPE": 104,
  "RepetitionTime": 1.49,
  "SAR": 0.0438823,
  "ScanOptions": "FS",
  "ScanningSequence": "EP",
  "SequenceName": "epfid2d1_104",
  "SequenceVariant": "SK_SS",
  "SeriesDescription": "func_task-friends-s03e25a",
  "SeriesNumber": 13,
  "ShimSetting": [617, -7303, -8824, 414, 31, -473, 70, 34],
  "SliceThickness": 2,
  "SliceTiming": [0, 0.785, 0.0975, 0.8825, 0.1975, 0.98, 0.295, 1.0775, 0.3925, 1.1775, 0.49, 1.275, 0.5875, 1.3725, 0.6875, 0, 0.785, 0.0975, 0.8825, 0.1975, 0.98, 0.295, 1.0775, 0.3925, 1.1775, 0.49, 1.275, 0.5875, 1.3725, 0.6875, 0, 0.785, 0.0975, 0.8825, 0.1975, 0.98, 0.295, 1.0775, 0.3925, 1.1775, 0.49, 1.275, 0.5875, 1.3725, 0.6875, 0, 0.785, 0.0975, 0.8825, 0.1975, 0.98, 0.295, 1.0775, 0.3925, 1.1775, 0.49, 1.275, 0.5875, 1.3725, 0.6875],
  "SoftwareVersions": "syngo_MR_E11",
  "SpacingBetweenSlices": 2,
  "StationName": "MRC35049",
  "TaskName": "s03e25a",
  "TotalReadoutTime": 0.0576811,
  "TxRefAmp": 255.194,
  "WipMemBlock": "b27b08a0-0a80-4757-aa8c-e312bbaf61d3||Sequence: R016 ve11c/master r/e634e98; Dec 19 2017 11:00:25 by eja",
  "dcmmeta_affine": [
    [-1.9986872673034668, 0.06316038221120834, -0.03549733757972717, 97.86138153076172],
    [0.07190505415201187, 1.849388837814331, -0.7580174207687378, -72.32068634033203],
    [-0.008885856717824936, 0.7587960958480835, 1.8504457473754883, -57.80222702026367],
    [0.0, 0.0, 0.0, 1.0]
],
  "dcmmeta_reorient_transform": [
    [0.0, -1.0, 0.0, 103.0],
    [1.0, 0.0, 0.0, 0.0],
    [0.0, 0.0, 1.0, 0.0],
    [0.0, 0.0, 0.0, 1.0]
],
  "dcmmeta_shape": [104, 104, 60, 479],
  "dcmmeta_slice_dim": 2,
  "dcmmeta_version": 0.6,
  "global": {
    "const": {
      "AcquisitionMatrix": [104, 0, 0, 104],
      "AngioFlag": "N",
      "BitsAllocated": 16,
      "BitsStored": 16,
      "BodyPartExamined": "BRAIN",
      "Columns": 832,
      "EchoNumbers": 1,
      "EchoTime": 37.0,
      "EchoTrainLength": 104,
      "FlipAngle": 52.0,
      "HighBit": 15,
      "ImageOrientationPatient": [0.99934362273879, -0.0359525253367, -0.0044429284505, 0.03158019069773, 0.92469444659903, -0.3793980389834],
      "ImagePositionPatient": [-854.87943851809, -765.17048781029, 299.78999200332],
      "ImageType": [
        "ORIGINAL",
        "PRIMARY",
        "M",
        "MB",
        "ND",
        "MOSAIC"
],
      "ImagedNucleus": "1H",
      "ImagingFrequency": 123.258939,
      "InPlanePhaseEncodingDirection": "COL",
      "MRAcquisitionType": "2D",
      "MagneticFieldStrength": 3.0,
      "Manufacturer": "SIEMENS",
      "ManufacturerModelName": "Prisma_fit",
      "Modality": "MR",
      "NumberOfAverages": 1.0,
      "NumberOfPhaseEncodingSteps": 104,
      "PercentPhaseFieldOfView": 100.0,
      "PercentSampling": 100.0,
      "PerformedProcedureStepStartTime": "170630.788000",
      "PhotometricInterpretation": "MONOCHROME2",
      "PixelBandwidth": 2290.0,
      "PixelRepresentation": 0,
      "PixelSpacing": [2.0, 2.0],
      "ProtocolName": "func_task-friends-s03e25a",
      "RepetitionTime": 1490.0,
      "Rows": 832,
      "SAR": 0.04388224971887,
      "SamplesPerPixel": 1,
      "ScanOptions": "FS",
      "ScanningSequence": "EP",
      "SequenceName": "epfid2d1_104",
      "SequenceVariant": [
        "SK",
        "SS"
],
      "SeriesDescription": "func_task-friends-s03e25a",
      "SeriesNumber": 13,
      "SeriesTime": "173719.055000",
      "SliceLocation": -27.806684101424,
      "SliceThickness": 2.0,
      "SmallestImagePixelValue": 0,
      "SoftwareVersions": "syngo MR E11",
      "SpacingBetweenSlices": 2.0000000369374,
      "SpecificCharacterSet": "ISO_IR 100",
      "StudyID": "1",
      "StudyTime": "170630.731000",
      "TransmitCoilName": "Body",
      "VariableFlipAngleFlag": "N",
      "WindowCenterWidthExplanation": "Algo1",
      "dBdt": 0.0},
    "slices": {}
  },
  "time": {
    "samples": {
      "AcquisitionNumber": [1, 2, 3, 4, 5, 6, 7, 8, 9, 10, 11, 12, 13, 14, 15, 16, 17, 18, 19, 20, 21, 22, 23, 24, 25, 26, 27, 28, 29, 30, 31, 32, 33, 34, 35, 36, 37, 38, 39, 40, 41, 42, 43, 44, 45, 46, 47, 48, 49, 50, 51, 52, 53, 54, 55, 56, 57, 58, 59, 60, 61, 62, 63, 64, 65, 66, 67, 68, 69, 70, 71, 72, 73, 74, 75, 76, 77, 78, 79, 80, 81, 82, 83, 84, 85, 86, 87, 88, 89, 90, 91, 92, 93, 94, 95, 96, 97, 98, 99, 100, 101, 102, 103, 104, 105, 106, 107, 108, 109, 110, 111, 112, 113, 114, 115, 116, 117, 118, 119, 120, 121, 122, 123, 124, 125, 126, 127, 128, 129, 130, 131, 132, 133, 134, 135, 136, 137, 138, 139, 140, 141, 142, 143, 144, 145, 146, 147, 148, 149, 150, 151, 152, 153, 154, 155, 156, 157, 158, 159, 160, 161, 162, 163, 164, 165, 166, 167, 168, 169, 170, 171, 172, 173, 174, 175, 176, 177, 178, 179, 180, 181, 182, 183, 184, 185, 186, 187, 188, 189, 190, 191, 192, 193, 194, 195, 196, 197, 198, 199, 200, 201, 202, 203, 204, 205, 206, 207, 208, 209, 210, 211, 212, 213, 214, 215, 216, 217, 218, 219, 220, 221, 222, 223, 224, 225, 226, 227, 228, 229, 230, 231, 232, 233, 234, 235, 236, 237, 238, 239, 240, 241, 242, 243, 244, 245, 246, 247, 248, 249, 250, 251, 252, 253, 254, 255, 256, 257, 258, 259, 260, 261, 262, 263, 264, 265, 266, 267, 268, 269, 270, 271, 272, 273, 274, 275, 276, 277, 278, 279, 280, 281, 282, 283, 284, 285, 286, 287, 288, 289, 290, 291, 292, 293, 294, 295, 296, 297, 298, 299, 300, 301, 302, 303, 304, 305, 306, 307, 308, 309, 310, 311, 312, 313, 314, 315, 316, 317, 318, 319, 320, 321, 322, 323, 324, 325, 326, 327, 328, 329, 330, 331, 332, 333, 334, 335, 336, 337, 338, 339, 340, 341, 342, 343, 344, 345, 346, 347, 348, 349, 350, 351, 352, 353, 354, 355, 356, 357, 358, 359, 360, 361, 362, 363, 364, 365, 366, 367, 368, 369, 370, 371, 372, 373, 374, 375, 376, 377, 378, 379, 380, 381, 382, 383, 384, 385, 386, 387, 388, 389, 390, 391, 392, 393, 394, 395, 396, 397, 398, 399, 400, 401, 402, 403, 404, 405, 406, 407, 408, 409, 410, 411, 412, 413, 414, 415, 416, 417, 418, 419, 420, 421, 422, 423, 424, 425, 426, 427, 428, 429, 430, 431, 432, 433, 434, 435, 436, 437, 438, 439, 440, 441, 442, 443, 444, 445, 446, 447, 448, 449, 450, 451, 452, 453, 454, 455, 456, 457, 458, 459, 460, 461, 462, 463, 464, 465, 466, 467, 468, 469, 470, 471, 472, 473, 474, 475, 476, 477, 478, 479],
      "AcquisitionTime": ["173550.675000", "173552.165000", "173553.655000", "173555.145000", "173556.635000", "173558.125000", "173559.615000", "173601.105000", "173602.595000", "173604.085000", "173605.575000", "173607.065000", "173608.555000", "173610.045000", "173611.535000", "173613.025000", "173614.515000", "173616.005000", "173617.495000", "173618.985000", "173620.475000", "173621.965000", "173623.455000", "173624.945000", "173626.435000", "173627.925000", "173629.415000", "173630.905000", "173632.395000", "173633.885000", "173635.375000", "173636.865000", "173638.355000", "173639.845000", "173641.335000", "173642.825000", "173644.315000", "173645.805000", "173647.295000", "173648.785000", "173650.275000", "173651.765000", "173653.255000", "173654.745000", "173656.235000", "173657.725000", "173659.215000", "173700.705000", "173702.195000", "173703.685000", "173705.175000", "173706.665000", "173708.155000", "173709.645000", "173711.135000", "173712.625000", "173714.115000", "173715.605000", "173717.095000", "173718.585000", "173720.075000", "173721.565000", "173723.055000", "173724.545000", "173726.035000", "173727.525000", "173729.015000", "173730.505000", "173731.995000", "173733.485000", "173734.975000", "173736.465000", "173737.955000", "173739.445000", "173740.935000", "173742.425000", "173743.915000", "173745.405000", "173746.895000", "173748.385000", "173749.875000", "173751.365000", "173752.855000", "173754.345000", "173755.835000", "173757.325000", "173758.815000", "173800.305000", "173801.795000", "173803.285000", "173804.775000", "173806.265000", "173807.755000", "173809.245000", "173810.735000", "173812.225000", "173813.715000", "173815.205000", "173816.695000", "173818.185000", "173819.675000", "173821.165000", "173822.655000", "173824.145000", "173825.635000", "173827.125000", "173828.615000", "173830.105000", "173831.595000", "173833.085000", "173834.575000", "173836.065000", "173837.555000", "173839.045000", "173840.535000", "173842.025000", "173843.515000", "173845.005000", "173846.495000", "173847.985000", "173849.475000", "173850.965000", "173852.455000", "173853.945000", "173855.435000", "173856.925000", "173858.415000", "173859.905000", "173901.395000", "173902.885000", "173904.375000", "173905.865000", "173907.355000", "173908.845000", "173910.335000", "173911.825000", "173913.315000", "173914.805000", "173916.295000", "173917.785000", "173919.275000", "173920.765000", "173922.255000", "173923.745000", "173925.235000", "173926.725000", "173928.215000", "173929.705000", "173931.195000", "173932.685000", "173934.175000", "173935.665000", "173937.155000", "173938.645000", "173940.135000", "173941.625000", "173943.115000", "173944.605000", "173946.095000", "173947.585000", "173949.075000", "173950.565000", "173952.055000", "173953.545000", "173955.035000", "173956.525000", "173958.015000", "173959.505000", "174000.995000", "174002.485000", "174003.975000", "174005.465000", "174006.955000", "174008.445000", "174009.935000", "174011.425000", "174012.915000", "174014.405000", "174015.895000", "174017.385000", "174018.875000", "174020.365000", "174021.855000", "174023.345000", "174024.835000", "174026.325000", "174027.815000", "174029.305000", "174030.795000", "174032.285000", "174033.775000", "174035.265000", "174036.755000", "174038.245000", "174039.735000", "174041.225000", "174042.715000", "174044.205000", "174045.695000", "174047.185000", "174048.675000", "174050.165000", "174051.655000", "174053.145000", "174054.635000", "174056.125000", "174057.615000", "174059.105000", "174100.595000", "174102.085000", "174103.575000", "174105.065000", "174106.555000", "174108.045000", "174109.535000", "174111.025000", "174112.515000", "174114.005000", "174115.495000", "174116.985000", "174118.475000", "174119.965000", "174121.455000", "174122.945000", "174124.435000", "174125.925000", "174127.415000", "174128.905000", "174130.395000", "174131.885000", "174133.375000", "174134.865000", "174136.355000", "174137.845000", "174139.335000", "174140.825000", "174142.315000", "174143.805000", "174145.295000", "174146.785000", "174148.275000", "174149.765000", "174151.255000", "174152.745000", "174154.235000", "174155.725000", "174157.215000", "174158.705000", "174200.195000", "174201.685000", "174203.175000", "174204.665000", "174206.155000", "174207.645000", "174209.135000", "174210.625000", "174212.115000", "174213.605000", "174215.095000", "174216.585000", "174218.075000", "174219.565000", "174221.055000", "174222.545000", "174224.035000", "174225.525000", "174227.015000", "174228.505000", "174229.995000", "174231.485000", "174232.975000", "174234.465000", "174235.955000", "174237.445000", "174238.935000", "174240.425000", "174241.915000", "174243.405000", "174244.895000", "174246.385000", "174247.875000", "174249.365000", "174250.855000", "174252.345000", "174253.835000", "174255.325000", "174256.815000", "174258.305000", "174259.795000", "174301.285000", "174302.775000", "174304.265000", "174305.755000", "174307.245000", "174308.735000", "174310.225000", "174311.715000", "174313.205000", "174314.695000", "174316.185000", "174317.675000", "174319.165000", "174320.655000", "174322.145000", "174323.635000", "174325.125000", "174326.615000", "174328.105000", "174329.595000", "174331.085000", "174332.575000", "174334.065000", "174335.555000", "174337.045000", "174338.535000", "174340.025000", "174341.515000", "174343.005000", "174344.495000", "174345.985000", "174347.475000", "174348.965000", "174350.455000", "174351.945000", "174353.435000", "174354.925000", "174356.415000", "174357.905000", "174359.395000", "174400.885000", "174402.375000", "174403.865000", "174405.355000", "174406.845000", "174408.335000", "174409.825000", "174411.315000", "174412.805000", "174414.295000", "174415.785000", "174417.275000", "174418.765000", "174420.255000", "174421.745000", "174423.235000", "174424.725000", "174426.215000", "174427.705000", "174429.195000", "174430.685000", "174432.175000", "174433.665000", "174435.155000", "174436.645000", "174438.135000", "174439.625000", "174441.115000", "174442.605000", "174444.095000", "174445.585000", "174447.075000", "174448.565000", "174450.055000", "174451.545000", "174453.035000", "174454.525000", "174456.015000", "174457.505000", "174458.995000", "174500.485000", "174501.975000", "174503.465000", "174504.955000", "174506.445000", "174507.935000", "174509.425000", "174510.915000", "174512.405000", "174513.895000", "174515.385000", "174516.875000", "174518.365000", "174519.855000", "174521.345000", "174522.835000", "174524.325000", "174525.815000", "174527.305000", "174528.795000", "174530.285000", "174531.775000", "174533.265000", "174534.755000", "174536.245000", "174537.735000", "174539.225000", "174540.715000", "174542.205000", "174543.695000", "174545.185000", "174546.675000", "174548.165000", "174549.655000", "174551.145000", "174552.635000", "174554.125000", "174555.615000", "174557.105000", "174558.595000", "174600.085000", "174601.575000", "174603.065000", "174604.555000", "174606.045000", "174607.535000", "174609.025000", "174610.515000", "174612.005000", "174613.495000", "174614.985000", "174616.475000", "174617.965000", "174619.455000", "174620.945000", "174622.435000", "174623.925000", "174625.415000", "174626.905000", "174628.395000", "174629.885000", "174631.375000", "174632.865000", "174634.355000", "174635.845000", "174637.335000", "174638.825000", "174640.315000", "174641.805000", "174643.295000", "174644.785000", "174646.275000", "174647.765000", "174649.255000", "174650.745000", "174652.235000", "174653.725000", "174655.215000", "174656.705000", "174658.195000", "174659.685000", "174701.175000", "174702.665000", "174704.155000", "174705.645000", "174707.135000", "174708.625000", "174710.115000", "174711.605000", "174713.095000", "174714.585000", "174716.075000", "174717.565000", "174719.055000", "174720.545000", "174722.035000", "174723.525000", "174725.015000", "174726.505000", "174727.995000", "174729.485000", "174730.975000", "174732.465000", "174733.955000", "174735.445000", "174736.935000", "174738.425000", "174739.915000", "174741.405000", "174742.895000"],
      "ContentTime": ["173719.057000", "173719.061000", "173719.064000", "173719.067000", "173719.070000", "173719.072000", "173719.075000", "173719.078000", "173719.081000", "173719.084000", "173719.087000", "173719.090000", "173719.093000", "173719.101000", "173719.103000", "173719.106000", "173719.109000", "173719.112000", "173719.115000", "173719.118000", "173719.121000", "173719.123000", "173719.126000", "173719.129000", "173719.132000", "173719.135000", "173719.138000", "173719.141000", "173719.144000", "173719.146000", "173719.149000", "173719.152000", "173719.155000", "173719.158000", "173719.161000", "173739.024000", "173739.027000", "173739.030000", "173739.033000", "173739.036000", "173739.038000", "173739.041000", "173739.044000", "173739.047000", "173739.050000", "173739.053000", "173739.056000", "173739.059000", "173739.062000", "173739.065000", "173739.068000", "173739.070000", "173739.073000", "173739.076000", "173739.079000", "173759.024000", "173759.027000", "173759.030000", "173759.033000", "173759.036000", "173759.038000", "173759.041000", "173759.044000", "173759.047000", "173759.050000", "173759.053000", "173759.056000", "173759.059000", "173759.062000", "173759.065000", "173759.068000", "173759.071000", "173759.073000", "173759.076000", "173759.079000", "173759.082000", "173819.024000", "173819.027000", "173819.030000", "173819.033000", "173819.035000", "173819.038000", "173819.041000", "173819.044000", "173819.047000", "173819.050000", "173819.053000", "173819.056000", "173819.059000", "173819.062000", "173819.065000", "173819.067000", "173819.070000", "173819.073000", "173819.076000", "173819.079000", "173839.023000", "173839.026000", "173839.029000", "173839.032000", "173839.035000", "173839.038000", "173839.041000", "173839.043000", "173839.049000", "173839.052000", "173839.055000", "173839.058000", "173839.061000", "173839.064000", "173839.067000", "173839.069000", "173919.024000", "173919.027000", "173919.030000", "173919.033000", "173919.036000", "173919.038000", "173919.041000", "173919.044000", "173919.047000", "173919.050000", "173919.053000", "173919.056000", "173919.059000", "173919.061000", "173919.064000", "173919.067000", "173919.070000", "173919.073000", "173919.076000", "173919.079000", "173919.081000", "173919.084000", "173919.087000", "173919.090000", "173919.093000", "173919.096000", "173919.099000", "173959.024000", "173959.027000", "173959.030000", "173959.033000", "173959.036000", "173959.038000", "173959.041000", "173959.044000", "173959.047000", "173959.050000", "173959.053000", "173959.056000", "173959.059000", "173959.062000", "173959.065000", "173959.067000", "173959.070000", "173959.073000", "173959.076000", "173959.079000", "173959.082000", "173959.085000", "173959.088000", "173959.091000", "173959.093000", "173959.096000", "173959.099000", "174039.024000", "174039.027000", "174039.030000", "174039.033000", "174039.036000", "174039.039000", "174039.042000", "174039.045000", "174039.047000", "174039.050000", "174039.053000", "174039.056000", "174039.059000", "174039.062000", "174039.065000", "174039.068000", "174039.071000", "174039.074000", "174039.076000", "174039.079000", "174039.082000", "174039.094000", "174039.097000", "174039.100000", "174039.103000", "174039.106000", "174039.109000", "174119.024000", "174119.027000", "174119.030000", "174119.033000", "174119.036000", "174119.038000", "174119.041000", "174119.044000", "174119.047000", "174119.050000", "174119.053000", "174119.056000", "174119.059000", "174119.062000", "174119.064000", "174119.067000", "174119.070000", "174119.073000", "174119.076000", "174119.079000", "174119.082000", "174119.085000", "174119.088000", "174119.091000", "174119.093000", "174119.096000", "174119.099000", "174159.024000", "174159.027000", "174159.030000", "174159.033000", "174159.036000", "174159.039000", "174159.042000", "174159.045000", "174159.048000", "174159.050000", "174159.053000", "174159.056000", "174159.059000", "174159.062000", "174159.065000", "174159.068000", "174159.071000", "174159.074000", "174159.076000", "174159.079000", "174159.082000", "174159.085000", "174159.088000", "174159.091000", "174159.094000", "174159.097000", "174239.024000", "174239.027000", "174239.030000", "174239.033000", "174239.036000", "174239.039000", "174239.042000", "174239.044000", "174239.047000", "174239.050000", "174239.053000", "174239.056000", "174239.059000", "174239.062000", "174239.065000", "174239.068000", "174239.071000", "174239.074000", "174239.077000", "174239.080000", "174239.083000", "174239.085000", "174239.088000", "174239.091000", "174239.094000", "174239.097000", "174239.100000", "174319.023000", "174319.026000", "174319.029000", "174319.032000", "174319.035000", "174319.038000", "174319.041000", "174319.043000", "174319.046000", "174319.049000", "174319.052000", "174319.055000", "174319.058000", "174319.061000", "174319.064000", "174319.067000", "174319.070000", "174319.073000", "174319.076000", "174319.078000", "174319.081000", "174319.084000", "174319.087000", "174319.090000", "174319.093000", "174319.096000", "174319.099000", "174359.024000", "174359.027000", "174359.030000", "174359.033000", "174359.036000", "174359.039000", "174359.042000", "174359.045000", "174359.048000", "174359.051000", "174359.053000", "174359.056000", "174359.059000", "174359.062000", "174359.065000", "174359.068000", "174359.071000", "174359.074000", "174359.077000", "174359.079000", "174359.082000", "174359.085000", "174359.088000", "174359.091000", "174359.094000", "174359.097000", "174359.100000", "174439.024000", "174439.027000", "174439.030000", "174439.033000", "174439.036000", "174439.039000", "174439.042000", "174439.044000", "174439.047000", "174439.050000", "174439.053000", "174439.056000", "174439.059000", "174439.062000", "174439.065000", "174439.068000", "174439.071000", "174439.074000", "174439.076000", "174439.079000", "174439.082000", "174439.085000", "174439.088000", "174439.091000", "174439.094000", "174439.097000", "174439.100000", "174519.024000", "174519.027000", "174519.030000", "174519.033000", "174519.036000", "174519.039000", "174519.042000", "174519.044000", "174519.047000", "174519.050000", "174519.053000", "174519.056000", "174519.059000", "174519.062000", "174519.065000", "174519.068000", "174519.071000", "174519.074000", "174519.077000", "174519.079000", "174519.082000", "174519.098000", "174519.101000", "174519.104000", "174519.107000", "174519.110000", "174519.113000", "174559.024000", "174559.027000", "174559.030000", "174559.033000", "174559.036000", "174559.039000", "174559.042000", "174559.045000", "174559.047000", "174559.050000", "174559.053000", "174559.056000", "174559.059000", "174559.062000", "174559.065000", "174559.068000", "174559.071000", "174559.074000", "174559.077000", "174559.080000", "174559.083000", "174559.086000", "174559.089000", "174559.091000", "174559.094000", "174559.097000", "174639.024000", "174639.027000", "174639.030000", "174639.033000", "174639.036000", "174639.039000", "174639.042000", "174639.044000", "174639.047000", "174639.050000", "174639.053000", "174639.056000", "174639.059000", "174639.062000", "174639.065000", "174639.068000", "174639.071000", "174639.073000", "174639.076000", "174639.079000", "174639.082000", "174639.085000", "174639.088000", "174639.091000", "174639.094000", "174639.097000", "174639.100000", "174719.024000", "174719.027000", "174719.030000", "174719.033000", "174719.036000", "174719.039000", "174719.042000", "174719.045000", "174719.048000", "174719.051000", "174719.054000", "174719.057000", "174719.060000", "174719.062000", "174719.065000", "174719.068000", "174719.071000", "174719.074000", "174719.077000", "174719.080000", "174719.083000", "174719.086000", "174719.089000", "174719.092000", "174719.095000", "174719.098000", "174719.100000", "174744.958000", "174744.961000", "174744.964000", "174744.967000", "174744.970000", "174744.973000", "174744.976000", "174744.979000", "174744.982000", "174744.984000", "174744.987000", "174744.990000", "174744.993000", "174744.996000", "174745.000000", "174745.003000", "174745.006000", "174745.009000"],
