{
  "AcquisitionMatrixPE": 104,
  "AcquisitionNumber": 1,
  "AcquisitionTime": "18:27:46.410000",
  "BandwidthPerPixelPhaseEncode": 17.17,
  "BaseResolution": 104,
  "BodyPartExamined": "BRAIN",
  "CoilCombinationMethod": "Sum of Squares",
  "ConsistencyInfo": "N4_VE11C_LATEST_20160120",
  "ConversionSoftware": "dcm2niix",
  "ConversionSoftwareVersion": "v1.0.20220505",
  "DerivedVendorReportedEchoSpacing": 0.000560011,
  "DeviceSerialNumber": "167006",
  "DwellTime": 2.1e-06,
  "EchoTime": 0.037,
  "EchoTrainLength": 104,
  "EffectiveEchoSpacing": 0.000560011,
  "FlipAngle": 52,
  "HeudiconvVersion": "0.5.3.post811+g6206e14",
  "ImageComments": "Unaliased MB4/PE3/LB",
  "ImageOrientationPatientDICOM": [0.998273, 0.0501521, 0.0305927, -0.0345116, 0.922079, -0.38546],
  "ImageOrientationText": "Tra>Cor(-22.6)>Sag(2.7)",
  "ImageType": [
    "ORIGINAL",
    "PRIMARY",
    "M",
    "MB",
    "ND",
    "MOSAIC"
],
  "ImagingFrequency": 123.259,
  "InPlanePhaseEncodingDirectionDICOM": "COL",
  "InstitutionAddress": "Chemin Queen-Mary 4565,Montreal,District,CA,H3W 1W5",
  "InstitutionName": "IUGM",
  "InstitutionalDepartmentName": "Department",
  "MRAcquisitionType": "2D",
  "MagneticFieldStrength": 3,
  "Manufacturer": "Siemens",
  "ManufacturersModelName": "Prisma_fit",
  "MatrixCoilMode": "SENSE",
  "Modality": "MR",
  "MultibandAccelerationFactor": 4,
  "PartialFourier": 1,
  "PatientPosition": "HFS",
  "PercentPhaseFOV": 100,
  "PercentSampling": 100,
  "PhaseEncodingDirection": "j",
  "PhaseEncodingSteps": 104,
  "PhaseResolution": 1,
  "PixelBandwidth": 2290,
  "ProcedureStepDescription": "video^friends",
  "ProtocolName": "func_task-friends-s06e14a",
  "PulseSequenceDetails": "%CustomerSeq%\\cmrr_mbep2d_bold",
  "ReceiveCoilActiveElements": "HC1-7;NC1,2",
  "ReceiveCoilName": "HeadNeck_64",
  "ReconMatrixPE": 104,
  "RepetitionTime": 1.49,
  "SAR": 0.0699938,
  "ScanOptions": "FS",
  "ScanningSequence": "EP",
  "SequenceName": "epfid2d1_104",
  "SequenceVariant": "SK\\SS",
  "SeriesDescription": "func_task-friends-s06e14a",
  "SeriesNumber": 14,
  "ShimSetting": [629, -7194, -8836, 657, 97, -48, -68, -14],
  "SliceThickness": 2,
  "SliceTiming": [0, 0.785, 0.0975, 0.8825, 0.195, 0.98, 0.295, 1.0775, 0.3925, 1.175, 0.49, 1.275, 0.5875, 1.3725, 0.685, 0, 0.785, 0.0975, 0.8825, 0.195, 0.98, 0.295, 1.0775, 0.3925, 1.175, 0.49, 1.275, 0.5875, 1.3725, 0.685, 0, 0.785, 0.0975, 0.8825, 0.195, 0.98, 0.295, 1.0775, 0.3925, 1.175, 0.49, 1.275, 0.5875, 1.3725, 0.685, 0, 0.785, 0.0975, 0.8825, 0.195, 0.98, 0.295, 1.0775, 0.3925, 1.175, 0.49, 1.275, 0.5875, 1.3725, 0.685],
  "SoftwareVersions": "syngo MR E11",
  "SpacingBetweenSlices": 2,
  "StationName": "MRC35049",
  "TaskName": "s06e14a",
  "TotalReadoutTime": 0.0576811,
  "TxRefAmp": 324.966,
  "WipMemBlock": "04fd7fc4-4b49-49c3-bd7d-52db9cc312e8||Sequence: R016 ve11c/master r/e634e98; Dec 19 2017 11:00:25 by eja",
  "dcmmeta_affine": [
    [-1.9965459108352661, -0.06902312487363815, 0.09508106857538223, 104.5175552368164],
    [-0.10030428320169449, 1.8441576957702637, -0.7674774527549744, -62.38411331176758],
    [0.06118538975715637, 0.77092045545578, 1.844434380531311, -74.97280883789062],
    [0.0, 0.0, 0.0, 1.0]
],
  "dcmmeta_reorient_transform": [
    [0.0, -1.0, 0.0, 103.0],
    [1.0, 0.0, 0.0, 0.0],
    [0.0, 0.0, 1.0, 0.0],
    [0.0, 0.0, 0.0, 1.0]
],
  "dcmmeta_shape": [104, 104, 60, 461],
  "dcmmeta_slice_dim": 2,
  "dcmmeta_version": 0.6,
  "global": {
    "const": {
      "AcquisitionMatrix": [104, 0, 0, 104],
      "AngioFlag": "N",
      "BitsAllocated": 16,
      "BitsStored": 16,
      "BodyPartExamined": "BRAIN",
      "Columns": 832,
      "EchoNumbers": 1,
      "EchoTime": 37.0,
      "EchoTrainLength": 104,
      "FlipAngle": 52.0,
      "HighBit": 15,
      "ImageOrientationPatient": [0.99827293354666, 0.05015214019494, 0.03059269491249, -0.0345115628669, 0.92207882469591, -0.3854602354016],
      "ImagePositionPatient": [-799.02644805359, -835.34826545032, 262.7755695964],
      "ImageType": [
        "ORIGINAL",
        "PRIMARY",
        "M",
        "MB",
        "ND",
        "MOSAIC"
],
      "ImagedNucleus": "1H",
      "ImagingFrequency": 123.258835,
      "InPlanePhaseEncodingDirection": "COL",
      "MRAcquisitionType": "2D",
      "MagneticFieldStrength": 3.0,
      "Manufacturer": "SIEMENS",
      "ManufacturerModelName": "Prisma_fit",
      "Modality": "MR",
      "NumberOfAverages": 1.0,
      "NumberOfPhaseEncodingSteps": 104,
      "PercentPhaseFieldOfView": 100.0,
      "PercentSampling": 100.0,
      "PerformedProcedureStepStartTime": "173054.473000",
      "PhotometricInterpretation": "MONOCHROME2",
      "PixelBandwidth": 2290.0,
      "PixelRepresentation": 0,
      "PixelSpacing": [2.0, 2.0],
      "ProtocolName": "func_task-friends-s06e14a",
      "RepetitionTime": 1490.0,
      "Rows": 832,
      "SAR": 0.06999378028111,
      "SamplesPerPixel": 1,
      "ScanOptions": "FS",
      "ScanningSequence": "EP",
      "SequenceName": "epfid2d1_104",
      "SequenceVariant": [
        "SK",
        "SS"
],
      "SeriesDescription": "func_task-friends-s06e14a",
      "SeriesNumber": 14,
      "SeriesTime": "182904.934000",
      "SliceLocation": -40.2331902589,
      "SliceThickness": 2.0,
      "SmallestImagePixelValue": 0,
      "SoftwareVersions": "syngo MR E11",
      "SpacingBetweenSlices": 2.000000048306,
      "SpecificCharacterSet": "ISO_IR 100",
      "StudyID": "1",
      "StudyTime": "173054.409000",
      "TransmitCoilName": "Body",
      "VariableFlipAngleFlag": "N",
      "WindowCenterWidthExplanation": "Algo1",
      "dBdt": 0.0},
    "slices": {}
  },
  "time": {
    "samples": {
      "AcquisitionNumber": [1, 2, 3, 4, 5, 6, 7, 8, 9, 10, 11, 12, 13, 14, 15, 16, 17, 18, 19, 20, 21, 22, 23, 24, 25, 26, 27, 28, 29, 30, 31, 32, 33, 34, 35, 36, 37, 38, 39, 40, 41, 42, 43, 44, 45, 46, 47, 48, 49, 50, 51, 52, 53, 54, 55, 56, 57, 58, 59, 60, 61, 62, 63, 64, 65, 66, 67, 68, 69, 70, 71, 72, 73, 74, 75, 76, 77, 78, 79, 80, 81, 82, 83, 84, 85, 86, 87, 88, 89, 90, 91, 92, 93, 94, 95, 96, 97, 98, 99, 100, 101, 102, 103, 104, 105, 106, 107, 108, 109, 110, 111, 112, 113, 114, 115, 116, 117, 118, 119, 120, 121, 122, 123, 124, 125, 126, 127, 128, 129, 130, 131, 132, 133, 134, 135, 136, 137, 138, 139, 140, 141, 142, 143, 144, 145, 146, 147, 148, 149, 150, 151, 152, 153, 154, 155, 156, 157, 158, 159, 160, 161, 162, 163, 164, 165, 166, 167, 168, 169, 170, 171, 172, 173, 174, 175, 176, 177, 178, 179, 180, 181, 182, 183, 184, 185, 186, 187, 188, 189, 190, 191, 192, 193, 194, 195, 196, 197, 198, 199, 200, 201, 202, 203, 204, 205, 206, 207, 208, 209, 210, 211, 212, 213, 214, 215, 216, 217, 218, 219, 220, 221, 222, 223, 224, 225, 226, 227, 228, 229, 230, 231, 232, 233, 234, 235, 236, 237, 238, 239, 240, 241, 242, 243, 244, 245, 246, 247, 248, 249, 250, 251, 252, 253, 254, 255, 256, 257, 258, 259, 260, 261, 262, 263, 264, 265, 266, 267, 268, 269, 270, 271, 272, 273, 274, 275, 276, 277, 278, 279, 280, 281, 282, 283, 284, 285, 286, 287, 288, 289, 290, 291, 292, 293, 294, 295, 296, 297, 298, 299, 300, 301, 302, 303, 304, 305, 306, 307, 308, 309, 310, 311, 312, 313, 314, 315, 316, 317, 318, 319, 320, 321, 322, 323, 324, 325, 326, 327, 328, 329, 330, 331, 332, 333, 334, 335, 336, 337, 338, 339, 340, 341, 342, 343, 344, 345, 346, 347, 348, 349, 350, 351, 352, 353, 354, 355, 356, 357, 358, 359, 360, 361, 362, 363, 364, 365, 366, 367, 368, 369, 370, 371, 372, 373, 374, 375, 376, 377, 378, 379, 380, 381, 382, 383, 384, 385, 386, 387, 388, 389, 390, 391, 392, 393, 394, 395, 396, 397, 398, 399, 400, 401, 402, 403, 404, 405, 406, 407, 408, 409, 410, 411, 412, 413, 414, 415, 416, 417, 418, 419, 420, 421, 422, 423, 424, 425, 426, 427, 428, 429, 430, 431, 432, 433, 434, 435, 436, 437, 438, 439, 440, 441, 442, 443, 444, 445, 446, 447, 448, 449, 450, 451, 452, 453, 454, 455, 456, 457, 458, 459, 460, 461],
      "AcquisitionTime": ["182746.410000", "182747.900000", "182749.390000", "182750.880000", "182752.370000", "182753.860000", "182755.350000", "182756.840000", "182758.330000", "182759.820000", "182801.310000", "182802.800000", "182804.290000", "182805.780000", "182807.270000", "182808.760000", "182810.250000", "182811.740000", "182813.230000", "182814.720000", "182816.210000", "182817.700000", "182819.190000", "182820.680000", "182822.170000", "182823.660000", "182825.150000", "182826.640000", "182828.130000", "182829.620000", "182831.110000", "182832.600000", "182834.090000", "182835.580000", "182837.070000", "182838.560000", "182840.050000", "182841.540000", "182843.030000", "182844.520000", "182846.010000", "182847.500000", "182848.990000", "182850.480000", "182851.970000", "182853.460000", "182854.950000", "182856.440000", "182857.930000", "182859.420000", "182900.910000", "182902.400000", "182903.890000", "182905.380000", "182906.870000", "182908.360000", "182909.850000", "182911.340000", "182912.830000", "182914.320000", "182915.810000", "182917.300000", "182918.790000", "182920.280000", "182921.770000", "182923.260000", "182924.750000", "182926.240000", "182927.730000", "182929.220000", "182930.710000", "182932.200000", "182933.690000", "182935.180000", "182936.670000", "182938.160000", "182939.650000", "182941.140000", "182942.630000", "182944.120000", "182945.610000", "182947.100000", "182948.590000", "182950.080000", "182951.570000", "182953.060000", "182954.550000", "182956.040000", "182957.530000", "182959.020000", "183000.510000", "183002.000000", "183003.490000", "183004.980000", "183006.470000", "183007.960000", "183009.450000", "183010.940000", "183012.430000", "183013.920000", "183015.410000", "183016.900000", "183018.390000", "183019.880000", "183021.370000", "183022.860000", "183024.350000", "183025.840000", "183027.330000", "183028.820000", "183030.310000", "183031.800000", "183033.290000", "183034.780000", "183036.270000", "183037.760000", "183039.250000", "183040.740000", "183042.230000", "183043.720000", "183045.210000", "183046.700000", "183048.190000", "183049.680000", "183051.170000", "183052.660000", "183054.150000", "183055.640000", "183057.130000", "183058.620000", "183100.110000", "183101.600000", "183103.090000", "183104.580000", "183106.070000", "183107.560000", "183109.050000", "183110.540000", "183112.030000", "183113.520000", "183115.010000", "183116.500000", "183117.990000", "183119.480000", "183120.970000", "183122.460000", "183123.950000", "183125.440000", "183126.930000", "183128.420000", "183129.910000", "183131.400000", "183132.890000", "183134.380000", "183135.870000", "183137.360000", "183138.850000", "183140.340000", "183141.830000", "183143.320000", "183144.810000", "183146.300000", "183147.790000", "183149.280000", "183150.770000", "183152.260000", "183153.750000", "183155.240000", "183156.730000", "183158.220000", "183159.710000", "183201.200000", "183202.690000", "183204.180000", "183205.670000", "183207.160000", "183208.650000", "183210.140000", "183211.630000", "183213.120000", "183214.610000", "183216.100000", "183217.590000", "183219.080000", "183220.570000", "183222.060000", "183223.550000", "183225.040000", "183226.530000", "183228.020000", "183229.510000", "183231.000000", "183232.490000", "183233.980000", "183235.470000", "183236.960000", "183238.450000", "183239.940000", "183241.430000", "183242.920000", "183244.410000", "183245.900000", "183247.390000", "183248.880000", "183250.370000", "183251.860000", "183253.350000", "183254.840000", "183256.330000", "183257.820000", "183259.310000", "183300.800000", "183302.290000", "183303.780000", "183305.270000", "183306.760000", "183308.250000", "183309.740000", "183311.230000", "183312.720000", "183314.210000", "183315.700000", "183317.190000", "183318.680000", "183320.170000", "183321.660000", "183323.150000", "183324.640000", "183326.130000", "183327.620000", "183329.110000", "183330.600000", "183332.090000", "183333.580000", "183335.070000", "183336.560000", "183338.050000", "183339.540000", "183341.030000", "183342.520000", "183344.010000", "183345.500000", "183346.990000", "183348.480000", "183349.970000", "183351.460000", "183352.950000", "183354.440000", "183355.930000", "183357.420000", "183358.910000", "183400.400000", "183401.890000", "183403.380000", "183404.870000", "183406.360000", "183407.850000", "183409.340000", "183410.830000", "183412.320000", "183413.810000", "183415.300000", "183416.790000", "183418.280000", "183419.770000", "183421.260000", "183422.750000", "183424.240000", "183425.730000", "183427.220000", "183428.710000", "183430.200000", "183431.690000", "183433.180000", "183434.670000", "183436.160000", "183437.650000", "183439.140000", "183440.630000", "183442.120000", "183443.610000", "183445.100000", "183446.590000", "183448.080000", "183449.570000", "183451.060000", "183452.550000", "183454.040000", "183455.530000", "183457.020000", "183458.510000", "183500.000000", "183501.490000", "183502.980000", "183504.470000", "183505.960000", "183507.450000", "183508.940000", "183510.430000", "183511.920000", "183513.410000", "183514.900000", "183516.390000", "183517.880000", "183519.370000", "183520.860000", "183522.350000", "183523.840000", "183525.330000", "183526.820000", "183528.310000", "183529.800000", "183531.290000", "183532.780000", "183534.270000", "183535.760000", "183537.250000", "183538.740000", "183540.230000", "183541.720000", "183543.210000", "183544.700000", "183546.190000", "183547.680000", "183549.170000", "183550.660000", "183552.150000", "183553.640000", "183555.130000", "183556.620000", "183558.110000", "183559.600000", "183601.090000", "183602.580000", "183604.070000", "183605.560000", "183607.050000", "183608.540000", "183610.030000", "183611.520000", "183613.010000", "183614.500000", "183615.990000", "183617.480000", "183618.970000", "183620.460000", "183621.950000", "183623.440000", "183624.930000", "183626.420000", "183627.910000", "183629.400000", "183630.890000", "183632.380000", "183633.870000", "183635.360000", "183636.850000", "183638.340000", "183639.830000", "183641.320000", "183642.810000", "183644.300000", "183645.790000", "183647.280000", "183648.770000", "183650.260000", "183651.750000", "183653.240000", "183654.730000", "183656.220000", "183657.710000", "183659.200000", "183700.690000", "183702.180000", "183703.670000", "183705.160000", "183706.650000", "183708.140000", "183709.630000", "183711.120000", "183712.610000", "183714.100000", "183715.590000", "183717.080000", "183718.570000", "183720.060000", "183721.550000", "183723.040000", "183724.530000", "183726.020000", "183727.510000", "183729.000000", "183730.490000", "183731.980000", "183733.470000", "183734.960000", "183736.450000", "183737.940000", "183739.430000", "183740.920000", "183742.410000", "183743.900000", "183745.390000", "183746.880000", "183748.370000", "183749.860000", "183751.350000", "183752.840000", "183754.330000", "183755.820000", "183757.310000", "183758.800000", "183800.290000", "183801.780000", "183803.270000", "183804.760000", "183806.250000", "183807.740000", "183809.230000", "183810.720000", "183812.210000", "183813.700000", "183815.190000", "183816.680000", "183818.170000", "183819.660000", "183821.150000", "183822.640000", "183824.130000", "183825.620000", "183827.110000", "183828.600000", "183830.090000", "183831.580000", "183833.070000", "183834.560000", "183836.050000", "183837.540000", "183839.030000", "183840.520000", "183842.010000", "183843.500000", "183844.990000", "183846.480000", "183847.970000", "183849.460000", "183850.950000", "183852.440000", "183853.930000", "183855.420000", "183856.910000", "183858.400000", "183859.890000", "183901.380000", "183902.870000", "183904.360000", "183905.850000", "183907.340000", "183908.830000", "183910.320000", "183911.810000"],
      "ContentTime": ["182904.937000", "182904.941000", "182904.944000", "182904.947000", "182904.950000", "182904.952000", "182904.956000", "182904.959000", "182904.961000", "182904.964000", "182904.967000", "182904.970000", "182904.973000", "182904.976000", "182904.979000", "182904.982000", "182904.985000", "182904.988000", "182904.991000", "182904.993000", "182905.003000", "182905.006000", "182905.009000", "182905.012000", "182924.903000", "182924.906000", "182924.909000", "182924.912000", "182924.915000", "182924.918000", "182924.921000", "182924.924000", "182924.927000", "182924.930000", "182924.933000", "182924.936000", "182924.938000", "182924.942000", "182924.945000", "182924.947000", "182924.958000", "182924.961000", "182924.964000", "182924.966000", "182944.904000", "182944.907000", "182944.910000", "182944.913000", "182944.916000", "182944.919000", "182944.922000", "182944.925000", "182944.928000", "182944.931000", "182944.934000", "182944.936000", "182944.939000", "182944.943000", "182944.946000", "182944.948000", "182944.951000", "182944.954000", "182944.957000", "182944.960000", "183004.904000", "183004.907000", "183004.910000", "183004.913000", "183004.916000", "183004.918000", "183004.921000", "183004.924000", "183004.927000", "183004.930000", "183004.933000", "183004.936000", "183004.939000", "183004.942000", "183004.945000", "183004.947000", "183004.950000", "183004.953000", "183004.956000", "183004.959000", "183004.962000", "183024.903000", "183024.906000", "183024.909000", "183024.912000", "183024.915000", "183024.917000", "183024.920000", "183024.923000", "183024.926000", "183024.929000", "183024.932000", "183024.935000", "183024.938000", "183024.941000", "183024.944000", "183024.946000", "183024.949000", "183024.952000", "183024.955000", "183024.958000", "183104.903000", "183104.906000", "183104.909000", "183104.912000", "183104.915000", "183104.918000", "183104.921000", "183104.924000", "183104.927000", "183104.930000", "183104.933000", "183104.936000", "183104.939000", "183104.942000", "183104.961000", "183104.963000", "183104.967000", "183104.969000", "183104.972000", "183104.975000", "183104.978000", "183104.981000", "183104.984000", "183104.987000", "183104.990000", "183104.993000", "183104.996000", "183144.903000", "183144.906000", "183144.909000", "183144.912000", "183144.915000", "183144.918000", "183144.921000", "183144.924000", "183144.927000", "183144.930000", "183144.933000", "183144.936000", "183144.939000", "183144.942000", "183144.945000", "183144.948000", "183144.951000", "183144.954000", "183144.957000", "183144.960000", "183144.963000", "183144.966000", "183144.968000", "183144.971000", "183144.974000", "183144.977000", "183144.980000", "183204.904000", "183204.907000", "183204.910000", "183204.913000", "183204.916000", "183204.919000", "183204.922000", "183204.925000", "183204.928000", "183204.930000", "183204.933000", "183204.936000", "183204.939000", "183244.903000", "183244.906000", "183244.909000", "183244.912000", "183244.915000", "183244.918000", "183244.921000", "183244.924000", "183244.927000", "183244.930000", "183244.933000", "183244.936000", "183244.939000", "183244.942000", "183244.945000", "183244.948000", "183244.951000", "183244.953000", "183244.956000", "183244.959000", "183244.972000", "183244.975000", "183244.978000", "183244.981000", "183244.984000", "183244.987000", "183244.990000", "183324.903000", "183324.906000", "183324.909000", "183324.912000", "183324.915000", "183324.918000", "183324.921000", "183324.932000", "183324.935000", "183324.938000", "183324.941000", "183324.944000", "183324.947000", "183324.950000", "183324.953000", "183324.956000", "183324.959000", "183324.961000", "183324.964000", "183324.968000", "183324.971000", "183324.973000", "183324.976000", "183324.979000", "183324.982000", "183324.985000", "183324.988000", "183404.903000", "183404.906000", "183404.909000", "183404.912000", "183404.915000", "183404.918000", "183404.921000", "183404.924000", "183404.927000", "183404.930000", "183404.933000", "183404.936000", "183404.939000", "183404.942000", "183404.945000", "183404.948000", "183404.951000", "183404.954000", "183404.957000", "183404.960000", "183404.963000", "183404.966000", "183404.969000", "183404.972000", "183404.975000", "183404.978000", "183404.981000", "183444.904000", "183444.907000", "183444.910000", "183444.913000", "183444.916000", "183444.919000", "183444.922000", "183444.925000", "183444.927000", "183444.930000", "183444.933000", "183444.936000", "183444.939000", "183444.942000", "183444.945000", "183444.948000", "183444.951000", "183444.954000", "183444.957000", "183444.960000", "183444.963000", "183444.966000", "183444.969000", "183444.971000", "183444.974000", "183444.977000", "183444.980000", "183524.903000", "183524.906000", "183524.909000", "183524.912000", "183524.922000", "183524.925000", "183524.927000", "183524.930000", "183524.933000", "183524.936000", "183524.939000", "183524.942000", "183524.945000", "183524.948000", "183524.951000", "183524.954000", "183524.957000", "183524.960000", "183524.963000", "183524.966000", "183524.968000", "183524.971000", "183524.974000", "183524.977000", "183524.980000", "183524.983000", "183524.986000", "183604.903000", "183604.923000", "183604.926000", "183604.929000", "183604.950000", "183604.953000", "183604.956000", "183604.959000", "183604.962000", "183604.965000", "183604.968000", "183604.971000", "183604.973000", "183604.976000", "183604.979000", "183604.982000", "183604.985000", "183604.988000", "183604.991000", "183604.994000", "183604.997000", "183605.001000", "183605.004000", "183605.007000", "183605.010000", "183605.012000", "183644.904000", "183644.907000", "183644.910000", "183644.913000", "183644.916000", "183644.919000", "183644.922000", "183644.925000", "183644.927000", "183644.930000", "183644.933000", "183644.936000", "183644.939000", "183644.942000", "183644.945000", "183644.948000", "183644.951000", "183644.954000", "183644.957000", "183644.960000", "183644.963000", "183644.965000", "183644.968000", "183644.971000", "183644.974000", "183644.977000", "183644.980000", "183724.903000", "183724.906000", "183724.909000", "183724.912000", "183724.915000", "183724.918000", "183724.921000", "183724.924000", "183724.927000", "183724.930000", "183724.933000", "183724.936000", "183724.939000", "183724.942000", "183724.945000", "183724.948000", "183724.950000", "183724.953000", "183724.956000", "183724.959000", "183724.962000", "183724.965000", "183724.968000", "183724.971000", "183724.974000", "183724.977000", "183724.980000", "183804.903000", "183804.906000", "183804.909000", "183804.912000", "183804.915000", "183804.918000", "183804.921000", "183804.933000", "183804.936000", "183804.939000", "183804.942000", "183804.945000", "183804.948000", "183804.951000", "183804.953000", "183804.957000", "183804.959000", "183804.962000", "183804.965000", "183804.968000", "183804.971000", "183804.974000", "183804.977000", "183804.980000", "183804.983000", "183804.986000", "183804.989000", "183844.903000", "183844.906000", "183844.909000", "183844.912000", "183844.915000", "183844.918000", "183844.921000", "183844.924000", "183844.927000", "183844.930000", "183844.933000", "183844.936000", "183844.939000", "183844.942000", "183844.945000", "183844.948000", "183844.951000", "183844.954000", "183844.957000", "183844.960000", "183844.963000", "183844.966000", "183844.969000", "183844.972000", "183844.975000", "183844.978000", "183844.981000", "183914.255000", "183914.258000", "183914.261000", "183914.264000", "183914.267000", "183914.270000", "183914.273000", "183914.276000", "183914.279000", "183914.282000", "183914.285000", "183914.288000", "183914.290000", "183914.294000", "183914.297000", "183914.300000", "183914.303000", "183914.306000", "183914.309000", "183914.312000"],
