{
  "AcquisitionMatrixPE": 104,
  "AcquisitionNumber": 1,
  "AcquisitionTime": "18:00:54.700000",
  "BandwidthPerPixelPhaseEncode": 17.17,
  "BaseResolution": 104,
  "BodyPartExamined": "BRAIN",
  "CoilCombinationMethod": "Sum of Squares",
  "ConsistencyInfo": "N4_VE11C_LATEST_20160120",
  "ConversionSoftware": "dcm2niix",
  "ConversionSoftwareVersion": "v1.0.20220505",
  "DerivedVendorReportedEchoSpacing": 0.000560011,
  "DeviceSerialNumber": "167006",
  "DwellTime": 2.1e-06,
  "EchoTime": 0.037,
  "EchoTrainLength": 104,
  "EffectiveEchoSpacing": 0.000560011,
  "FlipAngle": 52,
  "HeudiconvVersion": "0.5.3.post811+g6206e14",
  "ImageComments": "Unaliased MB4/PE3/LB",
  "ImageOrientationPatientDICOM": [0.998273, 0.0501521, 0.0305927, -0.0345116, 0.922079, -0.38546],
  "ImageOrientationText": "Tra>Cor(-22.6)>Sag(2.7)",
  "ImageType": [
    "ORIGINAL",
    "PRIMARY",
    "M",
    "MB",
    "ND",
    "MOSAIC"
],
  "ImagingFrequency": 123.259,
  "InPlanePhaseEncodingDirectionDICOM": "COL",
  "InstitutionAddress": "Chemin Queen-Mary 4565,Montreal,District,CA,H3W 1W5",
  "InstitutionName": "IUGM",
  "InstitutionalDepartmentName": "Department",
  "MRAcquisitionType": "2D",
  "MagneticFieldStrength": 3,
  "Manufacturer": "Siemens",
  "ManufacturersModelName": "Prisma_fit",
  "MatrixCoilMode": "SENSE",
  "Modality": "MR",
  "MultibandAccelerationFactor": 4,
  "PartialFourier": 1,
  "PatientPosition": "HFS",
  "PercentPhaseFOV": 100,
  "PercentSampling": 100,
  "PhaseEncodingDirection": "j",
  "PhaseEncodingSteps": 104,
  "PhaseResolution": 1,
  "PixelBandwidth": 2290,
  "ProcedureStepDescription": "video^friends",
  "ProtocolName": "func_task-friends-s06e13a",
  "PulseSequenceDetails": "%CustomerSeq%\\cmrr_mbep2d_bold",
  "ReceiveCoilActiveElements": "HC1-7;NC1,2",
  "ReceiveCoilName": "HeadNeck_64",
  "ReconMatrixPE": 104,
  "RepetitionTime": 1.49,
  "SAR": 0.0699995,
  "ScanOptions": "FS",
  "ScanningSequence": "EP",
  "SequenceName": "epfid2d1_104",
  "SequenceVariant": "SK\\SS",
  "SeriesDescription": "func_task-friends-s06e13a",
  "SeriesNumber": 10,
  "ShimSetting": [629, -7194, -8836, 657, 97, -48, -68, -14],
  "SliceThickness": 2,
  "SliceTiming": [0, 0.7825, 0.0975, 0.88, 0.195, 0.98, 0.2925, 1.0775, 0.39, 1.175, 0.49, 1.2725, 0.5875, 1.37, 0.685, 0, 0.7825, 0.0975, 0.88, 0.195, 0.98, 0.2925, 1.0775, 0.39, 1.175, 0.49, 1.2725, 0.5875, 1.37, 0.685, 0, 0.7825, 0.0975, 0.88, 0.195, 0.98, 0.2925, 1.0775, 0.39, 1.175, 0.49, 1.2725, 0.5875, 1.37, 0.685, 0, 0.7825, 0.0975, 0.88, 0.195, 0.98, 0.2925, 1.0775, 0.39, 1.175, 0.49, 1.2725, 0.5875, 1.37, 0.685],
  "SoftwareVersions": "syngo MR E11",
  "SpacingBetweenSlices": 2,
  "StationName": "MRC35049",
  "TaskName": "s06e13a",
  "TotalReadoutTime": 0.0576811,
  "TxRefAmp": 324.966,
  "WipMemBlock": "3fe86d97-8cd3-4cd7-865a-b57788f2808b||Sequence: R016 ve11c/master r/e634e98; Dec 19 2017 11:00:25 by eja",
  "dcmmeta_affine": [
    [-1.9965459108352661, -0.06902312487363815, 0.09508106857538223, 104.5175552368164],
    [-0.10030428320169449, 1.8441576957702637, -0.7674774527549744, -62.38411331176758],
    [0.06118538975715637, 0.77092045545578, 1.844434380531311, -74.97280883789062],
    [0.0, 0.0, 0.0, 1.0]
],
  "dcmmeta_reorient_transform": [
    [0.0, -1.0, 0.0, 103.0],
    [1.0, 0.0, 0.0, 0.0],
    [0.0, 0.0, 1.0, 0.0],
    [0.0, 0.0, 0.0, 1.0]
],
  "dcmmeta_shape": [104, 104, 60, 470],
  "dcmmeta_slice_dim": 2,
  "dcmmeta_version": 0.6,
  "global": {
    "const": {
      "AcquisitionMatrix": [104, 0, 0, 104],
      "AngioFlag": "N",
      "BitsAllocated": 16,
      "BitsStored": 16,
      "BodyPartExamined": "BRAIN",
      "Columns": 832,
      "EchoNumbers": 1,
      "EchoTime": 37.0,
      "EchoTrainLength": 104,
      "FlipAngle": 52.0,
      "HighBit": 15,
      "ImageOrientationPatient": [0.99827293354666, 0.05015214019494, 0.03059269491249, -0.0345115628669, 0.92207882469591, -0.3854602354016],
      "ImagePositionPatient": [-799.02644805359, -835.34826545032, 262.7755695964],
      "ImageType": [
        "ORIGINAL",
        "PRIMARY",
        "M",
        "MB",
        "ND",
        "MOSAIC"
],
      "ImagedNucleus": "1H",
      "ImagingFrequency": 123.258816,
      "InPlanePhaseEncodingDirection": "COL",
      "MRAcquisitionType": "2D",
      "MagneticFieldStrength": 3.0,
      "Manufacturer": "SIEMENS",
      "ManufacturerModelName": "Prisma_fit",
      "Modality": "MR",
      "NumberOfAverages": 1.0,
      "NumberOfPhaseEncodingSteps": 104,
      "PercentPhaseFieldOfView": 100.0,
      "PercentSampling": 100.0,
      "PerformedProcedureStepStartTime": "173054.473000",
      "PhotometricInterpretation": "MONOCHROME2",
      "PixelBandwidth": 2290.0,
      "PixelRepresentation": 0,
      "PixelSpacing": [2.0, 2.0],
      "ProtocolName": "func_task-friends-s06e13a",
      "RepetitionTime": 1490.0,
      "Rows": 832,
      "SAR": 0.06999952417062,
      "SamplesPerPixel": 1,
      "ScanOptions": "FS",
      "ScanningSequence": "EP",
      "SequenceName": "epfid2d1_104",
      "SequenceVariant": [
        "SK",
        "SS"
],
      "SeriesDescription": "func_task-friends-s06e13a",
      "SeriesNumber": 10,
      "SeriesTime": "180207.857000",
      "SliceLocation": -40.2331902589,
      "SliceThickness": 2.0,
      "SmallestImagePixelValue": 0,
      "SoftwareVersions": "syngo MR E11",
      "SpacingBetweenSlices": 2.000000048306,
      "SpecificCharacterSet": "ISO_IR 100",
      "StudyID": "1",
      "StudyTime": "173054.409000",
      "TransmitCoilName": "Body",
      "VariableFlipAngleFlag": "N",
      "WindowCenterWidthExplanation": "Algo1",
      "dBdt": 0.0},
    "slices": {}
  },
  "time": {
    "samples": {
      "AcquisitionNumber": [1, 2, 3, 4, 5, 6, 7, 8, 9, 10, 11, 12, 13, 14, 15, 16, 17, 18, 19, 20, 21, 22, 23, 24, 25, 26, 27, 28, 29, 30, 31, 32, 33, 34, 35, 36, 37, 38, 39, 40, 41, 42, 43, 44, 45, 46, 47, 48, 49, 50, 51, 52, 53, 54, 55, 56, 57, 58, 59, 60, 61, 62, 63, 64, 65, 66, 67, 68, 69, 70, 71, 72, 73, 74, 75, 76, 77, 78, 79, 80, 81, 82, 83, 84, 85, 86, 87, 88, 89, 90, 91, 92, 93, 94, 95, 96, 97, 98, 99, 100, 101, 102, 103, 104, 105, 106, 107, 108, 109, 110, 111, 112, 113, 114, 115, 116, 117, 118, 119, 120, 121, 122, 123, 124, 125, 126, 127, 128, 129, 130, 131, 132, 133, 134, 135, 136, 137, 138, 139, 140, 141, 142, 143, 144, 145, 146, 147, 148, 149, 150, 151, 152, 153, 154, 155, 156, 157, 158, 159, 160, 161, 162, 163, 164, 165, 166, 167, 168, 169, 170, 171, 172, 173, 174, 175, 176, 177, 178, 179, 180, 181, 182, 183, 184, 185, 186, 187, 188, 189, 190, 191, 192, 193, 194, 195, 196, 197, 198, 199, 200, 201, 202, 203, 204, 205, 206, 207, 208, 209, 210, 211, 212, 213, 214, 215, 216, 217, 218, 219, 220, 221, 222, 223, 224, 225, 226, 227, 228, 229, 230, 231, 232, 233, 234, 235, 236, 237, 238, 239, 240, 241, 242, 243, 244, 245, 246, 247, 248, 249, 250, 251, 252, 253, 254, 255, 256, 257, 258, 259, 260, 261, 262, 263, 264, 265, 266, 267, 268, 269, 270, 271, 272, 273, 274, 275, 276, 277, 278, 279, 280, 281, 282, 283, 284, 285, 286, 287, 288, 289, 290, 291, 292, 293, 294, 295, 296, 297, 298, 299, 300, 301, 302, 303, 304, 305, 306, 307, 308, 309, 310, 311, 312, 313, 314, 315, 316, 317, 318, 319, 320, 321, 322, 323, 324, 325, 326, 327, 328, 329, 330, 331, 332, 333, 334, 335, 336, 337, 338, 339, 340, 341, 342, 343, 344, 345, 346, 347, 348, 349, 350, 351, 352, 353, 354, 355, 356, 357, 358, 359, 360, 361, 362, 363, 364, 365, 366, 367, 368, 369, 370, 371, 372, 373, 374, 375, 376, 377, 378, 379, 380, 381, 382, 383, 384, 385, 386, 387, 388, 389, 390, 391, 392, 393, 394, 395, 396, 397, 398, 399, 400, 401, 402, 403, 404, 405, 406, 407, 408, 409, 410, 411, 412, 413, 414, 415, 416, 417, 418, 419, 420, 421, 422, 423, 424, 425, 426, 427, 428, 429, 430, 431, 432, 433, 434, 435, 436, 437, 438, 439, 440, 441, 442, 443, 444, 445, 446, 447, 448, 449, 450, 451, 452, 453, 454, 455, 456, 457, 458, 459, 460, 461, 462, 463, 464, 465, 466, 467, 468, 469, 470],
      "AcquisitionTime": ["180054.700000", "180056.190000", "180057.680000", "180059.170000", "180100.660000", "180102.150000", "180103.640000", "180105.130000", "180106.620000", "180108.110000", "180109.600000", "180111.090000", "180112.580000", "180114.070000", "180115.560000", "180117.050000", "180118.540000", "180120.030000", "180121.520000", "180123.010000", "180124.500000", "180125.990000", "180127.480000", "180128.970000", "180130.460000", "180131.950000", "180133.440000", "180134.930000", "180136.420000", "180137.910000", "180139.400000", "180140.890000", "180142.380000", "180143.870000", "180145.360000", "180146.850000", "180148.340000", "180149.830000", "180151.320000", "180152.810000", "180154.300000", "180155.790000", "180157.280000", "180158.770000", "180200.260000", "180201.750000", "180203.240000", "180204.730000", "180206.220000", "180207.710000", "180209.200000", "180210.690000", "180212.180000", "180213.670000", "180215.160000", "180216.650000", "180218.140000", "180219.630000", "180221.120000", "180222.610000", "180224.100000", "180225.590000", "180227.080000", "180228.570000", "180230.060000", "180231.550000", "180233.040000", "180234.530000", "180236.020000", "180237.510000", "180239.000000", "180240.490000", "180241.980000", "180243.470000", "180244.960000", "180246.450000", "180247.940000", "180249.430000", "180250.920000", "180252.410000", "180253.900000", "180255.390000", "180256.880000", "180258.370000", "180259.860000", "180301.350000", "180302.840000", "180304.330000", "180305.820000", "180307.310000", "180308.800000", "180310.290000", "180311.780000", "180313.270000", "180314.760000", "180316.250000", "180317.740000", "180319.230000", "180320.720000", "180322.210000", "180323.700000", "180325.190000", "180326.680000", "180328.170000", "180329.660000", "180331.150000", "180332.640000", "180334.130000", "180335.620000", "180337.110000", "180338.600000", "180340.090000", "180341.580000", "180343.070000", "180344.560000", "180346.050000", "180347.540000", "180349.030000", "180350.520000", "180352.010000", "180353.500000", "180354.990000", "180356.480000", "180357.970000", "180359.460000", "180400.950000", "180402.440000", "180403.930000", "180405.420000", "180406.910000", "180408.400000", "180409.890000", "180411.380000", "180412.870000", "180414.360000", "180415.850000", "180417.340000", "180418.830000", "180420.320000", "180421.810000", "180423.300000", "180424.790000", "180426.280000", "180427.770000", "180429.260000", "180430.750000", "180432.240000", "180433.730000", "180435.220000", "180436.710000", "180438.200000", "180439.690000", "180441.180000", "180442.670000", "180444.160000", "180445.650000", "180447.140000", "180448.630000", "180450.120000", "180451.610000", "180453.100000", "180454.590000", "180456.080000", "180457.570000", "180459.060000", "180500.550000", "180502.040000", "180503.530000", "180505.020000", "180506.510000", "180508.000000", "180509.490000", "180510.980000", "180512.470000", "180513.960000", "180515.450000", "180516.940000", "180518.430000", "180519.920000", "180521.410000", "180522.900000", "180524.390000", "180525.880000", "180527.370000", "180528.860000", "180530.350000", "180531.840000", "180533.330000", "180534.820000", "180536.310000", "180537.800000", "180539.290000", "180540.780000", "180542.270000", "180543.760000", "180545.250000", "180546.740000", "180548.230000", "180549.720000", "180551.210000", "180552.700000", "180554.190000", "180555.680000", "180557.170000", "180558.660000", "180600.150000", "180601.640000", "180603.130000", "180604.620000", "180606.110000", "180607.600000", "180609.090000", "180610.580000", "180612.070000", "180613.560000", "180615.050000", "180616.540000", "180618.030000", "180619.520000", "180621.010000", "180622.500000", "180623.990000", "180625.480000", "180626.970000", "180628.460000", "180629.950000", "180631.440000", "180632.930000", "180634.420000", "180635.910000", "180637.400000", "180638.890000", "180640.380000", "180641.870000", "180643.360000", "180644.850000", "180646.340000", "180647.830000", "180649.320000", "180650.810000", "180652.300000", "180653.790000", "180655.280000", "180656.770000", "180658.260000", "180659.750000", "180701.240000", "180702.730000", "180704.220000", "180705.710000", "180707.200000", "180708.690000", "180710.180000", "180711.670000", "180713.160000", "180714.650000", "180716.140000", "180717.630000", "180719.120000", "180720.610000", "180722.100000", "180723.590000", "180725.080000", "180726.570000", "180728.060000", "180729.550000", "180731.040000", "180732.530000", "180734.020000", "180735.510000", "180737.000000", "180738.490000", "180739.980000", "180741.470000", "180742.960000", "180744.450000", "180745.940000", "180747.430000", "180748.920000", "180750.410000", "180751.900000", "180753.390000", "180754.880000", "180756.370000", "180757.860000", "180759.350000", "180800.840000", "180802.330000", "180803.820000", "180805.310000", "180806.800000", "180808.290000", "180809.780000", "180811.270000", "180812.760000", "180814.250000", "180815.740000", "180817.230000", "180818.720000", "180820.210000", "180821.700000", "180823.190000", "180824.680000", "180826.170000", "180827.660000", "180829.150000", "180830.640000", "180832.130000", "180833.620000", "180835.110000", "180836.600000", "180838.090000", "180839.580000", "180841.070000", "180842.560000", "180844.050000", "180845.540000", "180847.030000", "180848.520000", "180850.010000", "180851.500000", "180852.990000", "180854.480000", "180855.970000", "180857.460000", "180858.950000", "180900.440000", "180901.930000", "180903.420000", "180904.910000", "180906.400000", "180907.890000", "180909.380000", "180910.870000", "180912.360000", "180913.850000", "180915.340000", "180916.830000", "180918.320000", "180919.810000", "180921.300000", "180922.790000", "180924.280000", "180925.770000", "180927.260000", "180928.750000", "180930.240000", "180931.730000", "180933.220000", "180934.710000", "180936.200000", "180937.690000", "180939.180000", "180940.670000", "180942.160000", "180943.650000", "180945.140000", "180946.630000", "180948.120000", "180949.610000", "180951.100000", "180952.590000", "180954.080000", "180955.570000", "180957.060000", "180958.550000", "181000.040000", "181001.530000", "181003.020000", "181004.510000", "181006.000000", "181007.490000", "181008.980000", "181010.470000", "181011.960000", "181013.450000", "181014.940000", "181016.430000", "181017.920000", "181019.410000", "181020.900000", "181022.390000", "181023.880000", "181025.370000", "181026.860000", "181028.350000", "181029.840000", "181031.330000", "181032.820000", "181034.310000", "181035.800000", "181037.290000", "181038.780000", "181040.270000", "181041.760000", "181043.250000", "181044.740000", "181046.230000", "181047.720000", "181049.210000", "181050.700000", "181052.190000", "181053.680000", "181055.170000", "181056.660000", "181058.150000", "181059.640000", "181101.130000", "181102.620000", "181104.110000", "181105.600000", "181107.090000", "181108.580000", "181110.070000", "181111.560000", "181113.050000", "181114.540000", "181116.030000", "181117.520000", "181119.010000", "181120.500000", "181121.990000", "181123.480000", "181124.970000", "181126.460000", "181127.950000", "181129.440000", "181130.930000", "181132.420000", "181133.910000", "181135.400000", "181136.890000", "181138.380000", "181139.870000", "181141.360000", "181142.850000", "181144.340000", "181145.830000", "181147.320000", "181148.810000", "181150.300000", "181151.790000", "181153.280000", "181154.770000", "181156.260000", "181157.750000", "181159.240000", "181200.730000", "181202.220000", "181203.710000", "181205.200000", "181206.690000", "181208.180000", "181209.670000", "181211.160000", "181212.650000", "181214.140000", "181215.630000", "181217.120000", "181218.610000", "181220.100000", "181221.590000", "181223.080000", "181224.570000", "181226.060000", "181227.550000", "181229.040000", "181230.530000", "181232.020000", "181233.510000"],
      "ContentTime": ["180207.861000", "180207.872000", "180207.875000", "180207.878000", "180207.880000", "180207.883000", "180207.886000", "180207.889000", "180207.892000", "180207.895000", "180207.898000", "180207.901000", "180207.904000", "180207.907000", "180207.910000", "180227.817000", "180227.820000", "180227.823000", "180227.826000", "180227.829000", "180227.832000", "180227.834000", "180227.837000", "180227.840000", "180227.853000", "180227.856000", "180227.858000", "180227.861000", "180227.864000", "180227.867000", "180227.870000", "180227.873000", "180227.876000", "180227.879000", "180227.882000", "180307.816000", "180307.819000", "180307.822000", "180307.825000", "180307.828000", "180307.831000", "180307.834000", "180307.837000", "180307.840000", "180307.843000", "180307.845000", "180307.848000", "180307.851000", "180307.854000", "180307.857000", "180307.860000", "180307.863000", "180307.866000", "180307.869000", "180307.872000", "180307.875000", "180307.877000", "180307.880000", "180307.883000", "180307.886000", "180307.889000", "180307.892000", "180307.895000", "180307.898000", "180307.901000", "180307.904000", "180307.907000", "180307.909000", "180307.912000", "180307.915000", "180307.918000", "180307.921000", "180307.924000", "180307.927000", "180307.930000", "180327.816000", "180327.819000", "180327.822000", "180327.825000", "180327.839000", "180327.842000", "180327.845000", "180327.848000", "180327.851000", "180327.853000", "180327.856000", "180327.859000", "180327.862000", "180327.865000", "180327.868000", "180327.871000", "180327.873000", "180327.876000", "180327.879000", "180327.882000", "180347.816000", "180347.819000", "180347.822000", "180347.825000", "180347.828000", "180347.831000", "180347.834000", "180347.837000", "180347.840000", "180347.842000", "180347.845000", "180347.848000", "180347.851000", "180347.854000", "180347.857000", "180347.866000", "180347.869000", "180347.872000", "180347.875000", "180347.878000", "180427.817000", "180427.820000", "180427.823000", "180427.826000", "180427.829000", "180427.832000", "180427.835000", "180427.838000", "180427.841000", "180427.844000", "180427.847000", "180427.849000", "180427.852000", "180427.855000", "180427.858000", "180427.861000", "180427.864000", "180427.867000", "180427.870000", "180427.873000", "180427.876000", "180427.879000", "180427.881000", "180427.884000", "180427.887000", "180427.890000", "180427.893000", "180507.817000", "180507.820000", "180507.823000", "180507.826000", "180507.829000", "180507.832000", "180507.835000", "180507.838000", "180507.841000", "180507.843000", "180507.846000", "180507.849000", "180507.852000", "180507.855000", "180507.858000", "180507.861000", "180507.864000", "180507.867000", "180507.870000", "180507.873000", "180507.875000", "180507.878000", "180507.881000", "180507.884000", "180507.894000", "180507.897000", "180507.900000", "180547.816000", "180547.819000", "180547.822000", "180547.825000", "180547.828000", "180547.831000", "180547.840000", "180547.843000", "180547.846000", "180547.848000", "180547.851000", "180547.854000", "180547.857000", "180547.860000", "180547.863000", "180547.866000", "180547.869000", "180547.872000", "180547.892000", "180547.895000", "180547.898000", "180547.901000", "180547.904000", "180547.907000", "180547.910000", "180547.913000", "180547.916000", "180627.817000", "180627.820000", "180627.823000", "180627.826000", "180627.829000", "180627.832000", "180627.835000", "180627.838000", "180627.841000", "180627.844000", "180627.847000", "180627.850000", "180627.853000", "180627.856000", "180627.858000", "180627.861000", "180627.864000", "180627.867000", "180627.870000", "180627.873000", "180627.876000", "180627.879000", "180627.882000", "180627.884000", "180627.887000", "180627.890000", "180627.893000", "180707.817000", "180707.820000", "180707.823000", "180707.826000", "180707.829000", "180707.832000", "180707.835000", "180707.838000", "180707.841000", "180707.844000", "180707.846000", "180707.849000", "180707.852000", "180707.855000", "180707.858000", "180707.861000", "180707.864000", "180707.867000", "180707.870000", "180707.873000", "180707.876000", "180707.879000", "180707.882000", "180707.884000", "180707.887000", "180707.890000", "180707.893000", "180747.816000", "180747.819000", "180747.822000", "180747.825000", "180747.828000", "180747.831000", "180747.834000", "180747.837000", "180747.840000", "180747.843000", "180747.846000", "180747.849000", "180747.852000", "180747.855000", "180747.858000", "180747.860000", "180747.863000", "180747.866000", "180747.869000", "180747.872000", "180747.875000", "180747.878000", "180747.881000", "180747.884000", "180747.888000", "180747.891000", "180827.817000", "180827.820000", "180827.823000", "180827.826000", "180827.829000", "180827.832000", "180827.835000", "180827.838000", "180827.841000", "180827.844000", "180827.847000", "180827.850000", "180827.853000", "180827.856000", "180827.859000", "180827.862000", "180827.865000", "180827.868000", "180827.871000", "180827.874000", "180827.877000", "180827.879000", "180827.882000", "180827.885000", "180827.888000", "180827.891000", "180827.894000", "180907.817000", "180907.820000", "180907.823000", "180907.826000", "180907.829000", "180907.832000", "180907.835000", "180907.838000", "180907.841000", "180907.844000", "180907.846000", "180907.849000", "180907.852000", "180907.855000", "180907.858000", "180907.861000", "180907.864000", "180907.867000", "180907.870000", "180907.873000", "180907.876000", "180907.878000", "180907.881000", "180907.884000", "180907.887000", "180907.890000", "180907.893000", "180947.817000", "180947.820000", "180947.823000", "180947.826000", "180947.829000", "180947.832000", "180947.835000", "180947.838000", "180947.841000", "180947.843000", "180947.846000", "180947.849000", "180947.852000", "180947.855000", "180947.858000", "180947.861000", "180947.864000", "180947.867000", "180947.870000", "180947.873000", "180947.875000", "180947.878000", "180947.881000", "180947.884000", "180947.887000", "180947.890000", "180947.893000", "181027.816000", "181027.819000", "181027.822000", "181027.825000", "181027.828000", "181027.831000", "181027.834000", "181027.837000", "181027.840000", "181027.843000", "181027.846000", "181027.848000", "181027.851000", "181027.854000", "181027.857000", "181027.860000", "181027.863000", "181027.866000", "181027.869000", "181027.872000", "181027.875000", "181027.878000", "181027.881000", "181027.884000", "181027.886000", "181027.889000", "181027.892000", "181107.817000", "181107.820000", "181107.823000", "181107.826000", "181107.829000", "181107.832000", "181107.835000", "181107.838000", "181107.841000", "181107.844000", "181107.851000", "181107.853000", "181107.856000", "181107.859000", "181107.862000", "181107.865000", "181107.868000", "181107.871000", "181107.874000", "181107.877000", "181107.880000", "181107.883000", "181107.885000", "181107.888000", "181107.891000", "181107.894000", "181107.897000", "181147.817000", "181147.820000", "181147.823000", "181147.826000", "181147.829000", "181147.832000", "181147.835000", "181147.838000", "181147.841000", "181147.844000", "181147.847000", "181147.850000", "181147.853000", "181147.856000", "181147.859000", "181147.862000", "181147.865000", "181147.868000", "181147.871000", "181147.874000", "181147.877000", "181147.880000", "181147.883000", "181147.886000", "181147.889000", "181147.892000", "181207.817000", "181207.820000", "181207.823000", "181207.826000", "181207.829000", "181207.832000", "181207.835000", "181207.838000", "181207.841000", "181207.844000", "181207.847000", "181207.850000", "181207.853000", "181207.855000", "181235.629000", "181235.632000", "181235.635000", "181235.638000", "181235.641000", "181235.644000", "181235.647000", "181235.650000", "181235.653000", "181235.656000", "181235.659000", "181235.662000", "181235.665000", "181235.668000", "181235.671000", "181235.674000", "181235.678000", "181235.681000", "181235.684000"],
