{
  "AcquisitionMatrixPE": 104,
  "AcquisitionNumber": 1,
  "AcquisitionTime": "18:41:20.885000",
  "BandwidthPerPixelPhaseEncode": 17.17,
  "BaseResolution": 104,
  "BodyPartExamined": "BRAIN",
  "CoilCombinationMethod": "Sum of Squares",
  "ConsistencyInfo": "N4_VE11C_LATEST_20160120",
  "ConversionSoftware": "dcm2niix",
  "ConversionSoftwareVersion": "v1.0.20220505",
  "DerivedVendorReportedEchoSpacing": 0.000560011,
  "DeviceSerialNumber": "167006",
  "DwellTime": 2.1e-06,
  "EchoTime": 0.037,
  "EchoTrainLength": 104,
  "EffectiveEchoSpacing": 0.000560011,
  "FlipAngle": 52,
  "HeudiconvVersion": "0.5.3.post811+g6206e14",
  "ImageComments": "Unaliased MB4/PE3/LB",
  "ImageOrientationPatientDICOM": [0.998273, 0.0501521, 0.0305927, -0.0345116, 0.922079, -0.38546],
  "ImageOrientationText": "Tra>Cor(-22.6)>Sag(2.7)",
  "ImageType": [
    "ORIGINAL",
    "PRIMARY",
    "M",
    "MB",
    "ND",
    "MOSAIC"
],
  "ImagingFrequency": 123.259,
  "InPlanePhaseEncodingDirectionDICOM": "COL",
  "InstitutionAddress": "Chemin Queen-Mary 4565,Montreal,District,CA,H3W 1W5",
  "InstitutionName": "IUGM",
  "InstitutionalDepartmentName": "Department",
  "MRAcquisitionType": "2D",
  "MagneticFieldStrength": 3,
  "Manufacturer": "Siemens",
  "ManufacturersModelName": "Prisma_fit",
  "MatrixCoilMode": "SENSE",
  "Modality": "MR",
  "MultibandAccelerationFactor": 4,
  "PartialFourier": 1,
  "PatientPosition": "HFS",
  "PercentPhaseFOV": 100,
  "PercentSampling": 100,
  "PhaseEncodingDirection": "j",
  "PhaseEncodingSteps": 104,
  "PhaseResolution": 1,
  "PixelBandwidth": 2290,
  "ProcedureStepDescription": "video^friends",
  "ProtocolName": "func_task-friends-s06e14b",
  "PulseSequenceDetails": "%CustomerSeq%\\cmrr_mbep2d_bold",
  "ReceiveCoilActiveElements": "HC1-7;NC1,2",
  "ReceiveCoilName": "HeadNeck_64",
  "ReconMatrixPE": 104,
  "RepetitionTime": 1.49,
  "SAR": 0.0700144,
  "ScanOptions": "FS",
  "ScanningSequence": "EP",
  "SequenceName": "epfid2d1_104",
  "SequenceVariant": "SK\\SS",
  "SeriesDescription": "func_task-friends-s06e14b",
  "SeriesNumber": 16,
  "ShimSetting": [629, -7194, -8836, 657, 97, -48, -68, -14],
  "SliceThickness": 2,
  "SliceTiming": [0, 0.785, 0.0975, 0.8825, 0.1975, 0.98, 0.295, 1.0775, 0.3925, 1.1775, 0.49, 1.275, 0.5875, 1.3725, 0.6875, 0, 0.785, 0.0975, 0.8825, 0.1975, 0.98, 0.295, 1.0775, 0.3925, 1.1775, 0.49, 1.275, 0.5875, 1.3725, 0.6875, 0, 0.785, 0.0975, 0.8825, 0.1975, 0.98, 0.295, 1.0775, 0.3925, 1.1775, 0.49, 1.275, 0.5875, 1.3725, 0.6875, 0, 0.785, 0.0975, 0.8825, 0.1975, 0.98, 0.295, 1.0775, 0.3925, 1.1775, 0.49, 1.275, 0.5875, 1.3725, 0.6875],
  "SoftwareVersions": "syngo MR E11",
  "SpacingBetweenSlices": 2,
  "StationName": "MRC35049",
  "TaskName": "s06e14b",
  "TotalReadoutTime": 0.0576811,
  "TxRefAmp": 324.966,
  "WipMemBlock": "ce67624f-8fff-4a5e-afdc-127b8b1c114e||Sequence: R016 ve11c/master r/e634e98; Dec 19 2017 11:00:25 by eja",
  "dcmmeta_affine": [
    [-1.9965459108352661, -0.06902312487363815, 0.09508106857538223, 104.5175552368164],
    [-0.10030428320169449, 1.8441576957702637, -0.7674774527549744, -62.38411331176758],
    [0.06118538975715637, 0.77092045545578, 1.844434380531311, -74.97280883789062],
    [0.0, 0.0, 0.0, 1.0]
],
  "dcmmeta_reorient_transform": [
    [0.0, -1.0, 0.0, 103.0],
    [1.0, 0.0, 0.0, 0.0],
    [0.0, 0.0, 1.0, 0.0],
    [0.0, 0.0, 0.0, 1.0]
],
  "dcmmeta_shape": [104, 104, 60, 495],
  "dcmmeta_slice_dim": 2,
  "dcmmeta_version": 0.6,
  "global": {
    "const": {
      "AcquisitionMatrix": [104, 0, 0, 104],
      "AngioFlag": "N",
      "BitsAllocated": 16,
      "BitsStored": 16,
      "BodyPartExamined": "BRAIN",
      "Columns": 832,
      "EchoNumbers": 1,
      "EchoTime": 37.0,
      "EchoTrainLength": 104,
      "FlipAngle": 52.0,
      "HighBit": 15,
      "ImageOrientationPatient": [0.99827293354666, 0.05015214019494, 0.03059269491249, -0.0345115628669, 0.92207882469591, -0.3854602354016],
      "ImagePositionPatient": [-799.02644805359, -835.34826545032, 262.7755695964],
      "ImageType": [
        "ORIGINAL",
        "PRIMARY",
        "M",
        "MB",
        "ND",
        "MOSAIC"
],
      "ImagedNucleus": "1H",
      "ImagingFrequency": 123.258839,
      "InPlanePhaseEncodingDirection": "COL",
      "MRAcquisitionType": "2D",
      "MagneticFieldStrength": 3.0,
      "Manufacturer": "SIEMENS",
      "ManufacturerModelName": "Prisma_fit",
      "Modality": "MR",
      "NumberOfAverages": 1.0,
      "NumberOfPhaseEncodingSteps": 104,
      "PercentPhaseFieldOfView": 100.0,
      "PercentSampling": 100.0,
      "PerformedProcedureStepStartTime": "173054.473000",
      "PhotometricInterpretation": "MONOCHROME2",
      "PixelBandwidth": 2290.0,
      "PixelRepresentation": 0,
      "PixelSpacing": [2.0, 2.0],
      "ProtocolName": "func_task-friends-s06e14b",
      "RepetitionTime": 1490.0,
      "Rows": 832,
      "SAR": 0.0700144026327,
      "SamplesPerPixel": 1,
      "ScanOptions": "FS",
      "ScanningSequence": "EP",
      "SequenceName": "epfid2d1_104",
      "SequenceVariant": [
        "SK",
        "SS"
],
      "SeriesDescription": "func_task-friends-s06e14b",
      "SeriesNumber": 16,
      "SeriesTime": "184227.858000",
      "SliceLocation": -40.2331902589,
      "SliceThickness": 2.0,
      "SmallestImagePixelValue": 0,
      "SoftwareVersions": "syngo MR E11",
      "SpacingBetweenSlices": 2.000000048306,
      "SpecificCharacterSet": "ISO_IR 100",
      "StudyID": "1",
      "StudyTime": "173054.409000",
      "TransmitCoilName": "Body",
      "VariableFlipAngleFlag": "N",
      "WindowCenterWidthExplanation": "Algo1",
      "dBdt": 0.0},
    "slices": {}
  },
  "time": {
    "samples": {
      "AcquisitionNumber": [1, 2, 3, 4, 5, 6, 7, 8, 9, 10, 11, 12, 13, 14, 15, 16, 17, 18, 19, 20, 21, 22, 23, 24, 25, 26, 27, 28, 29, 30, 31, 32, 33, 34, 35, 36, 37, 38, 39, 40, 41, 42, 43, 44, 45, 46, 47, 48, 49, 50, 51, 52, 53, 54, 55, 56, 57, 58, 59, 60, 61, 62, 63, 64, 65, 66, 67, 68, 69, 70, 71, 72, 73, 74, 75, 76, 77, 78, 79, 80, 81, 82, 83, 84, 85, 86, 87, 88, 89, 90, 91, 92, 93, 94, 95, 96, 97, 98, 99, 100, 101, 102, 103, 104, 105, 106, 107, 108, 109, 110, 111, 112, 113, 114, 115, 116, 117, 118, 119, 120, 121, 122, 123, 124, 125, 126, 127, 128, 129, 130, 131, 132, 133, 134, 135, 136, 137, 138, 139, 140, 141, 142, 143, 144, 145, 146, 147, 148, 149, 150, 151, 152, 153, 154, 155, 156, 157, 158, 159, 160, 161, 162, 163, 164, 165, 166, 167, 168, 169, 170, 171, 172, 173, 174, 175, 176, 177, 178, 179, 180, 181, 182, 183, 184, 185, 186, 187, 188, 189, 190, 191, 192, 193, 194, 195, 196, 197, 198, 199, 200, 201, 202, 203, 204, 205, 206, 207, 208, 209, 210, 211, 212, 213, 214, 215, 216, 217, 218, 219, 220, 221, 222, 223, 224, 225, 226, 227, 228, 229, 230, 231, 232, 233, 234, 235, 236, 237, 238, 239, 240, 241, 242, 243, 244, 245, 246, 247, 248, 249, 250, 251, 252, 253, 254, 255, 256, 257, 258, 259, 260, 261, 262, 263, 264, 265, 266, 267, 268, 269, 270, 271, 272, 273, 274, 275, 276, 277, 278, 279, 280, 281, 282, 283, 284, 285, 286, 287, 288, 289, 290, 291, 292, 293, 294, 295, 296, 297, 298, 299, 300, 301, 302, 303, 304, 305, 306, 307, 308, 309, 310, 311, 312, 313, 314, 315, 316, 317, 318, 319, 320, 321, 322, 323, 324, 325, 326, 327, 328, 329, 330, 331, 332, 333, 334, 335, 336, 337, 338, 339, 340, 341, 342, 343, 344, 345, 346, 347, 348, 349, 350, 351, 352, 353, 354, 355, 356, 357, 358, 359, 360, 361, 362, 363, 364, 365, 366, 367, 368, 369, 370, 371, 372, 373, 374, 375, 376, 377, 378, 379, 380, 381, 382, 383, 384, 385, 386, 387, 388, 389, 390, 391, 392, 393, 394, 395, 396, 397, 398, 399, 400, 401, 402, 403, 404, 405, 406, 407, 408, 409, 410, 411, 412, 413, 414, 415, 416, 417, 418, 419, 420, 421, 422, 423, 424, 425, 426, 427, 428, 429, 430, 431, 432, 433, 434, 435, 436, 437, 438, 439, 440, 441, 442, 443, 444, 445, 446, 447, 448, 449, 450, 451, 452, 453, 454, 455, 456, 457, 458, 459, 460, 461, 462, 463, 464, 465, 466, 467, 468, 469, 470, 471, 472, 473, 474, 475, 476, 477, 478, 479, 480, 481, 482, 483, 484, 485, 486, 487, 488, 489, 490, 491, 492, 493, 494, 495],
      "AcquisitionTime": ["184120.885000", "184122.375000", "184123.865000", "184125.355000", "184126.845000", "184128.335000", "184129.825000", "184131.315000", "184132.805000", "184134.295000", "184135.785000", "184137.275000", "184138.765000", "184140.255000", "184141.745000", "184143.235000", "184144.725000", "184146.215000", "184147.705000", "184149.195000", "184150.685000", "184152.175000", "184153.665000", "184155.155000", "184156.645000", "184158.135000", "184159.625000", "184201.115000", "184202.605000", "184204.095000", "184205.585000", "184207.075000", "184208.565000", "184210.055000", "184211.545000", "184213.035000", "184214.525000", "184216.015000", "184217.505000", "184218.995000", "184220.485000", "184221.975000", "184223.465000", "184224.955000", "184226.445000", "184227.935000", "184229.425000", "184230.915000", "184232.405000", "184233.895000", "184235.385000", "184236.875000", "184238.365000", "184239.855000", "184241.345000", "184242.835000", "184244.325000", "184245.815000", "184247.305000", "184248.795000", "184250.285000", "184251.775000", "184253.265000", "184254.755000", "184256.245000", "184257.735000", "184259.225000", "184300.715000", "184302.205000", "184303.695000", "184305.185000", "184306.675000", "184308.165000", "184309.655000", "184311.145000", "184312.635000", "184314.125000", "184315.615000", "184317.105000", "184318.595000", "184320.085000", "184321.575000", "184323.065000", "184324.555000", "184326.045000", "184327.535000", "184329.025000", "184330.515000", "184332.005000", "184333.495000", "184334.985000", "184336.475000", "184337.965000", "184339.455000", "184340.945000", "184342.435000", "184343.925000", "184345.415000", "184346.905000", "184348.395000", "184349.885000", "184351.375000", "184352.865000", "184354.355000", "184355.845000", "184357.335000", "184358.825000", "184400.315000", "184401.805000", "184403.295000", "184404.785000", "184406.275000", "184407.765000", "184409.255000", "184410.745000", "184412.235000", "184413.725000", "184415.215000", "184416.705000", "184418.195000", "184419.685000", "184421.175000", "184422.665000", "184424.155000", "184425.645000", "184427.135000", "184428.625000", "184430.115000", "184431.605000", "184433.095000", "184434.585000", "184436.075000", "184437.565000", "184439.055000", "184440.545000", "184442.035000", "184443.525000", "184445.015000", "184446.505000", "184447.995000", "184449.485000", "184450.975000", "184452.465000", "184453.955000", "184455.445000", "184456.935000", "184458.425000", "184459.915000", "184501.405000", "184502.895000", "184504.385000", "184505.875000", "184507.365000", "184508.855000", "184510.345000", "184511.835000", "184513.325000", "184514.815000", "184516.305000", "184517.795000", "184519.285000", "184520.775000", "184522.265000", "184523.755000", "184525.245000", "184526.735000", "184528.225000", "184529.715000", "184531.205000", "184532.695000", "184534.185000", "184535.675000", "184537.165000", "184538.655000", "184540.145000", "184541.635000", "184543.125000", "184544.615000", "184546.105000", "184547.595000", "184549.085000", "184550.575000", "184552.065000", "184553.555000", "184555.045000", "184556.535000", "184558.025000", "184559.515000", "184601.005000", "184602.495000", "184603.985000", "184605.475000", "184606.965000", "184608.455000", "184609.945000", "184611.435000", "184612.925000", "184614.415000", "184615.905000", "184617.395000", "184618.885000", "184620.375000", "184621.865000", "184623.355000", "184624.845000", "184626.335000", "184627.825000", "184629.315000", "184630.805000", "184632.295000", "184633.785000", "184635.275000", "184636.765000", "184638.255000", "184639.745000", "184641.235000", "184642.725000", "184644.215000", "184645.705000", "184647.195000", "184648.685000", "184650.175000", "184651.665000", "184653.155000", "184654.645000", "184656.135000", "184657.625000", "184659.115000", "184700.605000", "184702.095000", "184703.585000", "184705.075000", "184706.565000", "184708.055000", "184709.545000", "184711.035000", "184712.525000", "184714.015000", "184715.505000", "184716.995000", "184718.485000", "184719.975000", "184721.465000", "184722.955000", "184724.445000", "184725.935000", "184727.425000", "184728.915000", "184730.405000", "184731.895000", "184733.385000", "184734.875000", "184736.365000", "184737.855000", "184739.345000", "184740.835000", "184742.325000", "184743.815000", "184745.305000", "184746.795000", "184748.285000", "184749.775000", "184751.265000", "184752.755000", "184754.245000", "184755.735000", "184757.225000", "184758.715000", "184800.205000", "184801.695000", "184803.185000", "184804.675000", "184806.165000", "184807.655000", "184809.145000", "184810.635000", "184812.125000", "184813.615000", "184815.105000", "184816.595000", "184818.085000", "184819.575000", "184821.065000", "184822.555000", "184824.045000", "184825.535000", "184827.025000", "184828.515000", "184830.005000", "184831.495000", "184832.985000", "184834.475000", "184835.965000", "184837.455000", "184838.945000", "184840.435000", "184841.925000", "184843.415000", "184844.905000", "184846.395000", "184847.885000", "184849.375000", "184850.865000", "184852.355000", "184853.845000", "184855.335000", "184856.825000", "184858.315000", "184859.805000", "184901.295000", "184902.785000", "184904.275000", "184905.765000", "184907.255000", "184908.745000", "184910.235000", "184911.725000", "184913.215000", "184914.705000", "184916.195000", "184917.685000", "184919.175000", "184920.665000", "184922.155000", "184923.645000", "184925.135000", "184926.625000", "184928.115000", "184929.605000", "184931.095000", "184932.585000", "184934.075000", "184935.565000", "184937.055000", "184938.545000", "184940.035000", "184941.525000", "184943.015000", "184944.505000", "184945.995000", "184947.485000", "184948.975000", "184950.465000", "184951.955000", "184953.445000", "184954.935000", "184956.425000", "184957.915000", "184959.405000", "185000.895000", "185002.385000", "185003.875000", "185005.365000", "185006.855000", "185008.345000", "185009.835000", "185011.325000", "185012.815000", "185014.305000", "185015.795000", "185017.285000", "185018.775000", "185020.265000", "185021.755000", "185023.245000", "185024.735000", "185026.225000", "185027.715000", "185029.205000", "185030.695000", "185032.185000", "185033.675000", "185035.165000", "185036.655000", "185038.145000", "185039.635000", "185041.125000", "185042.615000", "185044.105000", "185045.595000", "185047.085000", "185048.575000", "185050.065000", "185051.555000", "185053.045000", "185054.535000", "185056.025000", "185057.515000", "185059.005000", "185100.495000", "185101.985000", "185103.475000", "185104.965000", "185106.455000", "185107.945000", "185109.435000", "185110.925000", "185112.415000", "185113.905000", "185115.395000", "185116.885000", "185118.375000", "185119.865000", "185121.355000", "185122.845000", "185124.335000", "185125.825000", "185127.315000", "185128.805000", "185130.295000", "185131.785000", "185133.275000", "185134.765000", "185136.255000", "185137.745000", "185139.235000", "185140.725000", "185142.215000", "185143.705000", "185145.195000", "185146.685000", "185148.175000", "185149.665000", "185151.155000", "185152.645000", "185154.135000", "185155.625000", "185157.115000", "185158.605000", "185200.095000", "185201.585000", "185203.075000", "185204.565000", "185206.055000", "185207.545000", "185209.035000", "185210.525000", "185212.015000", "185213.505000", "185214.995000", "185216.485000", "185217.975000", "185219.465000", "185220.955000", "185222.445000", "185223.935000", "185225.425000", "185226.915000", "185228.405000", "185229.895000", "185231.385000", "185232.875000", "185234.365000", "185235.855000", "185237.345000", "185238.835000", "185240.325000", "185241.815000", "185243.305000", "185244.795000", "185246.285000", "185247.775000", "185249.265000", "185250.755000", "185252.245000", "185253.735000", "185255.225000", "185256.715000", "185258.205000", "185259.695000", "185301.185000", "185302.675000", "185304.165000", "185305.655000", "185307.145000", "185308.635000", "185310.125000", "185311.615000", "185313.105000", "185314.595000", "185316.085000", "185317.575000", "185319.065000", "185320.555000", "185322.045000", "185323.535000", "185325.025000", "185326.515000", "185328.005000", "185329.495000", "185330.985000", "185332.475000", "185333.965000", "185335.455000", "185336.945000"],
      "ContentTime": ["184227.861000", "184227.864000", "184227.867000", "184227.870000", "184227.873000", "184227.876000", "184227.879000", "184227.882000", "184227.884000", "184247.816000", "184247.819000", "184247.822000", "184247.841000", "184247.844000", "184247.846000", "184247.849000", "184247.852000", "184247.855000", "184247.858000", "184247.861000", "184247.864000", "184247.867000", "184247.869000", "184247.872000", "184247.875000", "184247.878000", "184247.881000", "184247.884000", "184247.887000", "184307.816000", "184307.819000", "184307.822000", "184307.825000", "184307.828000", "184307.831000", "184307.834000", "184307.837000", "184307.840000", "184307.843000", "184307.846000", "184307.848000", "184307.851000", "184307.854000", "184307.857000", "184307.860000", "184307.863000", "184307.866000", "184307.869000", "184307.871000", "184307.874000", "184327.817000", "184327.820000", "184327.823000", "184327.826000", "184327.829000", "184327.832000", "184327.835000", "184327.838000", "184327.840000", "184327.846000", "184327.849000", "184327.852000", "184327.855000", "184327.858000", "184327.861000", "184327.864000", "184327.867000", "184327.870000", "184327.872000", "184327.875000", "184347.817000", "184347.820000", "184347.823000", "184347.826000", "184347.829000", "184347.832000", "184347.835000", "184347.838000", "184347.840000", "184347.843000", "184347.846000", "184347.849000", "184347.852000", "184347.855000", "184347.858000", "184347.861000", "184347.864000", "184347.867000", "184347.870000", "184347.873000", "184407.817000", "184407.820000", "184407.823000", "184407.826000", "184407.829000", "184407.832000", "184407.835000", "184407.838000", "184407.841000", "184407.844000", "184407.847000", "184407.850000", "184407.861000", "184407.863000", "184407.866000", "184407.869000", "184407.872000", "184407.875000", "184407.878000", "184407.881000", "184447.816000", "184447.819000", "184447.822000", "184447.825000", "184447.828000", "184447.831000", "184447.834000", "184447.837000", "184447.840000", "184447.843000", "184447.846000", "184447.849000", "184447.852000", "184447.855000", "184447.858000", "184447.860000", "184447.863000", "184447.866000", "184447.879000", "184447.882000", "184447.885000", "184447.888000", "184447.891000", "184447.894000", "184447.897000", "184447.900000", "184447.908000", "184447.911000", "184527.816000", "184527.819000", "184527.822000", "184527.825000", "184527.828000", "184527.831000", "184527.834000", "184527.837000", "184527.840000", "184527.842000", "184527.845000", "184527.848000", "184527.851000", "184527.854000", "184527.857000", "184527.860000", "184527.863000", "184527.866000", "184527.869000", "184527.872000", "184527.875000", "184527.877000", "184527.880000", "184527.883000", "184527.895000", "184527.898000", "184527.901000", "184607.817000", "184607.820000", "184607.823000", "184607.826000", "184607.829000", "184607.832000", "184607.835000", "184607.838000", "184607.841000", "184607.844000", "184607.847000", "184607.850000", "184607.853000", "184607.856000", "184607.858000", "184607.861000", "184607.864000", "184607.867000", "184607.870000", "184607.873000", "184607.876000", "184607.879000", "184607.882000", "184607.885000", "184607.888000", "184607.891000", "184607.894000", "184647.817000", "184647.820000", "184647.823000", "184647.826000", "184647.829000", "184647.832000", "184647.835000", "184647.838000", "184647.841000", "184647.844000", "184647.847000", "184647.853000", "184647.856000", "184647.859000", "184647.862000", "184647.865000", "184647.868000", "184647.871000", "184647.874000", "184647.877000", "184647.880000", "184647.883000", "184647.886000", "184647.889000", "184647.892000", "184647.895000", "184647.898000", "184727.816000", "184727.819000", "184727.822000", "184727.825000", "184727.828000", "184727.831000", "184727.834000", "184727.837000", "184727.840000", "184727.843000", "184727.846000", "184727.849000", "184727.852000", "184727.855000", "184727.858000", "184727.861000", "184727.864000", "184727.867000", "184727.870000", "184727.873000", "184727.875000", "184727.879000", "184727.882000", "184727.884000", "184727.887000", "184727.890000", "184807.817000", "184807.820000", "184807.823000", "184807.826000", "184807.829000", "184807.832000", "184807.835000", "184807.838000", "184807.841000", "184807.844000", "184807.847000", "184807.850000", "184807.853000", "184807.856000", "184807.859000", "184807.862000", "184807.865000", "184807.868000", "184807.870000", "184807.873000", "184807.876000", "184807.879000", "184807.882000", "184807.885000", "184807.888000", "184807.891000", "184807.894000", "184847.817000", "184847.820000", "184847.823000", "184847.826000", "184847.829000", "184847.832000", "184847.835000", "184847.838000", "184847.841000", "184847.844000", "184847.847000", "184847.850000", "184847.853000", "184847.856000", "184847.859000", "184847.862000", "184847.865000", "184847.868000", "184847.871000", "184847.874000", "184847.877000", "184847.880000", "184847.883000", "184847.886000", "184847.889000", "184847.892000", "184847.895000", "184927.816000", "184927.819000", "184927.822000", "184927.825000", "184927.828000", "184927.831000", "184927.834000", "184927.837000", "184927.840000", "184927.843000", "184927.845000", "184927.848000", "184927.851000", "184927.854000", "184927.857000", "184927.860000", "184927.863000", "184927.866000", "184927.869000", "184927.872000", "184927.874000", "184927.877000", "184927.880000", "184927.883000", "184927.886000", "184927.889000", "184927.900000", "185007.817000", "185007.820000", "185007.823000", "185007.826000", "185007.829000", "185007.832000", "185007.835000", "185007.838000", "185007.841000", "185007.844000", "185007.847000", "185007.850000", "185007.853000", "185007.856000", "185007.859000", "185007.862000", "185007.865000", "185007.868000", "185007.870000", "185007.873000", "185007.876000", "185007.879000", "185007.882000", "185007.885000", "185007.888000", "185007.891000", "185007.894000", "185047.817000", "185047.820000", "185047.823000", "185047.826000", "185047.829000", "185047.832000", "185047.835000", "185047.838000", "185047.841000", "185047.844000", "185047.847000", "185047.850000", "185047.853000", "185047.855000", "185047.858000", "185047.861000", "185047.864000", "185047.867000", "185047.870000", "185047.873000", "185047.876000", "185047.879000", "185047.882000", "185047.885000", "185047.888000", "185047.891000", "185047.894000", "185127.817000", "185127.820000", "185127.823000", "185127.826000", "185127.829000", "185127.832000", "185127.835000", "185127.838000", "185127.841000", "185127.844000", "185127.847000", "185127.850000", "185127.853000", "185127.856000", "185127.859000", "185127.862000", "185127.865000", "185127.868000", "185127.871000", "185127.874000", "185127.876000", "185127.879000", "185127.883000", "185127.885000", "185127.888000", "185127.891000", "185127.894000", "185207.816000", "185207.819000", "185207.822000", "185207.825000", "185207.828000", "185207.831000", "185207.834000", "185207.837000", "185207.840000", "185207.843000", "185207.846000", "185207.848000", "185207.851000", "185207.854000", "185207.857000", "185207.860000", "185207.863000", "185207.866000", "185207.869000", "185207.872000", "185207.875000", "185207.878000", "185207.881000", "185207.884000", "185207.887000", "185207.890000", "185247.817000", "185247.820000", "185247.823000", "185247.826000", "185247.829000", "185247.832000", "185247.835000", "185247.838000", "185247.841000", "185247.844000", "185247.847000", "185247.849000", "185247.852000", "185247.855000", "185247.858000", "185247.861000", "185247.864000", "185247.867000", "185247.870000", "185247.873000", "185247.876000", "185247.879000", "185247.882000", "185247.885000", "185247.888000", "185247.891000", "185247.893000", "185327.817000", "185327.820000", "185327.823000", "185327.826000", "185327.829000", "185327.832000", "185327.835000", "185327.838000", "185327.841000", "185327.844000", "185327.847000", "185327.850000", "185327.853000", "185327.856000", "185327.859000", "185327.862000", "185327.864000", "185327.867000", "185327.870000", "185327.873000", "185327.876000", "185327.879000", "185327.882000", "185327.885000", "185327.888000", "185327.891000", "185327.894000", "185338.883000", "185338.886000", "185338.889000", "185338.892000", "185338.895000", "185338.898000", "185338.901000", "185338.904000"],
