{
  "AcquisitionMatrixPE": 104,
  "AcquisitionNumber": 1,
  "AcquisitionTime": "18:27:24.762500",
  "BandwidthPerPixelPhaseEncode": 17.17,
  "BaseResolution": 104,
  "BodyPartExamined": "BRAIN",
  "CoilString": "HC1-7;NC1_2",
  "ConsistencyInfo": "N4_VE11C_LATEST_20160120",
  "ConversionSoftware": "dcm2niix",
  "ConversionSoftwareVersion": "v1.0.20190902",
  "DerivedVendorReportedEchoSpacing": 0.000560011,
  "DeviceSerialNumber": "167006",
  "DwellTime": 2.1e-06,
  "EchoTime": 0.037,
  "EchoTrainLength": 104,
  "EffectiveEchoSpacing": 0.000560011,
  "FlipAngle": 52,
  "ImageComments": "Unaliased_MB4_PE3_LB",
  "ImageOrientationPatientDICOM": [0.999349, -0.0348971, -0.00911286, 0.0282634, 0.914672, -0.403208],
  "ImageType": [
    "ORIGINAL",
    "PRIMARY",
    "M",
    "MB",
    "ND",
    "MOSAIC"
],
  "ImagingFrequency": 123.259,
  "InPlanePhaseEncodingDirectionDICOM": "COL",
  "InstitutionAddress": "Chemin_Queen-Mary_4565_Montreal_District_CA_H3W_1W5",
  "InstitutionName": "IUGM",
  "InstitutionalDepartmentName": "Department",
  "MRAcquisitionType": "2D",
  "MagneticFieldStrength": 3,
  "Manufacturer": "Siemens",
  "ManufacturersModelName": "Prisma_fit",
  "Modality": "MR",
  "MultibandAccelerationFactor": 4,
  "PartialFourier": 1,
  "PatientPosition": "HFS",
  "PercentPhaseFOV": 100,
  "PhaseEncodingDirection": "j",
  "PhaseEncodingSteps": 104,
  "PhaseResolution": 1,
  "PixelBandwidth": 2290,
  "ProcedureStepDescription": "video_friends",
  "ProtocolName": "func_task-friends-s04e02b",
  "PulseSequenceDetails": "%CustomerSeq%_cmrr_mbep2d_bold",
  "ReceiveCoilActiveElements": "HC1-7;NC1,2",
  "ReceiveCoilName": "HeadNeck_64",
  "ReconMatrixPE": 104,
  "RepetitionTime": 1.49,
  "SAR": 0.0433462,
  "ScanOptions": "FS",
  "ScanningSequence": "EP",
  "SequenceName": "epfid2d1_104",
  "SequenceVariant": "SK_SS",
  "SeriesDescription": "func_task-friends-s04e02b",
  "SeriesNumber": 19,
  "ShimSetting": [620, -7289, -8822, 443, 47, -429, 23, 38],
  "SliceThickness": 2,
  "SliceTiming": [0, 0.7825, 0.0975, 0.88, 0.195, 0.98, 0.2925, 1.0775, 0.39, 1.175, 0.49, 1.2725, 0.5875, 1.37, 0.685, 0, 0.7825, 0.0975, 0.88, 0.195, 0.98, 0.2925, 1.0775, 0.39, 1.175, 0.49, 1.2725, 0.5875, 1.37, 0.685, 0, 0.7825, 0.0975, 0.88, 0.195, 0.98, 0.2925, 1.0775, 0.39, 1.175, 0.49, 1.2725, 0.5875, 1.37, 0.685, 0, 0.7825, 0.0975, 0.88, 0.195, 0.98, 0.2925, 1.0775, 0.39, 1.175, 0.49, 1.2725, 0.5875, 1.37, 0.685],
  "SoftwareVersions": "syngo_MR_E11",
  "SpacingBetweenSlices": 2,
  "StationName": "MRC35049",
  "TaskName": "s04e02b",
  "TotalReadoutTime": 0.0576811,
  "TxRefAmp": 253.011,
  "WipMemBlock": "5446956f-1c6a-401a-8fbd-4c734f64d9af||Sequence: R016 ve11c/master r/e634e98; Dec 19 2017 11:00:25 by eja",
  "dcmmeta_affine": [
    [-1.9986987113952637, 0.05652689188718796, -0.04481213539838791, 98.31643676757812],
    [0.06979426741600037, 1.8293440341949463, -0.8053752183914185, -70.26416778564453],
    [-0.01822572574019432, 0.8064150214195251, 1.830126404762268, -59.49321365356445],
    [0.0, 0.0, 0.0, 1.0]
],
  "dcmmeta_reorient_transform": [
    [0.0, -1.0, 0.0, 103.0],
    [1.0, 0.0, 0.0, 0.0],
    [0.0, 0.0, 1.0, 0.0],
    [0.0, 0.0, 0.0, 1.0]
],
  "dcmmeta_shape": [104, 104, 60, 478],
  "dcmmeta_slice_dim": 2,
  "dcmmeta_version": 0.6,
  "global": {
    "const": {
      "AcquisitionMatrix": [104, 0, 0, 104],
      "AngioFlag": "N",
      "BitsAllocated": 16,
      "BitsStored": 16,
      "BodyPartExamined": "BRAIN",
      "Columns": 832,
      "EchoNumbers": 1,
      "EchoTime": 37.0,
      "EchoTrainLength": 104,
      "FlipAngle": 52.0,
      "HighBit": 15,
      "ImageOrientationPatient": [0.99934936126023, -0.0348971329311, -0.0091128624465, 0.02826344512343, 0.9146720034655, -0.4032075194564],
      "ImagePositionPatient": [-852.24083150613, -758.63436869146, 323.73677219021],
      "ImageType": [
        "ORIGINAL",
        "PRIMARY",
        "M",
        "MB",
        "ND",
        "MOSAIC"
],
      "ImagedNucleus": "1H",
      "ImagingFrequency": 123.25894,
      "InPlanePhaseEncodingDirection": "COL",
      "MRAcquisitionType": "2D",
      "MagneticFieldStrength": 3.0,
      "Manufacturer": "SIEMENS",
      "ManufacturerModelName": "Prisma_fit",
      "Modality": "MR",
      "NumberOfAverages": 1.0,
      "NumberOfPhaseEncodingSteps": 104,
      "PercentPhaseFieldOfView": 100.0,
      "PercentSampling": 100.0,
      "PerformedProcedureStepStartTime": "180157.913000",
      "PhotometricInterpretation": "MONOCHROME2",
      "PixelBandwidth": 2290.0,
      "PixelRepresentation": 0,
      "PixelSpacing": [2.0, 2.0],
      "ProtocolName": "func_task-friends-s04e02b",
      "RepetitionTime": 1490.0,
      "Rows": 832,
      "SAR": 0.04334620051191,
      "SamplesPerPixel": 1,
      "ScanOptions": "FS",
      "ScanningSequence": "EP",
      "SequenceName": "epfid2d1_104",
      "SequenceVariant": [
        "SK",
        "SS"
],
      "SeriesDescription": "func_task-friends-s04e02b",
      "SeriesNumber": 19,
      "SeriesTime": "182838.548000",
      "SliceLocation": -28.348424937934,
      "SliceThickness": 2.0,
      "SmallestImagePixelValue": 0,
      "SoftwareVersions": "syngo MR E11",
      "SpacingBetweenSlices": 2.0000000340018,
      "SpecificCharacterSet": "ISO_IR 100",
      "StudyID": "1",
      "StudyTime": "180157.853000",
      "TransmitCoilName": "Body",
      "VariableFlipAngleFlag": "N",
      "WindowCenterWidthExplanation": "Algo1",
      "dBdt": 0.0},
    "slices": {}
  },
  "time": {
    "samples": {
      "AcquisitionNumber": [1, 2, 3, 4, 5, 6, 7, 8, 9, 10, 11, 12, 13, 14, 15, 16, 17, 18, 19, 20, 21, 22, 23, 24, 25, 26, 27, 28, 29, 30, 31, 32, 33, 34, 35, 36, 37, 38, 39, 40, 41, 42, 43, 44, 45, 46, 47, 48, 49, 50, 51, 52, 53, 54, 55, 56, 57, 58, 59, 60, 61, 62, 63, 64, 65, 66, 67, 68, 69, 70, 71, 72, 73, 74, 75, 76, 77, 78, 79, 80, 81, 82, 83, 84, 85, 86, 87, 88, 89, 90, 91, 92, 93, 94, 95, 96, 97, 98, 99, 100, 101, 102, 103, 104, 105, 106, 107, 108, 109, 110, 111, 112, 113, 114, 115, 116, 117, 118, 119, 120, 121, 122, 123, 124, 125, 126, 127, 128, 129, 130, 131, 132, 133, 134, 135, 136, 137, 138, 139, 140, 141, 142, 143, 144, 145, 146, 147, 148, 149, 150, 151, 152, 153, 154, 155, 156, 157, 158, 159, 160, 161, 162, 163, 164, 165, 166, 167, 168, 169, 170, 171, 172, 173, 174, 175, 176, 177, 178, 179, 180, 181, 182, 183, 184, 185, 186, 187, 188, 189, 190, 191, 192, 193, 194, 195, 196, 197, 198, 199, 200, 201, 202, 203, 204, 205, 206, 207, 208, 209, 210, 211, 212, 213, 214, 215, 216, 217, 218, 219, 220, 221, 222, 223, 224, 225, 226, 227, 228, 229, 230, 231, 232, 233, 234, 235, 236, 237, 238, 239, 240, 241, 242, 243, 244, 245, 246, 247, 248, 249, 250, 251, 252, 253, 254, 255, 256, 257, 258, 259, 260, 261, 262, 263, 264, 265, 266, 267, 268, 269, 270, 271, 272, 273, 274, 275, 276, 277, 278, 279, 280, 281, 282, 283, 284, 285, 286, 287, 288, 289, 290, 291, 292, 293, 294, 295, 296, 297, 298, 299, 300, 301, 302, 303, 304, 305, 306, 307, 308, 309, 310, 311, 312, 313, 314, 315, 316, 317, 318, 319, 320, 321, 322, 323, 324, 325, 326, 327, 328, 329, 330, 331, 332, 333, 334, 335, 336, 337, 338, 339, 340, 341, 342, 343, 344, 345, 346, 347, 348, 349, 350, 351, 352, 353, 354, 355, 356, 357, 358, 359, 360, 361, 362, 363, 364, 365, 366, 367, 368, 369, 370, 371, 372, 373, 374, 375, 376, 377, 378, 379, 380, 381, 382, 383, 384, 385, 386, 387, 388, 389, 390, 391, 392, 393, 394, 395, 396, 397, 398, 399, 400, 401, 402, 403, 404, 405, 406, 407, 408, 409, 410, 411, 412, 413, 414, 415, 416, 417, 418, 419, 420, 421, 422, 423, 424, 425, 426, 427, 428, 429, 430, 431, 432, 433, 434, 435, 436, 437, 438, 439, 440, 441, 442, 443, 444, 445, 446, 447, 448, 449, 450, 451, 452, 453, 454, 455, 456, 457, 458, 459, 460, 461, 462, 463, 464, 465, 466, 467, 468, 469, 470, 471, 472, 473, 474, 475, 476, 477, 478],
      "AcquisitionTime": ["182724.762500", "182726.252500", "182727.742500", "182729.232500", "182730.722500", "182732.212500", "182733.702500", "182735.192500", "182736.682500", "182738.172500", "182739.662500", "182741.152500", "182742.642500", "182744.132500", "182745.622500", "182747.112500", "182748.602500", "182750.092500", "182751.582500", "182753.072500", "182754.562500", "182756.052500", "182757.542500", "182759.032500", "182800.522500", "182802.012500", "182803.502500", "182804.992500", "182806.482500", "182807.972500", "182809.462500", "182810.952500", "182812.442500", "182813.932500", "182815.422500", "182816.912500", "182818.402500", "182819.892500", "182821.382500", "182822.872500", "182824.362500", "182825.852500", "182827.342500", "182828.832500", "182830.322500", "182831.812500", "182833.302500", "182834.792500", "182836.282500", "182837.772500", "182839.262500", "182840.752500", "182842.242500", "182843.732500", "182845.222500", "182846.712500", "182848.202500", "182849.692500", "182851.182500", "182852.672500", "182854.162500", "182855.652500", "182857.142500", "182858.632500", "182900.122500", "182901.612500", "182903.102500", "182904.592500", "182906.082500", "182907.572500", "182909.062500", "182910.552500", "182912.042500", "182913.532500", "182915.022500", "182916.512500", "182918.002500", "182919.492500", "182920.982500", "182922.472500", "182923.962500", "182925.452500", "182926.942500", "182928.432500", "182929.922500", "182931.412500", "182932.902500", "182934.392500", "182935.882500", "182937.372500", "182938.862500", "182940.352500", "182941.842500", "182943.332500", "182944.822500", "182946.312500", "182947.802500", "182949.292500", "182950.782500", "182952.272500", "182953.762500", "182955.252500", "182956.742500", "182958.232500", "182959.722500", "183001.212500", "183002.702500", "183004.192500", "183005.682500", "183007.172500", "183008.662500", "183010.152500", "183011.642500", "183013.132500", "183014.622500", "183016.112500", "183017.602500", "183019.092500", "183020.582500", "183022.072500", "183023.562500", "183025.052500", "183026.542500", "183028.032500", "183029.522500", "183031.012500", "183032.502500", "183033.992500", "183035.482500", "183036.972500", "183038.462500", "183039.952500", "183041.442500", "183042.932500", "183044.422500", "183045.912500", "183047.402500", "183048.892500", "183050.382500", "183051.872500", "183053.362500", "183054.852500", "183056.342500", "183057.832500", "183059.322500", "183100.812500", "183102.302500", "183103.792500", "183105.282500", "183106.772500", "183108.262500", "183109.752500", "183111.242500", "183112.732500", "183114.222500", "183115.712500", "183117.202500", "183118.692500", "183120.182500", "183121.672500", "183123.162500", "183124.652500", "183126.142500", "183127.632500", "183129.122500", "183130.612500", "183132.102500", "183133.592500", "183135.082500", "183136.572500", "183138.062500", "183139.552500", "183141.042500", "183142.532500", "183144.022500", "183145.512500", "183147.002500", "183148.492500", "183149.982500", "183151.472500", "183152.962500", "183154.452500", "183155.942500", "183157.432500", "183158.922500", "183200.412500", "183201.902500", "183203.392500", "183204.882500", "183206.372500", "183207.862500", "183209.352500", "183210.842500", "183212.332500", "183213.822500", "183215.312500", "183216.802500", "183218.292500", "183219.782500", "183221.272500", "183222.762500", "183224.252500", "183225.742500", "183227.232500", "183228.722500", "183230.212500", "183231.702500", "183233.192500", "183234.682500", "183236.172500", "183237.662500", "183239.152500", "183240.642500", "183242.132500", "183243.622500", "183245.112500", "183246.602500", "183248.092500", "183249.582500", "183251.072500", "183252.562500", "183254.052500", "183255.542500", "183257.032500", "183258.522500", "183300.012500", "183301.502500", "183302.992500", "183304.482500", "183305.972500", "183307.462500", "183308.952500", "183310.442500", "183311.932500", "183313.422500", "183314.912500", "183316.402500", "183317.892500", "183319.382500", "183320.872500", "183322.362500", "183323.852500", "183325.342500", "183326.832500", "183328.322500", "183329.812500", "183331.302500", "183332.792500", "183334.282500", "183335.772500", "183337.262500", "183338.752500", "183340.242500", "183341.732500", "183343.222500", "183344.712500", "183346.202500", "183347.692500", "183349.182500", "183350.672500", "183352.162500", "183353.652500", "183355.142500", "183356.632500", "183358.122500", "183359.612500", "183401.102500", "183402.592500", "183404.082500", "183405.572500", "183407.062500", "183408.552500", "183410.042500", "183411.532500", "183413.022500", "183414.512500", "183416.002500", "183417.492500", "183418.982500", "183420.472500", "183421.962500", "183423.452500", "183424.942500", "183426.432500", "183427.922500", "183429.412500", "183430.902500", "183432.392500", "183433.882500", "183435.372500", "183436.862500", "183438.352500", "183439.842500", "183441.332500", "183442.822500", "183444.312500", "183445.802500", "183447.292500", "183448.782500", "183450.272500", "183451.762500", "183453.252500", "183454.742500", "183456.232500", "183457.722500", "183459.212500", "183500.702500", "183502.192500", "183503.682500", "183505.172500", "183506.662500", "183508.152500", "183509.642500", "183511.132500", "183512.622500", "183514.112500", "183515.602500", "183517.092500", "183518.582500", "183520.072500", "183521.562500", "183523.052500", "183524.542500", "183526.032500", "183527.522500", "183529.012500", "183530.502500", "183531.992500", "183533.482500", "183534.972500", "183536.462500", "183537.952500", "183539.442500", "183540.932500", "183542.422500", "183543.912500", "183545.402500", "183546.892500", "183548.382500", "183549.872500", "183551.362500", "183552.852500", "183554.342500", "183555.832500", "183557.322500", "183558.812500", "183600.302500", "183601.792500", "183603.282500", "183604.772500", "183606.262500", "183607.752500", "183609.242500", "183610.732500", "183612.222500", "183613.712500", "183615.202500", "183616.692500", "183618.182500", "183619.672500", "183621.162500", "183622.652500", "183624.142500", "183625.632500", "183627.122500", "183628.612500", "183630.102500", "183631.592500", "183633.082500", "183634.572500", "183636.062500", "183637.552500", "183639.042500", "183640.532500", "183642.022500", "183643.512500", "183645.002500", "183646.492500", "183647.982500", "183649.472500", "183650.962500", "183652.452500", "183653.942500", "183655.432500", "183656.922500", "183658.412500", "183659.902500", "183701.392500", "183702.882500", "183704.372500", "183705.862500", "183707.352500", "183708.842500", "183710.332500", "183711.822500", "183713.312500", "183714.802500", "183716.292500", "183717.782500", "183719.272500", "183720.762500", "183722.252500", "183723.742500", "183725.232500", "183726.722500", "183728.212500", "183729.702500", "183731.192500", "183732.682500", "183734.172500", "183735.662500", "183737.152500", "183738.642500", "183740.132500", "183741.622500", "183743.112500", "183744.602500", "183746.092500", "183747.582500", "183749.072500", "183750.562500", "183752.052500", "183753.542500", "183755.032500", "183756.522500", "183758.012500", "183759.502500", "183800.992500", "183802.482500", "183803.972500", "183805.462500", "183806.952500", "183808.442500", "183809.932500", "183811.422500", "183812.912500", "183814.402500", "183815.892500", "183817.382500", "183818.872500", "183820.362500", "183821.852500", "183823.342500", "183824.832500", "183826.322500", "183827.812500", "183829.302500", "183830.792500", "183832.282500", "183833.772500", "183835.262500", "183836.752500", "183838.242500", "183839.732500", "183841.222500", "183842.712500", "183844.202500", "183845.692500", "183847.182500", "183848.672500", "183850.162500", "183851.652500", "183853.142500", "183854.632500", "183856.122500", "183857.612500", "183859.102500", "183900.592500", "183902.082500", "183903.572500", "183905.062500", "183906.552500", "183908.042500", "183909.532500", "183911.022500", "183912.512500", "183914.002500", "183915.492500"],
      "ContentTime": ["182838.551000", "182838.554000", "182838.557000", "182838.560000", "182838.563000", "182838.566000", "182838.569000", "182838.582000", "182838.585000", "182838.588000", "182838.591000", "182838.594000", "182838.597000", "182838.600000", "182838.603000", "182838.606000", "182838.608000", "182838.611000", "182838.614000", "182838.617000", "182858.517000", "182858.520000", "182858.523000", "182858.526000", "182858.529000", "182858.532000", "182858.534000", "182858.537000", "182858.540000", "182858.543000", "182858.546000", "182858.549000", "182858.552000", "182858.555000", "182858.558000", "182858.561000", "182858.563000", "182858.566000", "182858.569000", "182858.572000", "182918.516000", "182918.519000", "182918.522000", "182918.525000", "182918.535000", "182918.537000", "182918.540000", "182918.543000", "182918.546000", "182918.549000", "182918.552000", "182918.555000", "182918.557000", "182918.560000", "182918.563000", "182918.566000", "182918.569000", "182918.572000", "182918.575000", "182918.578000", "182918.581000", "182938.516000", "182938.519000", "182938.522000", "182938.525000", "182938.528000", "182938.531000", "182938.534000", "182938.536000", "182938.539000", "182938.542000", "182938.545000", "182938.548000", "182938.551000", "182938.554000", "182938.557000", "182938.560000", "182938.562000", "182938.565000", "182938.568000", "182938.571000", "182958.517000", "182958.520000", "182958.523000", "182958.526000", "182958.529000", "182958.531000", "182958.534000", "182958.537000", "182958.540000", "182958.543000", "182958.546000", "182958.549000", "182958.552000", "182958.555000", "182958.558000", "182958.560000", "182958.563000", "182958.566000", "182958.569000", "182958.572000", "183038.517000", "183038.520000", "183038.523000", "183038.526000", "183038.529000", "183038.532000", "183038.534000", "183038.537000", "183038.541000", "183038.544000", "183038.546000", "183038.549000", "183038.552000", "183038.555000", "183038.558000", "183038.561000", "183038.564000", "183038.567000", "183038.570000", "183038.573000", "183038.576000", "183038.579000", "183038.581000", "183038.584000", "183038.587000", "183038.590000", "183038.593000", "183038.596000", "183118.517000", "183118.520000", "183118.523000", "183118.526000", "183118.529000", "183118.532000", "183118.535000", "183118.538000", "183118.541000", "183118.543000", "183118.546000", "183118.549000", "183118.552000", "183118.555000", "183118.558000", "183118.561000", "183118.564000", "183118.567000", "183118.570000", "183118.573000", "183118.576000", "183118.578000", "183118.581000", "183118.584000", "183118.587000", "183118.590000", "183118.593000", "183158.516000", "183158.519000", "183158.522000", "183158.525000", "183158.528000", "183158.531000", "183158.534000", "183158.537000", "183158.540000", "183158.543000", "183158.545000", "183158.548000", "183158.551000", "183158.554000", "183158.557000", "183158.560000", "183158.563000", "183158.585000", "183158.588000", "183158.591000", "183158.594000", "183158.597000", "183158.600000", "183158.603000", "183158.605000", "183158.608000", "183158.611000", "183238.517000", "183238.520000", "183238.523000", "183238.526000", "183238.529000", "183238.532000", "183238.535000", "183238.538000", "183238.540000", "183238.543000", "183238.546000", "183238.549000", "183238.552000", "183238.555000", "183238.558000", "183238.561000", "183238.564000", "183238.567000", "183238.570000", "183238.573000", "183238.575000", "183238.578000", "183238.581000", "183238.584000", "183238.587000", "183238.590000", "183238.593000", "183318.517000", "183318.520000", "183318.523000", "183318.526000", "183318.529000", "183318.532000", "183318.535000", "183318.538000", "183318.540000", "183318.543000", "183318.546000", "183318.549000", "183318.552000", "183318.555000", "183318.558000", "183318.561000", "183318.563000", "183318.566000", "183318.569000", "183318.572000", "183318.575000", "183318.578000", "183318.581000", "183318.584000", "183318.587000", "183318.590000", "183318.593000", "183358.516000", "183358.519000", "183358.522000", "183358.525000", "183358.528000", "183358.531000", "183358.534000", "183358.537000", "183358.546000", "183358.549000", "183358.552000", "183358.554000", "183358.557000", "183358.560000", "183358.563000", "183358.566000", "183358.569000", "183358.572000", "183358.575000", "183358.578000", "183358.581000", "183358.584000", "183358.587000", "183358.589000", "183358.592000", "183358.595000", "183358.598000", "183438.517000", "183438.520000", "183438.523000", "183438.526000", "183438.529000", "183438.532000", "183438.535000", "183438.538000", "183438.541000", "183438.543000", "183438.546000", "183438.549000", "183438.552000", "183438.555000", "183438.558000", "183438.561000", "183438.564000", "183438.567000", "183438.570000", "183438.573000", "183438.576000", "183438.579000", "183438.581000", "183438.584000", "183438.587000", "183438.590000", "183438.593000", "183518.517000", "183518.520000", "183518.523000", "183518.526000", "183518.529000", "183518.532000", "183518.535000", "183518.538000", "183518.540000", "183518.543000", "183518.546000", "183518.549000", "183518.552000", "183518.555000", "183518.558000", "183518.561000", "183518.564000", "183518.567000", "183518.570000", "183518.573000", "183518.576000", "183518.579000", "183518.581000", "183518.584000", "183518.587000", "183518.590000", "183558.517000", "183558.520000", "183558.523000", "183558.526000", "183558.529000", "183558.532000", "183558.535000", "183558.538000", "183558.541000", "183558.543000", "183558.546000", "183558.549000", "183558.552000", "183558.555000", "183558.558000", "183558.561000", "183558.564000", "183558.567000", "183558.570000", "183558.573000", "183558.576000", "183558.578000", "183558.581000", "183558.584000", "183558.587000", "183558.590000", "183558.593000", "183638.516000", "183638.519000", "183638.522000", "183638.525000", "183638.528000", "183638.531000", "183638.534000", "183638.537000", "183638.540000", "183638.543000", "183638.546000", "183638.548000", "183638.551000", "183638.554000", "183638.557000", "183638.560000", "183638.563000", "183638.566000", "183638.569000", "183638.572000", "183638.575000", "183638.578000", "183638.581000", "183638.584000", "183638.587000", "183638.590000", "183638.592000", "183718.517000", "183718.520000", "183718.523000", "183718.526000", "183718.529000", "183718.532000", "183718.535000", "183718.538000", "183718.540000", "183718.543000", "183718.546000", "183718.549000", "183718.552000", "183718.555000", "183718.558000", "183718.561000", "183718.564000", "183718.567000", "183718.570000", "183718.573000", "183718.575000", "183718.578000", "183718.581000", "183718.584000", "183718.587000", "183718.590000", "183718.593000", "183758.517000", "183758.520000", "183758.523000", "183758.526000", "183758.529000", "183758.532000", "183758.535000", "183758.538000", "183758.541000", "183758.544000", "183758.546000", "183758.549000", "183758.552000", "183758.555000", "183758.558000", "183758.561000", "183758.564000", "183758.567000", "183758.570000", "183758.573000", "183758.576000", "183758.579000", "183758.582000", "183758.584000", "183758.587000", "183758.590000", "183758.593000", "183838.516000", "183838.519000", "183838.522000", "183838.525000", "183838.528000", "183838.531000", "183838.534000", "183838.537000", "183838.540000", "183838.543000", "183838.546000", "183838.548000", "183838.551000", "183838.554000", "183838.557000", "183838.560000", "183838.563000", "183838.566000", "183838.569000", "183838.572000", "183838.575000", "183838.577000", "183838.580000", "183838.583000", "183838.586000", "183838.589000", "183838.592000", "183917.187000", "183917.190000", "183917.193000", "183917.196000", "183917.199000", "183917.202000", "183917.205000", "183917.208000", "183917.211000", "183917.214000", "183917.217000", "183917.220000", "183917.223000", "183917.226000", "183917.229000", "183917.232000", "183917.235000", "183917.238000", "183917.241000", "183917.244000", "183917.247000", "183917.250000", "183917.253000", "183917.256000", "183917.259000", "183917.262000"],
