{
  "AcquisitionMatrixPE": 104,
  "AcquisitionNumber": 1,
  "AcquisitionTime": "15:17:13.175000",
  "BandwidthPerPixelPhaseEncode": 17.17,
  "BaseResolution": 104,
  "BodyPartExamined": "BRAIN",
  "CoilString": "HC1-7;NC1_2",
  "ConsistencyInfo": "N4_VE11C_LATEST_20160120",
  "ConversionSoftware": "dcm2niix",
  "ConversionSoftwareVersion": "v1.0.20190720  (JP2:OpenJPEG) GCC7.3.0",
  "DerivedVendorReportedEchoSpacing": 0.000560011,
  "DeviceSerialNumber": "167006",
  "DwellTime": 2.1e-06,
  "EchoTime": 0.037,
  "EchoTrainLength": 104,
  "EffectiveEchoSpacing": 0.000560011,
  "FlipAngle": 52,
  "ImageComments": "Unaliased_MB4_PE3_LB",
  "ImageOrientationPatientDICOM": [0.997778, -0.0652902, 0.0133042, 0.0653978, 0.921328, -0.383247],
  "ImageType": [
    "ORIGINAL",
    "PRIMARY",
    "M",
    "MB",
    "ND",
    "MOSAIC"
],
  "ImagingFrequency": 123.259,
  "InPlanePhaseEncodingDirectionDICOM": "COL",
  "InstitutionAddress": "Chemin_Queen-Mary_4565_Montreal_District_CA_H3W_1W5",
  "InstitutionName": "IUGM",
  "InstitutionalDepartmentName": "Department",
  "MRAcquisitionType": "2D",
  "MagneticFieldStrength": 3,
  "Manufacturer": "Siemens",
  "ManufacturersModelName": "Prisma_fit",
  "Modality": "MR",
  "MultibandAccelerationFactor": 4,
  "PartialFourier": 1,
  "PatientPosition": "HFS",
  "PercentPhaseFOV": 100,
  "PhaseEncodingDirection": "j",
  "PhaseEncodingSteps": 104,
  "PhaseResolution": 1,
  "PixelBandwidth": 2290,
  "ProcedureStepDescription": "video_friends",
  "ProtocolName": "func_task-s02e09b",
  "PulseSequenceDetails": "%CustomerSeq%_cmrr_mbep2d_bold",
  "ReceiveCoilActiveElements": "HC1-7;NC1,2",
  "ReceiveCoilName": "HeadNeck_64",
  "ReconMatrixPE": 104,
  "RepetitionTime": 1.49,
  "SAR": 0.0277444,
  "ScanOptions": "FS",
  "ScanningSequence": "EP",
  "SequenceName": "epfid2d1_104",
  "SequenceVariant": "SK_SS",
  "SeriesDescription": "func_task-s02e09b",
  "SeriesNumber": 29,
  "ShimSetting": [643, -7264, -8834, 562, 39, -249, -82, -14],
  "SliceThickness": 2,
  "SliceTiming": [0, 0.785, 0.0975, 0.8825, 0.195, 0.98, 0.295, 1.0775, 0.3925, 1.175, 0.49, 1.275, 0.5875, 1.3725, 0.685, 0, 0.785, 0.0975, 0.8825, 0.195, 0.98, 0.295, 1.0775, 0.3925, 1.175, 0.49, 1.275, 0.5875, 1.3725, 0.685, 0, 0.785, 0.0975, 0.8825, 0.195, 0.98, 0.295, 1.0775, 0.3925, 1.175, 0.49, 1.275, 0.5875, 1.3725, 0.685, 0, 0.785, 0.0975, 0.8825, 0.195, 0.98, 0.295, 1.0775, 0.3925, 1.175, 0.49, 1.275, 0.5875, 1.3725, 0.685],
  "SoftwareVersions": "syngo_MR_E11",
  "SpacingBetweenSlices": 2,
  "StationName": "MRC35049",
  "TaskName": "friends",
  "TotalReadoutTime": 0.0576811,
  "TxRefAmp": 219.951,
  "WipMemBlock": "5f47a667-4f89-4fd4-b7ca-98bee0aeccdd||Sequence: R016 ve11c/master r/e634e98; Dec 19 2017 11:00:25 by eja",
  "dcmmeta_affine": [
    [-1.9955552816390991, 0.13079559803009033, -0.025529570877552032, 95.7130126953125],
    [0.13058041036128998, 1.8426554203033447, -0.7665309309959412, -76.72988891601562],
    [0.026608329266309738, 0.7664942145347595, 1.8471001386642456, -69.96002197265625],
    [0.0, 0.0, 0.0, 1.0]
],
  "dcmmeta_reorient_transform": [
    [0.0, -1.0, 0.0, 103.0],
    [1.0, 0.0, 0.0, 0.0],
    [0.0, 0.0, 1.0, 0.0],
    [0.0, 0.0, 0.0, 1.0]
],
  "dcmmeta_shape": [104, 104, 60, 452],
  "dcmmeta_slice_dim": 2,
  "dcmmeta_version": 0.6,
  "global": {
    "const": {
      "AcquisitionMatrix": [104, 0, 0, 104],
      "AngioFlag": "N",
      "BitsAllocated": 16,
      "BitsStored": 16,
      "BodyPartExamined": "BRAIN",
      "Columns": 832,
      "EchoNumbers": 1,
      "EchoTime": 37.0,
      "EchoTrainLength": 104,
      "FlipAngle": 52.0,
      "HighBit": 15,
      "ImageOrientationPatient": [0.9977776248263, -0.0652902029402, 0.0133041646117, 0.06539779546057, 0.92132773019434, -0.3832471029556],
      "ImagePositionPatient": [-883.17666275145, -736.25894350062, 278.30733907895],
      "ImageType": [
        "ORIGINAL",
        "PRIMARY",
        "M",
        "MB",
        "ND",
        "MOSAIC"
],
      "ImagedNucleus": "1H",
      "ImagingFrequency": 123.259368,
      "InPlanePhaseEncodingDirection": "COL",
      "MRAcquisitionType": "2D",
      "MagneticFieldStrength": 3.0,
      "Manufacturer": "SIEMENS",
      "ManufacturerModelName": "Prisma_fit",
      "Modality": "MR",
      "NumberOfAverages": 1.0,
      "NumberOfPhaseEncodingSteps": 104,
      "PercentPhaseFieldOfView": 100.0,
      "PercentSampling": 100.0,
      "PerformedProcedureStepStartTime": "125925.462000",
      "PhotometricInterpretation": "MONOCHROME2",
      "PixelBandwidth": 2290.0,
      "PixelRepresentation": 0,
      "PixelSpacing": [2.0, 2.0],
      "ProtocolName": "func_task-s02e09b",
      "RepetitionTime": 1490.0,
      "Rows": 832,
      "SAR": 0.02774436447326,
      "SamplesPerPixel": 1,
      "ScanOptions": "FS",
      "ScanningSequence": "EP",
      "SequenceName": "epfid2d1_104",
      "SequenceVariant": [
        "SK",
        "SS"
],
      "SeriesDescription": "func_task-s02e09b",
      "SeriesNumber": 29,
      "SeriesTime": "151812.527000",
      "SliceLocation": -36.425422455977,
      "SliceThickness": 2.0,
      "SmallestImagePixelValue": 0,
      "SoftwareVersions": "syngo MR E11",
      "SpacingBetweenSlices": 2.0000000359876,
      "SpecificCharacterSet": "ISO_IR 100",
      "StudyID": "1",
      "StudyTime": "125925.368000",
      "TransmitCoilName": "Body",
      "VariableFlipAngleFlag": "N",
      "WindowCenterWidthExplanation": "Algo1",
      "dBdt": 0.0},
    "slices": {}
  },
  "time": {
    "samples": {
      "AcquisitionNumber": [1, 2, 3, 4, 5, 6, 7, 8, 9, 10, 11, 12, 13, 14, 15, 16, 17, 18, 19, 20, 21, 22, 23, 24, 25, 26, 27, 28, 29, 30, 31, 32, 33, 34, 35, 36, 37, 38, 39, 40, 41, 42, 43, 44, 45, 46, 47, 48, 49, 50, 51, 52, 53, 54, 55, 56, 57, 58, 59, 60, 61, 62, 63, 64, 65, 66, 67, 68, 69, 70, 71, 72, 73, 74, 75, 76, 77, 78, 79, 80, 81, 82, 83, 84, 85, 86, 87, 88, 89, 90, 91, 92, 93, 94, 95, 96, 97, 98, 99, 100, 101, 102, 103, 104, 105, 106, 107, 108, 109, 110, 111, 112, 113, 114, 115, 116, 117, 118, 119, 120, 121, 122, 123, 124, 125, 126, 127, 128, 129, 130, 131, 132, 133, 134, 135, 136, 137, 138, 139, 140, 141, 142, 143, 144, 145, 146, 147, 148, 149, 150, 151, 152, 153, 154, 155, 156, 157, 158, 159, 160, 161, 162, 163, 164, 165, 166, 167, 168, 169, 170, 171, 172, 173, 174, 175, 176, 177, 178, 179, 180, 181, 182, 183, 184, 185, 186, 187, 188, 189, 190, 191, 192, 193, 194, 195, 196, 197, 198, 199, 200, 201, 202, 203, 204, 205, 206, 207, 208, 209, 210, 211, 212, 213, 214, 215, 216, 217, 218, 219, 220, 221, 222, 223, 224, 225, 226, 227, 228, 229, 230, 231, 232, 233, 234, 235, 236, 237, 238, 239, 240, 241, 242, 243, 244, 245, 246, 247, 248, 249, 250, 251, 252, 253, 254, 255, 256, 257, 258, 259, 260, 261, 262, 263, 264, 265, 266, 267, 268, 269, 270, 271, 272, 273, 274, 275, 276, 277, 278, 279, 280, 281, 282, 283, 284, 285, 286, 287, 288, 289, 290, 291, 292, 293, 294, 295, 296, 297, 298, 299, 300, 301, 302, 303, 304, 305, 306, 307, 308, 309, 310, 311, 312, 313, 314, 315, 316, 317, 318, 319, 320, 321, 322, 323, 324, 325, 326, 327, 328, 329, 330, 331, 332, 333, 334, 335, 336, 337, 338, 339, 340, 341, 342, 343, 344, 345, 346, 347, 348, 349, 350, 351, 352, 353, 354, 355, 356, 357, 358, 359, 360, 361, 362, 363, 364, 365, 366, 367, 368, 369, 370, 371, 372, 373, 374, 375, 376, 377, 378, 379, 380, 381, 382, 383, 384, 385, 386, 387, 388, 389, 390, 391, 392, 393, 394, 395, 396, 397, 398, 399, 400, 401, 402, 403, 404, 405, 406, 407, 408, 409, 410, 411, 412, 413, 414, 415, 416, 417, 418, 419, 420, 421, 422, 423, 424, 425, 426, 427, 428, 429, 430, 431, 432, 433, 434, 435, 436, 437, 438, 439, 440, 441, 442, 443, 444, 445, 446, 447, 448, 449, 450, 451, 452],
      "AcquisitionTime": ["151713.175000", "151714.665000", "151716.155000", "151717.645000", "151719.135000", "151720.625000", "151722.115000", "151723.605000", "151725.095000", "151726.585000", "151728.075000", "151729.565000", "151731.055000", "151732.545000", "151734.035000", "151735.525000", "151737.015000", "151738.505000", "151739.995000", "151741.485000", "151742.975000", "151744.465000", "151745.955000", "151747.445000", "151748.935000", "151750.425000", "151751.915000", "151753.405000", "151754.895000", "151756.385000", "151757.875000", "151759.365000", "151800.855000", "151802.345000", "151803.835000", "151805.325000", "151806.815000", "151808.305000", "151809.795000", "151811.285000", "151812.775000", "151814.265000", "151815.755000", "151817.245000", "151818.735000", "151820.225000", "151821.715000", "151823.205000", "151824.695000", "151826.185000", "151827.675000", "151829.165000", "151830.655000", "151832.145000", "151833.635000", "151835.125000", "151836.615000", "151838.105000", "151839.595000", "151841.085000", "151842.575000", "151844.065000", "151845.555000", "151847.045000", "151848.535000", "151850.025000", "151851.515000", "151853.005000", "151854.495000", "151855.985000", "151857.475000", "151858.965000", "151900.455000", "151901.945000", "151903.435000", "151904.925000", "151906.415000", "151907.905000", "151909.395000", "151910.885000", "151912.375000", "151913.865000", "151915.355000", "151916.845000", "151918.335000", "151919.825000", "151921.315000", "151922.805000", "151924.295000", "151925.785000", "151927.275000", "151928.765000", "151930.255000", "151931.745000", "151933.235000", "151934.725000", "151936.215000", "151937.705000", "151939.195000", "151940.685000", "151942.175000", "151943.665000", "151945.155000", "151946.645000", "151948.135000", "151949.625000", "151951.115000", "151952.605000", "151954.095000", "151955.585000", "151957.075000", "151958.565000", "152000.055000", "152001.545000", "152003.035000", "152004.525000", "152006.015000", "152007.505000", "152008.995000", "152010.485000", "152011.975000", "152013.465000", "152014.955000", "152016.445000", "152017.935000", "152019.425000", "152020.915000", "152022.405000", "152023.895000", "152025.385000", "152026.875000", "152028.365000", "152029.855000", "152031.345000", "152032.835000", "152034.325000", "152035.815000", "152037.305000", "152038.795000", "152040.285000", "152041.775000", "152043.265000", "152044.755000", "152046.245000", "152047.735000", "152049.225000", "152050.715000", "152052.205000", "152053.695000", "152055.185000", "152056.675000", "152058.165000", "152059.655000", "152101.145000", "152102.635000", "152104.125000", "152105.615000", "152107.105000", "152108.595000", "152110.085000", "152111.575000", "152113.065000", "152114.555000", "152116.045000", "152117.535000", "152119.025000", "152120.515000", "152122.005000", "152123.495000", "152124.985000", "152126.475000", "152127.965000", "152129.455000", "152130.945000", "152132.435000", "152133.925000", "152135.415000", "152136.905000", "152138.395000", "152139.885000", "152141.375000", "152142.865000", "152144.355000", "152145.845000", "152147.335000", "152148.825000", "152150.315000", "152151.805000", "152153.295000", "152154.785000", "152156.275000", "152157.765000", "152159.255000", "152200.745000", "152202.235000", "152203.725000", "152205.215000", "152206.705000", "152208.195000", "152209.685000", "152211.175000", "152212.665000", "152214.155000", "152215.645000", "152217.135000", "152218.625000", "152220.115000", "152221.605000", "152223.095000", "152224.585000", "152226.075000", "152227.565000", "152229.055000", "152230.545000", "152232.035000", "152233.525000", "152235.015000", "152236.505000", "152237.995000", "152239.485000", "152240.975000", "152242.465000", "152243.955000", "152245.445000", "152246.935000", "152248.425000", "152249.915000", "152251.405000", "152252.895000", "152254.385000", "152255.875000", "152257.365000", "152258.855000", "152300.345000", "152301.835000", "152303.325000", "152304.815000", "152306.305000", "152307.795000", "152309.285000", "152310.775000", "152312.265000", "152313.755000", "152315.245000", "152316.735000", "152318.225000", "152319.715000", "152321.205000", "152322.695000", "152324.185000", "152325.675000", "152327.165000", "152328.655000", "152330.145000", "152331.635000", "152333.125000", "152334.615000", "152336.105000", "152337.595000", "152339.085000", "152340.575000", "152342.065000", "152343.555000", "152345.045000", "152346.535000", "152348.025000", "152349.515000", "152351.005000", "152352.495000", "152353.985000", "152355.475000", "152356.965000", "152358.455000", "152359.945000", "152401.435000", "152402.925000", "152404.415000", "152405.905000", "152407.395000", "152408.885000", "152410.375000", "152411.865000", "152413.355000", "152414.845000", "152416.335000", "152417.825000", "152419.315000", "152420.805000", "152422.295000", "152423.785000", "152425.275000", "152426.765000", "152428.255000", "152429.745000", "152431.235000", "152432.725000", "152434.215000", "152435.705000", "152437.195000", "152438.685000", "152440.175000", "152441.665000", "152443.155000", "152444.645000", "152446.135000", "152447.625000", "152449.115000", "152450.605000", "152452.095000", "152453.585000", "152455.075000", "152456.565000", "152458.055000", "152459.545000", "152501.035000", "152502.525000", "152504.015000", "152505.505000", "152506.995000", "152508.485000", "152509.975000", "152511.465000", "152512.955000", "152514.445000", "152515.935000", "152517.425000", "152518.915000", "152520.405000", "152521.895000", "152523.385000", "152524.875000", "152526.365000", "152527.855000", "152529.345000", "152530.835000", "152532.325000", "152533.815000", "152535.305000", "152536.795000", "152538.285000", "152539.775000", "152541.265000", "152542.755000", "152544.245000", "152545.735000", "152547.225000", "152548.715000", "152550.205000", "152551.695000", "152553.185000", "152554.675000", "152556.165000", "152557.655000", "152559.145000", "152600.635000", "152602.125000", "152603.615000", "152605.105000", "152606.595000", "152608.085000", "152609.575000", "152611.065000", "152612.555000", "152614.045000", "152615.535000", "152617.025000", "152618.515000", "152620.005000", "152621.495000", "152622.985000", "152624.475000", "152625.965000", "152627.455000", "152628.945000", "152630.435000", "152631.925000", "152633.415000", "152634.905000", "152636.395000", "152637.885000", "152639.375000", "152640.865000", "152642.355000", "152643.845000", "152645.335000", "152646.825000", "152648.315000", "152649.805000", "152651.295000", "152652.785000", "152654.275000", "152655.765000", "152657.255000", "152658.745000", "152700.235000", "152701.725000", "152703.215000", "152704.705000", "152706.195000", "152707.685000", "152709.175000", "152710.665000", "152712.155000", "152713.645000", "152715.135000", "152716.625000", "152718.115000", "152719.605000", "152721.095000", "152722.585000", "152724.075000", "152725.565000", "152727.055000", "152728.545000", "152730.035000", "152731.525000", "152733.015000", "152734.505000", "152735.995000", "152737.485000", "152738.975000", "152740.465000", "152741.955000", "152743.445000", "152744.935000", "152746.425000", "152747.915000", "152749.405000", "152750.895000", "152752.385000", "152753.875000", "152755.365000", "152756.855000", "152758.345000", "152759.835000", "152801.325000", "152802.815000", "152804.305000", "152805.795000", "152807.285000", "152808.775000", "152810.265000", "152811.755000", "152813.245000", "152814.735000", "152816.225000", "152817.715000", "152819.205000", "152820.695000", "152822.185000", "152823.675000", "152825.165000"],
      "ContentTime": ["151812.529000", "151812.533000", "151812.536000", "151812.538000", "151812.541000", "151832.482000", "151832.485000", "151832.488000", "151832.490000", "151832.493000", "151832.496000", "151832.499000", "151832.502000", "151832.504000", "151832.507000", "151832.510000", "151832.513000", "151832.516000", "151832.518000", "151832.521000", "151832.524000", "151832.527000", "151832.530000", "151832.542000", "151832.545000", "151852.482000", "151852.485000", "151852.488000", "151852.490000", "151852.493000", "151852.496000", "151852.499000", "151852.502000", "151852.504000", "151852.507000", "151852.510000", "151852.513000", "151852.524000", "151852.527000", "151852.530000", "151852.533000", "151852.535000", "151852.538000", "151852.541000", "151852.544000", "151912.482000", "151912.485000", "151912.488000", "151912.491000", "151912.493000", "151912.497000", "151912.500000", "151912.503000", "151912.506000", "151912.509000", "151912.511000", "151912.514000", "151912.517000", "151912.520000", "151912.523000", "151912.526000", "151912.529000", "151912.531000", "151912.534000", "151912.542000", "151932.482000", "151932.485000", "151932.488000", "151932.490000", "151932.493000", "151932.496000", "151932.499000", "151932.502000", "151932.504000", "151932.507000", "151932.510000", "151932.513000", "151932.516000", "151932.518000", "151932.521000", "151932.524000", "151932.527000", "151932.530000", "151932.533000", "151932.535000", "151932.538000", "151952.482000", "151952.485000", "151952.488000", "151952.490000", "151952.493000", "151952.496000", "151952.499000", "151952.502000", "151952.505000", "151952.507000", "151952.510000", "151952.513000", "151952.516000", "151952.519000", "151952.522000", "151952.524000", "151952.527000", "151952.530000", "151952.533000", "151952.536000", "152032.482000", "152032.485000", "152032.488000", "152032.490000", "152032.493000", "152032.496000", "152032.499000", "152032.502000", "152032.504000", "152032.507000", "152032.510000", "152032.513000", "152032.516000", "152032.519000", "152032.522000", "152032.524000", "152032.527000", "152032.530000", "152032.533000", "152032.536000", "152032.539000", "152032.541000", "152032.544000", "152032.547000", "152032.550000", "152032.553000", "152032.556000", "152112.482000", "152112.485000", "152112.488000", "152112.490000", "152112.493000", "152112.496000", "152112.499000", "152112.502000", "152112.505000", "152112.508000", "152112.511000", "152112.513000", "152112.516000", "152112.519000", "152112.522000", "152112.525000", "152112.527000", "152112.530000", "152112.533000", "152112.536000", "152112.539000", "152112.542000", "152112.545000", "152112.564000", "152112.567000", "152112.570000", "152152.482000", "152152.485000", "152152.488000", "152152.490000", "152152.493000", "152152.496000", "152152.499000", "152152.502000", "152152.505000", "152152.508000", "152152.511000", "152152.513000", "152152.516000", "152152.519000", "152152.522000", "152152.525000", "152152.528000", "152152.530000", "152152.533000", "152152.536000", "152152.539000", "152152.542000", "152152.544000", "152152.547000", "152152.550000", "152152.553000", "152152.556000", "152232.482000", "152232.485000", "152232.488000", "152232.491000", "152232.494000", "152232.496000", "152232.499000", "152232.502000", "152232.505000", "152232.508000", "152232.511000", "152232.513000", "152232.516000", "152232.519000", "152232.522000", "152232.525000", "152232.528000", "152232.531000", "152232.533000", "152232.536000", "152232.539000", "152232.542000", "152232.545000", "152232.548000", "152232.550000", "152232.553000", "152232.556000", "152312.482000", "152312.485000", "152312.488000", "152312.491000", "152312.493000", "152312.496000", "152312.499000", "152312.502000", "152312.505000", "152312.508000", "152312.511000", "152312.513000", "152312.516000", "152312.519000", "152312.522000", "152312.525000", "152312.528000", "152312.530000", "152312.533000", "152312.536000", "152312.539000", "152312.542000", "152312.545000", "152312.547000", "152312.550000", "152312.553000", "152312.556000", "152352.482000", "152352.485000", "152352.488000", "152352.491000", "152352.493000", "152352.496000", "152352.499000", "152352.502000", "152352.505000", "152352.508000", "152352.510000", "152352.513000", "152352.516000", "152352.519000", "152352.522000", "152352.525000", "152352.527000", "152352.530000", "152352.533000", "152352.536000", "152352.539000", "152352.542000", "152352.545000", "152352.547000", "152352.550000", "152352.553000", "152352.556000", "152432.482000", "152432.485000", "152432.488000", "152432.491000", "152432.493000", "152432.496000", "152432.499000", "152432.502000", "152432.505000", "152432.508000", "152432.511000", "152432.513000", "152432.516000", "152432.519000", "152432.522000", "152432.525000", "152432.528000", "152432.531000", "152432.533000", "152432.537000", "152432.540000", "152432.542000", "152432.545000", "152432.548000", "152432.551000", "152432.554000", "152432.557000", "152512.482000", "152512.485000", "152512.488000", "152512.490000", "152512.493000", "152512.496000", "152512.499000", "152512.502000", "152512.505000", "152512.507000", "152512.510000", "152512.513000", "152512.516000", "152512.519000", "152512.522000", "152512.525000", "152512.527000", "152512.530000", "152512.533000", "152512.536000", "152512.539000", "152512.542000", "152512.544000", "152512.547000", "152512.550000", "152512.553000", "152512.556000", "152552.482000", "152552.485000", "152552.488000", "152552.490000", "152552.493000", "152552.496000", "152552.499000", "152552.502000", "152552.505000", "152552.507000", "152552.510000", "152552.513000", "152552.516000", "152552.519000", "152552.522000", "152552.525000", "152552.528000", "152552.530000", "152552.533000", "152552.537000", "152552.540000", "152552.543000", "152552.546000", "152552.548000", "152552.551000", "152552.554000", "152632.482000", "152632.485000", "152632.488000", "152632.491000", "152632.493000", "152632.496000", "152632.499000", "152632.502000", "152632.505000", "152632.508000", "152632.511000", "152632.514000", "152632.516000", "152632.519000", "152632.522000", "152632.525000", "152632.528000", "152632.531000", "152632.534000", "152632.537000", "152632.540000", "152632.542000", "152632.545000", "152632.548000", "152632.551000", "152632.554000", "152632.557000", "152712.482000", "152712.485000", "152712.488000", "152712.490000", "152712.493000", "152712.496000", "152712.499000", "152712.502000", "152712.505000", "152712.508000", "152712.510000", "152712.513000", "152712.516000", "152712.519000", "152712.522000", "152712.525000", "152712.528000", "152712.531000", "152712.533000", "152712.536000", "152712.539000", "152712.542000", "152712.545000", "152712.548000", "152712.550000", "152712.553000", "152712.556000", "152752.482000", "152752.485000", "152752.488000", "152752.491000", "152752.494000", "152752.496000", "152752.499000", "152752.502000", "152752.505000", "152752.508000", "152752.511000", "152752.513000", "152752.516000", "152752.519000", "152752.522000", "152752.525000", "152752.527000", "152752.530000", "152752.533000", "152752.536000", "152752.539000", "152752.542000", "152752.544000", "152752.547000", "152752.550000", "152752.553000", "152752.556000", "152827.692000", "152827.696000", "152827.698000", "152827.702000", "152827.704000", "152827.707000", "152827.710000", "152827.714000", "152827.717000", "152827.720000", "152827.723000", "152827.726000", "152827.729000", "152827.731000", "152827.734000", "152827.737000", "152827.740000", "152827.743000", "152827.746000", "152827.749000", "152827.752000", "152827.755000", "152827.758000", "152827.760000"],
