{
  "AcquisitionMatrixPE": 104,
  "AcquisitionNumber": 1,
  "AcquisitionTime": "15:57:23.280000",
  "BandwidthPerPixelPhaseEncode": 17.17,
  "BaseResolution": 104,
  "BodyPartExamined": "BRAIN",
  "CoilString": "HC1-7;NC1_2",
  "ConsistencyInfo": "N4_VE11C_LATEST_20160120",
  "ConversionSoftware": "dcm2niix",
  "ConversionSoftwareVersion": "v1.0.20190720  (JP2:OpenJPEG) GCC7.3.0",
  "DerivedVendorReportedEchoSpacing": 0.000560011,
  "DeviceSerialNumber": "167006",
  "DwellTime": 2.1e-06,
  "EchoTime": 0.037,
  "EchoTrainLength": 104,
  "EffectiveEchoSpacing": 0.000560011,
  "FlipAngle": 52,
  "ImageComments": "Unaliased_MB4_PE3_LB",
  "ImageOrientationPatientDICOM": [0.999544, -0.0292497, 0.0074813, 0.0298404, 0.919442, -0.392092],
  "ImageType": [
    "ORIGINAL",
    "PRIMARY",
    "M",
    "MB",
    "ND",
    "MOSAIC"
],
  "ImagingFrequency": 123.259,
  "InPlanePhaseEncodingDirectionDICOM": "COL",
  "InstitutionAddress": "Chemin_Queen-Mary_4565_Montreal_District_CA_H3W_1W5",
  "InstitutionName": "IUGM",
  "InstitutionalDepartmentName": "Department",
  "MRAcquisitionType": "2D",
  "MagneticFieldStrength": 3,
  "Manufacturer": "Siemens",
  "ManufacturersModelName": "Prisma_fit",
  "Modality": "MR",
  "MultibandAccelerationFactor": 4,
  "PartialFourier": 1,
  "PatientPosition": "HFS",
  "PercentPhaseFOV": 100,
  "PhaseEncodingDirection": "j",
  "PhaseEncodingSteps": 104,
  "PhaseResolution": 1,
  "PixelBandwidth": 2290,
  "ProcedureStepDescription": "video_friends",
  "ProtocolName": "func_task-s02e10b",
  "PulseSequenceDetails": "%CustomerSeq%_cmrr_mbep2d_bold",
  "ReceiveCoilActiveElements": "HC1-7;NC1,2",
  "ReceiveCoilName": "HeadNeck_64",
  "ReconMatrixPE": 104,
  "RepetitionTime": 1.49,
  "SAR": 0.0294219,
  "ScanOptions": "FS",
  "ScanningSequence": "EP",
  "SequenceName": "epfid2d1_104",
  "SequenceVariant": "SK_SS",
  "SeriesDescription": "func_task-s02e10b",
  "SeriesNumber": 39,
  "ShimSetting": [639, -7267, -8832, 561, 55, -246, -89, 3],
  "SliceThickness": 2,
  "SliceTiming": [0, 0.785, 0.0975, 0.8825, 0.1975, 0.98, 0.295, 1.0775, 0.3925, 1.175, 0.49, 1.275, 0.5875, 1.3725, 0.685, 0, 0.785, 0.0975, 0.8825, 0.1975, 0.98, 0.295, 1.0775, 0.3925, 1.175, 0.49, 1.275, 0.5875, 1.3725, 0.685, 0, 0.785, 0.0975, 0.8825, 0.1975, 0.98, 0.295, 1.0775, 0.3925, 1.175, 0.49, 1.275, 0.5875, 1.3725, 0.685, 0, 0.785, 0.0975, 0.8825, 0.1975, 0.98, 0.295, 1.0775, 0.3925, 1.175, 0.49, 1.275, 0.5875, 1.3725, 0.685],
  "SoftwareVersions": "syngo_MR_E11",
  "SpacingBetweenSlices": 2,
  "StationName": "MRC35049",
  "TaskName": "friends",
  "TotalReadoutTime": 0.0576811,
  "TxRefAmp": 222.261,
  "WipMemBlock": "86364d31-e904-4986-a1ef-2286d92ef3f6||Sequence: R016 ve11c/master r/e634e98; Dec 19 2017 11:00:25 by eja",
  "dcmmeta_affine": [
    [-1.9990882873535156, 0.0596807561814785, -0.009179945103824139, 99.3553237915039],
    [0.05849944055080414, 1.838883638381958, -0.7842735052108765, -72.57664489746094],
    [0.014962593093514442, 0.7841845154762268, 1.839790940284729, -68.81322479248047],
    [0.0, 0.0, 0.0, 1.0]
],
  "dcmmeta_reorient_transform": [
    [0.0, -1.0, 0.0, 103.0],
    [1.0, 0.0, 0.0, 0.0],
    [0.0, 0.0, 1.0, 0.0],
    [0.0, 0.0, 0.0, 1.0]
],
  "dcmmeta_shape": [104, 104, 60, 479],
  "dcmmeta_slice_dim": 2,
  "dcmmeta_version": 0.6,
  "global": {
    "const": {
      "AcquisitionMatrix": [104, 0, 0, 104],
      "AngioFlag": "N",
      "BitsAllocated": 16,
      "BitsStored": 16,
      "BodyPartExamined": "BRAIN",
      "Columns": 832,
      "EchoNumbers": 1,
      "EchoTime": 37.0,
      "EchoTrainLength": 104,
      "FlipAngle": 52.0,
      "HighBit": 15,
      "ImageOrientationPatient": [0.99954413811622, -0.0292497207252, 0.00748129634492, 0.02984037720212, 0.91944179673815, -0.3920922522817],
      "ImagePositionPatient": [-854.89436483255, -764.88819744051, 291.95455203377],
      "ImageType": [
        "ORIGINAL",
        "PRIMARY",
        "M",
        "MB",
        "ND",
        "MOSAIC"
],
      "ImagedNucleus": "1H",
      "ImagingFrequency": 123.259363,
      "InPlanePhaseEncodingDirection": "COL",
      "MRAcquisitionType": "2D",
      "MagneticFieldStrength": 3.0,
      "Manufacturer": "SIEMENS",
      "ManufacturerModelName": "Prisma_fit",
      "Modality": "MR",
      "NumberOfAverages": 1.0,
      "NumberOfPhaseEncodingSteps": 104,
      "PercentPhaseFieldOfView": 100.0,
      "PercentSampling": 100.0,
      "PerformedProcedureStepStartTime": "125925.462000",
      "PhotometricInterpretation": "MONOCHROME2",
      "PixelBandwidth": 2290.0,
      "PixelRepresentation": 0,
      "PixelSpacing": [2.0, 2.0],
      "ProtocolName": "func_task-s02e10b",
      "RepetitionTime": 1490.0,
      "Rows": 832,
      "SAR": 0.02942193481961,
      "SamplesPerPixel": 1,
      "ScanOptions": "FS",
      "ScanningSequence": "EP",
      "SequenceName": "epfid2d1_104",
      "SequenceVariant": [
        "SK",
        "SS"
],
      "SeriesDescription": "func_task-s02e10b",
      "SeriesNumber": 39,
      "SeriesTime": "155828.200000",
      "SliceLocation": -35.297045679386,
      "SliceThickness": 2.0,
      "SmallestImagePixelValue": 0,
      "SoftwareVersions": "syngo MR E11",
      "SpacingBetweenSlices": 2.0000000347764,
      "SpecificCharacterSet": "ISO_IR 100",
      "StudyID": "1",
      "StudyTime": "125925.368000",
      "TransmitCoilName": "Body",
      "VariableFlipAngleFlag": "N",
      "WindowCenterWidthExplanation": "Algo1",
      "dBdt": 0.0},
    "slices": {}
  },
  "time": {
    "samples": {
      "AcquisitionNumber": [1, 2, 3, 4, 5, 6, 7, 8, 9, 10, 11, 12, 13, 14, 15, 16, 17, 18, 19, 20, 21, 22, 23, 24, 25, 26, 27, 28, 29, 30, 31, 32, 33, 34, 35, 36, 37, 38, 39, 40, 41, 42, 43, 44, 45, 46, 47, 48, 49, 50, 51, 52, 53, 54, 55, 56, 57, 58, 59, 60, 61, 62, 63, 64, 65, 66, 67, 68, 69, 70, 71, 72, 73, 74, 75, 76, 77, 78, 79, 80, 81, 82, 83, 84, 85, 86, 87, 88, 89, 90, 91, 92, 93, 94, 95, 96, 97, 98, 99, 100, 101, 102, 103, 104, 105, 106, 107, 108, 109, 110, 111, 112, 113, 114, 115, 116, 117, 118, 119, 120, 121, 122, 123, 124, 125, 126, 127, 128, 129, 130, 131, 132, 133, 134, 135, 136, 137, 138, 139, 140, 141, 142, 143, 144, 145, 146, 147, 148, 149, 150, 151, 152, 153, 154, 155, 156, 157, 158, 159, 160, 161, 162, 163, 164, 165, 166, 167, 168, 169, 170, 171, 172, 173, 174, 175, 176, 177, 178, 179, 180, 181, 182, 183, 184, 185, 186, 187, 188, 189, 190, 191, 192, 193, 194, 195, 196, 197, 198, 199, 200, 201, 202, 203, 204, 205, 206, 207, 208, 209, 210, 211, 212, 213, 214, 215, 216, 217, 218, 219, 220, 221, 222, 223, 224, 225, 226, 227, 228, 229, 230, 231, 232, 233, 234, 235, 236, 237, 238, 239, 240, 241, 242, 243, 244, 245, 246, 247, 248, 249, 250, 251, 252, 253, 254, 255, 256, 257, 258, 259, 260, 261, 262, 263, 264, 265, 266, 267, 268, 269, 270, 271, 272, 273, 274, 275, 276, 277, 278, 279, 280, 281, 282, 283, 284, 285, 286, 287, 288, 289, 290, 291, 292, 293, 294, 295, 296, 297, 298, 299, 300, 301, 302, 303, 304, 305, 306, 307, 308, 309, 310, 311, 312, 313, 314, 315, 316, 317, 318, 319, 320, 321, 322, 323, 324, 325, 326, 327, 328, 329, 330, 331, 332, 333, 334, 335, 336, 337, 338, 339, 340, 341, 342, 343, 344, 345, 346, 347, 348, 349, 350, 351, 352, 353, 354, 355, 356, 357, 358, 359, 360, 361, 362, 363, 364, 365, 366, 367, 368, 369, 370, 371, 372, 373, 374, 375, 376, 377, 378, 379, 380, 381, 382, 383, 384, 385, 386, 387, 388, 389, 390, 391, 392, 393, 394, 395, 396, 397, 398, 399, 400, 401, 402, 403, 404, 405, 406, 407, 408, 409, 410, 411, 412, 413, 414, 415, 416, 417, 418, 419, 420, 421, 422, 423, 424, 425, 426, 427, 428, 429, 430, 431, 432, 433, 434, 435, 436, 437, 438, 439, 440, 441, 442, 443, 444, 445, 446, 447, 448, 449, 450, 451, 452, 453, 454, 455, 456, 457, 458, 459, 460, 461, 462, 463, 464, 465, 466, 467, 468, 469, 470, 471, 472, 473, 474, 475, 476, 477, 478, 479],
      "AcquisitionTime": ["155723.280000", "155724.770000", "155726.260000", "155727.750000", "155729.240000", "155730.730000", "155732.220000", "155733.710000", "155735.200000", "155736.690000", "155738.180000", "155739.670000", "155741.160000", "155742.650000", "155744.140000", "155745.630000", "155747.120000", "155748.610000", "155750.100000", "155751.590000", "155753.080000", "155754.570000", "155756.060000", "155757.550000", "155759.040000", "155800.530000", "155802.020000", "155803.510000", "155805.000000", "155806.490000", "155807.980000", "155809.470000", "155810.960000", "155812.450000", "155813.940000", "155815.430000", "155816.920000", "155818.410000", "155819.900000", "155821.390000", "155822.880000", "155824.370000", "155825.860000", "155827.350000", "155828.840000", "155830.330000", "155831.820000", "155833.310000", "155834.800000", "155836.290000", "155837.780000", "155839.270000", "155840.760000", "155842.250000", "155843.740000", "155845.230000", "155846.720000", "155848.210000", "155849.700000", "155851.190000", "155852.680000", "155854.170000", "155855.660000", "155857.150000", "155858.640000", "155900.130000", "155901.620000", "155903.110000", "155904.600000", "155906.090000", "155907.580000", "155909.070000", "155910.560000", "155912.050000", "155913.540000", "155915.030000", "155916.520000", "155918.010000", "155919.500000", "155920.990000", "155922.480000", "155923.970000", "155925.460000", "155926.950000", "155928.440000", "155929.930000", "155931.420000", "155932.910000", "155934.400000", "155935.890000", "155937.380000", "155938.870000", "155940.360000", "155941.850000", "155943.340000", "155944.830000", "155946.320000", "155947.810000", "155949.300000", "155950.790000", "155952.280000", "155953.770000", "155955.260000", "155956.750000", "155958.240000", "155959.730000", "160001.220000", "160002.710000", "160004.200000", "160005.690000", "160007.180000", "160008.670000", "160010.160000", "160011.650000", "160013.140000", "160014.630000", "160016.120000", "160017.610000", "160019.100000", "160020.590000", "160022.080000", "160023.570000", "160025.060000", "160026.550000", "160028.040000", "160029.530000", "160031.020000", "160032.510000", "160034.000000", "160035.490000", "160036.980000", "160038.470000", "160039.960000", "160041.450000", "160042.940000", "160044.430000", "160045.920000", "160047.410000", "160048.900000", "160050.390000", "160051.880000", "160053.370000", "160054.860000", "160056.350000", "160057.840000", "160059.330000", "160100.820000", "160102.310000", "160103.800000", "160105.290000", "160106.780000", "160108.270000", "160109.760000", "160111.250000", "160112.740000", "160114.230000", "160115.720000", "160117.210000", "160118.700000", "160120.190000", "160121.680000", "160123.170000", "160124.660000", "160126.150000", "160127.640000", "160129.130000", "160130.620000", "160132.110000", "160133.600000", "160135.090000", "160136.580000", "160138.070000", "160139.560000", "160141.050000", "160142.540000", "160144.030000", "160145.520000", "160147.010000", "160148.500000", "160149.990000", "160151.480000", "160152.970000", "160154.460000", "160155.950000", "160157.440000", "160158.930000", "160200.420000", "160201.910000", "160203.400000", "160204.890000", "160206.380000", "160207.870000", "160209.360000", "160210.850000", "160212.340000", "160213.830000", "160215.320000", "160216.810000", "160218.300000", "160219.790000", "160221.280000", "160222.770000", "160224.260000", "160225.750000", "160227.240000", "160228.730000", "160230.220000", "160231.710000", "160233.200000", "160234.690000", "160236.180000", "160237.670000", "160239.160000", "160240.650000", "160242.140000", "160243.630000", "160245.120000", "160246.610000", "160248.100000", "160249.590000", "160251.080000", "160252.570000", "160254.060000", "160255.550000", "160257.040000", "160258.530000", "160300.020000", "160301.510000", "160303.000000", "160304.490000", "160305.980000", "160307.470000", "160308.960000", "160310.450000", "160311.940000", "160313.430000", "160314.920000", "160316.410000", "160317.900000", "160319.390000", "160320.880000", "160322.370000", "160323.860000", "160325.350000", "160326.840000", "160328.330000", "160329.820000", "160331.310000", "160332.800000", "160334.290000", "160335.780000", "160337.270000", "160338.760000", "160340.250000", "160341.740000", "160343.230000", "160344.720000", "160346.210000", "160347.700000", "160349.190000", "160350.680000", "160352.170000", "160353.660000", "160355.150000", "160356.640000", "160358.130000", "160359.620000", "160401.110000", "160402.600000", "160404.090000", "160405.580000", "160407.070000", "160408.560000", "160410.050000", "160411.540000", "160413.030000", "160414.520000", "160416.010000", "160417.500000", "160418.990000", "160420.480000", "160421.970000", "160423.460000", "160424.950000", "160426.440000", "160427.930000", "160429.420000", "160430.910000", "160432.400000", "160433.890000", "160435.380000", "160436.870000", "160438.360000", "160439.850000", "160441.340000", "160442.830000", "160444.320000", "160445.810000", "160447.300000", "160448.790000", "160450.280000", "160451.770000", "160453.260000", "160454.750000", "160456.240000", "160457.730000", "160459.220000", "160500.710000", "160502.200000", "160503.690000", "160505.180000", "160506.670000", "160508.160000", "160509.650000", "160511.140000", "160512.630000", "160514.120000", "160515.610000", "160517.100000", "160518.590000", "160520.080000", "160521.570000", "160523.060000", "160524.550000", "160526.040000", "160527.530000", "160529.020000", "160530.510000", "160532.000000", "160533.490000", "160534.980000", "160536.470000", "160537.960000", "160539.450000", "160540.940000", "160542.430000", "160543.920000", "160545.410000", "160546.900000", "160548.390000", "160549.880000", "160551.370000", "160552.860000", "160554.350000", "160555.840000", "160557.330000", "160558.820000", "160600.310000", "160601.800000", "160603.290000", "160604.780000", "160606.270000", "160607.760000", "160609.250000", "160610.740000", "160612.230000", "160613.720000", "160615.210000", "160616.700000", "160618.190000", "160619.680000", "160621.170000", "160622.660000", "160624.150000", "160625.640000", "160627.130000", "160628.620000", "160630.110000", "160631.600000", "160633.090000", "160634.580000", "160636.070000", "160637.560000", "160639.050000", "160640.540000", "160642.030000", "160643.520000", "160645.010000", "160646.500000", "160647.990000", "160649.480000", "160650.970000", "160652.460000", "160653.950000", "160655.440000", "160656.930000", "160658.420000", "160659.910000", "160701.400000", "160702.890000", "160704.380000", "160705.870000", "160707.360000", "160708.850000", "160710.340000", "160711.830000", "160713.320000", "160714.810000", "160716.300000", "160717.790000", "160719.280000", "160720.770000", "160722.260000", "160723.750000", "160725.240000", "160726.730000", "160728.220000", "160729.710000", "160731.200000", "160732.690000", "160734.180000", "160735.670000", "160737.160000", "160738.650000", "160740.140000", "160741.630000", "160743.120000", "160744.610000", "160746.100000", "160747.590000", "160749.080000", "160750.570000", "160752.060000", "160753.550000", "160755.040000", "160756.530000", "160758.020000", "160759.510000", "160801.000000", "160802.490000", "160803.980000", "160805.470000", "160806.960000", "160808.450000", "160809.940000", "160811.430000", "160812.920000", "160814.410000", "160815.900000", "160817.390000", "160818.880000", "160820.370000", "160821.860000", "160823.350000", "160824.840000", "160826.330000", "160827.820000", "160829.310000", "160830.800000", "160832.290000", "160833.780000", "160835.270000", "160836.760000", "160838.250000", "160839.740000", "160841.230000", "160842.720000", "160844.210000", "160845.700000", "160847.190000", "160848.680000", "160850.170000", "160851.660000", "160853.150000", "160854.640000", "160856.130000", "160857.620000", "160859.110000", "160900.600000", "160902.090000", "160903.580000", "160905.070000", "160906.560000", "160908.050000", "160909.540000", "160911.030000", "160912.520000", "160914.010000", "160915.500000"],
      "ContentTime": ["155828.202000", "155828.206000", "155828.209000", "155828.211000", "155828.214000", "155828.217000", "155828.220000", "155828.223000", "155828.229000", "155828.231000", "155848.156000", "155848.159000", "155848.162000", "155848.165000", "155848.167000", "155848.170000", "155848.173000", "155848.176000", "155848.179000", "155848.181000", "155848.184000", "155848.187000", "155848.190000", "155848.193000", "155848.195000", "155848.198000", "155848.201000", "155848.204000", "155848.207000", "155848.210000", "155908.156000", "155908.159000", "155908.162000", "155908.165000", "155908.168000", "155908.170000", "155908.173000", "155908.176000", "155908.179000", "155908.182000", "155908.184000", "155908.187000", "155908.190000", "155908.193000", "155908.196000", "155908.198000", "155908.201000", "155908.204000", "155908.207000", "155908.210000", "155908.212000", "155928.156000", "155928.159000", "155928.162000", "155928.164000", "155928.167000", "155928.170000", "155928.173000", "155928.176000", "155928.179000", "155928.181000", "155928.184000", "155928.187000", "155928.190000", "155928.193000", "155928.196000", "155928.198000", "155928.201000", "155928.204000", "155928.207000", "155928.210000", "155948.156000", "155948.159000", "155948.162000", "155948.165000", "155948.167000", "155948.170000", "155948.173000", "155948.176000", "155948.179000", "155948.181000", "155948.184000", "155948.187000", "155948.190000", "155948.193000", "155948.195000", "155948.198000", "155948.201000", "155948.204000", "155948.207000", "155948.210000", "160028.155000", "160028.158000", "160028.161000", "160028.164000", "160028.167000", "160028.170000", "160028.173000", "160028.176000", "160028.179000", "160028.182000", "160028.185000", "160028.188000", "160028.191000", "160028.194000", "160028.197000", "160028.200000", "160028.203000", "160028.206000", "160028.208000", "160028.211000", "160028.214000", "160028.217000", "160028.220000", "160028.223000", "160028.231000", "160028.234000", "160028.237000", "160028.239000", "160028.242000", "160028.245000", "160028.248000", "160028.251000", "160108.156000", "160108.159000", "160108.162000", "160108.165000", "160108.167000", "160108.170000", "160108.173000", "160108.176000", "160108.179000", "160108.182000", "160108.185000", "160108.187000", "160108.190000", "160108.193000", "160108.196000", "160108.199000", "160108.201000", "160108.204000", "160108.207000", "160108.210000", "160108.213000", "160108.216000", "160108.219000", "160108.222000", "160108.224000", "160108.227000", "160108.230000", "160148.156000", "160148.159000", "160148.162000", "160148.165000", "160148.168000", "160148.170000", "160148.173000", "160148.176000", "160148.179000", "160148.182000", "160148.185000", "160148.187000", "160148.190000", "160148.193000", "160148.196000", "160148.199000", "160148.211000", "160148.214000", "160148.217000", "160148.220000", "160148.222000", "160148.225000", "160148.228000", "160148.231000", "160148.234000", "160148.237000", "160148.239000", "160228.156000", "160228.159000", "160228.162000", "160228.165000", "160228.168000", "160228.184000", "160228.187000", "160228.190000", "160228.193000", "160228.196000", "160228.199000", "160228.201000", "160228.204000", "160228.207000", "160228.210000", "160228.213000", "160228.215000", "160228.218000", "160228.221000", "160228.224000", "160228.227000", "160228.230000", "160228.233000", "160228.235000", "160228.238000", "160228.241000", "160228.244000", "160308.156000", "160308.159000", "160308.162000", "160308.165000", "160308.168000", "160308.171000", "160308.174000", "160308.176000", "160308.179000", "160308.182000", "160308.185000", "160308.188000", "160308.191000", "160308.193000", "160308.196000", "160308.199000", "160308.202000", "160308.205000", "160308.208000", "160308.211000", "160308.214000", "160308.216000", "160308.219000", "160308.222000", "160308.225000", "160308.228000", "160308.230000", "160348.156000", "160348.159000", "160348.162000", "160348.165000", "160348.168000", "160348.170000", "160348.173000", "160348.176000", "160348.179000", "160348.182000", "160348.185000", "160348.188000", "160348.190000", "160348.193000", "160348.196000", "160348.199000", "160348.202000", "160348.205000", "160348.208000", "160348.210000", "160348.213000", "160348.216000", "160348.219000", "160348.222000", "160348.224000", "160348.227000", "160348.230000", "160428.156000", "160428.159000", "160428.162000", "160428.165000", "160428.167000", "160428.170000", "160428.173000", "160428.176000", "160428.179000", "160428.182000", "160428.185000", "160428.187000", "160428.190000", "160428.193000", "160428.196000", "160428.199000", "160428.202000", "160428.205000", "160428.207000", "160428.210000", "160428.213000", "160428.216000", "160428.219000", "160428.222000", "160428.224000", "160428.227000", "160428.230000", "160508.155000", "160508.158000", "160508.162000", "160508.165000", "160508.168000", "160508.170000", "160508.173000", "160508.176000", "160508.179000", "160508.182000", "160508.185000", "160508.188000", "160508.190000", "160508.193000", "160508.196000", "160508.199000", "160508.202000", "160508.205000", "160508.208000", "160508.211000", "160508.214000", "160508.217000", "160508.220000", "160508.223000", "160508.226000", "160508.228000", "160548.156000", "160548.159000", "160548.162000", "160548.165000", "160548.168000", "160548.171000", "160548.173000", "160548.176000", "160548.179000", "160548.182000", "160548.185000", "160548.187000", "160548.190000", "160548.193000", "160548.196000", "160548.199000", "160548.202000", "160548.204000", "160548.207000", "160548.210000", "160548.213000", "160548.216000", "160548.219000", "160548.221000", "160548.224000", "160548.227000", "160548.230000", "160628.156000", "160628.159000", "160628.162000", "160628.165000", "160628.168000", "160628.170000", "160628.173000", "160628.176000", "160628.179000", "160628.182000", "160628.185000", "160628.188000", "160628.191000", "160628.194000", "160628.197000", "160628.200000", "160628.202000", "160628.205000", "160628.208000", "160628.211000", "160628.214000", "160628.217000", "160628.220000", "160628.222000", "160628.225000", "160628.228000", "160628.231000", "160708.167000", "160708.170000", "160708.173000", "160708.176000", "160708.179000", "160708.182000", "160708.185000", "160708.187000", "160708.190000", "160708.193000", "160708.196000", "160708.199000", "160708.202000", "160708.205000", "160708.208000", "160708.210000", "160708.213000", "160708.216000", "160708.219000", "160708.222000", "160708.225000", "160708.227000", "160708.230000", "160708.233000", "160708.236000", "160708.239000", "160708.242000", "160748.156000", "160748.159000", "160748.162000", "160748.165000", "160748.167000", "160748.170000", "160748.173000", "160748.176000", "160748.179000", "160748.182000", "160748.185000", "160748.187000", "160748.190000", "160748.193000", "160748.196000", "160748.199000", "160748.202000", "160748.205000", "160748.207000", "160748.210000", "160748.213000", "160748.216000", "160748.219000", "160748.222000", "160748.224000", "160748.227000", "160748.230000", "160828.156000", "160828.159000", "160828.162000", "160828.165000", "160828.167000", "160828.170000", "160828.173000", "160828.176000", "160828.179000", "160828.182000", "160828.184000", "160828.187000", "160828.190000", "160828.193000", "160828.196000", "160828.199000", "160828.202000", "160828.205000", "160828.207000", "160828.210000", "160828.213000", "160828.216000", "160828.219000", "160828.221000", "160828.224000", "160828.227000", "160828.230000", "160908.156000", "160908.159000", "160908.162000", "160908.165000", "160908.168000", "160908.171000", "160908.174000", "160908.177000", "160908.180000", "160908.183000", "160908.186000", "160908.189000", "160908.192000", "160908.195000", "160908.198000", "160908.201000", "160908.203000", "160908.206000", "160908.209000", "160908.212000", "160908.215000", "160908.218000", "160908.221000", "160908.223000", "160908.226000", "160908.236000", "160917.161000", "160917.164000", "160917.167000", "160917.170000", "160917.172000", "160917.175000", "160917.178000"],
