{
  "AcquisitionMatrixPE": 104,
  "AcquisitionNumber": 1,
  "AcquisitionTime": "18:01:38.415000",
  "BandwidthPerPixelPhaseEncode": 17.17,
  "BaseResolution": 104,
  "BodyPartExamined": "BRAIN",
  "CoilString": "HC1-7;NC1_2",
  "ConsistencyInfo": "N4_VE11C_LATEST_20160120",
  "ConversionSoftware": "dcm2niix",
  "ConversionSoftwareVersion": "v1.0.20190902",
  "DerivedVendorReportedEchoSpacing": 0.000560011,
  "DeviceSerialNumber": "167006",
  "DwellTime": 2.1e-06,
  "EchoTime": 0.037,
  "EchoTrainLength": 104,
  "EffectiveEchoSpacing": 0.000560011,
  "FlipAngle": 52,
  "ImageComments": "Unaliased_MB4_PE3_LB",
  "ImageOrientationPatientDICOM": [0.999777, 0.00778551, 0.0196372, -0.00348988, 0.977706, -0.209951],
  "ImageType": [
    "ORIGINAL",
    "PRIMARY",
    "M",
    "MB",
    "ND",
    "MOSAIC"
],
  "ImagingFrequency": 123.259,
  "InPlanePhaseEncodingDirectionDICOM": "COL",
  "InstitutionAddress": "Chemin_Queen-Mary_4565_Montreal_District_CA_H3W_1W5",
  "InstitutionName": "IUGM",
  "InstitutionalDepartmentName": "Department",
  "MRAcquisitionType": "2D",
  "MagneticFieldStrength": 3,
  "Manufacturer": "Siemens",
  "ManufacturersModelName": "Prisma_fit",
  "Modality": "MR",
  "MultibandAccelerationFactor": 4,
  "PartialFourier": 1,
  "PatientPosition": "HFS",
  "PercentPhaseFOV": 100,
  "PhaseEncodingDirection": "j",
  "PhaseEncodingSteps": 104,
  "PhaseResolution": 1,
  "PixelBandwidth": 2290,
  "ProcedureStepDescription": "video_friends",
  "ProtocolName": "func_task-friends-s05e23c",
  "PulseSequenceDetails": "%CustomerSeq%_cmrr_mbep2d_bold",
  "ReceiveCoilActiveElements": "HC1-7;NC1,2",
  "ReceiveCoilName": "HeadNeck_64",
  "ReconMatrixPE": 104,
  "RepetitionTime": 1.49,
  "SAR": 0.0300106,
  "ScanOptions": "FS",
  "ScanningSequence": "EP",
  "SequenceName": "epfid2d1_104",
  "SequenceVariant": "SK_SS",
  "SeriesDescription": "func_task-friends-s05e23c",
  "SeriesNumber": 22,
  "ShimSetting": [648, -7247, -8757, 724, 55, -70, 145, 1],
  "SliceThickness": 2,
  "SliceTiming": [0, 0.7825, 0.0975, 0.88, 0.195, 0.98, 0.2925, 1.0775, 0.39, 1.175, 0.49, 1.2725, 0.5875, 1.37, 0.685, 0, 0.7825, 0.0975, 0.88, 0.195, 0.98, 0.2925, 1.0775, 0.39, 1.175, 0.49, 1.2725, 0.5875, 1.37, 0.685, 0, 0.7825, 0.0975, 0.88, 0.195, 0.98, 0.2925, 1.0775, 0.39, 1.175, 0.49, 1.2725, 0.5875, 1.37, 0.685, 0, 0.7825, 0.0975, 0.88, 0.195, 0.98, 0.2925, 1.0775, 0.39, 1.175, 0.49, 1.2725, 0.5875, 1.37, 0.685],
  "SoftwareVersions": "syngo_MR_E11",
  "SpacingBetweenSlices": 2,
  "StationName": "MRC35049",
  "TaskName": "s05e23c",
  "TotalReadoutTime": 0.0576811,
  "TxRefAmp": 206.18,
  "WipMemBlock": "a3a21644-c904-452c-9f23-7fbb1738e080||Sequence: R016 ve11c/master r/e634e98; Dec 19 2017 11:00:25 by eja",
  "dcmmeta_affine": [
    [-1.9995536804199219, -0.006979751400649548, 0.04166790097951889, 104.06172943115234],
    [-0.01557102520018816, 1.955411434173584, -0.4196711480617523, -85.85767364501953],
    [0.039274346083402634, 0.41990190744400024, 1.9550293684005737, -48.13481140136719],
    [0.0, 0.0, 0.0, 1.0]
],
  "dcmmeta_reorient_transform": [
    [0.0, -1.0, 0.0, 103.0],
    [1.0, 0.0, 0.0, 0.0],
    [0.0, 0.0, 1.0, 0.0],
    [0.0, 0.0, 0.0, 1.0]
],
  "dcmmeta_shape": [104, 104, 60, 458],
  "dcmmeta_slice_dim": 2,
  "dcmmeta_version": 0.6,
  "global": {
    "const": {
      "AcquisitionMatrix": [104, 0, 0, 104],
      "AngioFlag": "N",
      "BitsAllocated": 16,
      "BitsStored": 16,
      "BodyPartExamined": "BRAIN",
      "Columns": 832,
      "EchoNumbers": 1,
      "EchoTime": 37.0,
      "EchoTrainLength": 104,
      "FlipAngle": 52.0,
      "HighBit": 15,
      "ImageOrientationPatient": [0.99977685873184, 0.00778551271935, 0.01963717230125, -0.003489875653, 0.97770568957212, -0.2099509593839],
      "ImagePositionPatient": [-828.63973645574, -832.98729026897, 133.66352149059],
      "ImageType": [
        "ORIGINAL",
        "PRIMARY",
        "M",
        "MB",
        "ND",
        "MOSAIC"
],
      "ImagedNucleus": "1H",
      "ImagingFrequency": 123.258968,
      "InPlanePhaseEncodingDirection": "COL",
      "MRAcquisitionType": "2D",
      "MagneticFieldStrength": 3.0,
      "Manufacturer": "SIEMENS",
      "ManufacturerModelName": "Prisma_fit",
      "Modality": "MR",
      "NumberOfAverages": 1.0,
      "NumberOfPhaseEncodingSteps": 104,
      "PercentPhaseFieldOfView": 100.0,
      "PercentSampling": 100.0,
      "PerformedProcedureStepStartTime": "170333.455000",
      "PhotometricInterpretation": "MONOCHROME2",
      "PixelBandwidth": 2290.0,
      "PixelRepresentation": 0,
      "PixelSpacing": [2.0, 2.0],
      "ProtocolName": "func_task-friends-s05e23c",
      "RepetitionTime": 1490.0,
      "Rows": 832,
      "SAR": 0.03001055077846,
      "SamplesPerPixel": 1,
      "ScanOptions": "FS",
      "ScanningSequence": "EP",
      "SequenceName": "epfid2d1_104",
      "SequenceVariant": [
        "SK",
        "SS"
],
      "SeriesDescription": "func_task-friends-s05e23c",
      "SeriesNumber": 22,
      "SeriesTime": "180254.064000",
      "SliceLocation": -26.868474787674,
      "SliceThickness": 2.0,
      "SmallestImagePixelValue": 0,
      "SoftwareVersions": "syngo MR E11",
      "SpacingBetweenSlices": 1.9999999587523,
      "SpecificCharacterSet": "ISO_IR 100",
      "StudyID": "1",
      "StudyTime": "170333.395000",
      "TransmitCoilName": "Body",
      "VariableFlipAngleFlag": "N",
      "WindowCenterWidthExplanation": "Algo1",
      "dBdt": 0.0},
    "slices": {}
  },
  "time": {
    "samples": {
      "AcquisitionNumber": [1, 2, 3, 4, 5, 6, 7, 8, 9, 10, 11, 12, 13, 14, 15, 16, 17, 18, 19, 20, 21, 22, 23, 24, 25, 26, 27, 28, 29, 30, 31, 32, 33, 34, 35, 36, 37, 38, 39, 40, 41, 42, 43, 44, 45, 46, 47, 48, 49, 50, 51, 52, 53, 54, 55, 56, 57, 58, 59, 60, 61, 62, 63, 64, 65, 66, 67, 68, 69, 70, 71, 72, 73, 74, 75, 76, 77, 78, 79, 80, 81, 82, 83, 84, 85, 86, 87, 88, 89, 90, 91, 92, 93, 94, 95, 96, 97, 98, 99, 100, 101, 102, 103, 104, 105, 106, 107, 108, 109, 110, 111, 112, 113, 114, 115, 116, 117, 118, 119, 120, 121, 122, 123, 124, 125, 126, 127, 128, 129, 130, 131, 132, 133, 134, 135, 136, 137, 138, 139, 140, 141, 142, 143, 144, 145, 146, 147, 148, 149, 150, 151, 152, 153, 154, 155, 156, 157, 158, 159, 160, 161, 162, 163, 164, 165, 166, 167, 168, 169, 170, 171, 172, 173, 174, 175, 176, 177, 178, 179, 180, 181, 182, 183, 184, 185, 186, 187, 188, 189, 190, 191, 192, 193, 194, 195, 196, 197, 198, 199, 200, 201, 202, 203, 204, 205, 206, 207, 208, 209, 210, 211, 212, 213, 214, 215, 216, 217, 218, 219, 220, 221, 222, 223, 224, 225, 226, 227, 228, 229, 230, 231, 232, 233, 234, 235, 236, 237, 238, 239, 240, 241, 242, 243, 244, 245, 246, 247, 248, 249, 250, 251, 252, 253, 254, 255, 256, 257, 258, 259, 260, 261, 262, 263, 264, 265, 266, 267, 268, 269, 270, 271, 272, 273, 274, 275, 276, 277, 278, 279, 280, 281, 282, 283, 284, 285, 286, 287, 288, 289, 290, 291, 292, 293, 294, 295, 296, 297, 298, 299, 300, 301, 302, 303, 304, 305, 306, 307, 308, 309, 310, 311, 312, 313, 314, 315, 316, 317, 318, 319, 320, 321, 322, 323, 324, 325, 326, 327, 328, 329, 330, 331, 332, 333, 334, 335, 336, 337, 338, 339, 340, 341, 342, 343, 344, 345, 346, 347, 348, 349, 350, 351, 352, 353, 354, 355, 356, 357, 358, 359, 360, 361, 362, 363, 364, 365, 366, 367, 368, 369, 370, 371, 372, 373, 374, 375, 376, 377, 378, 379, 380, 381, 382, 383, 384, 385, 386, 387, 388, 389, 390, 391, 392, 393, 394, 395, 396, 397, 398, 399, 400, 401, 402, 403, 404, 405, 406, 407, 408, 409, 410, 411, 412, 413, 414, 415, 416, 417, 418, 419, 420, 421, 422, 423, 424, 425, 426, 427, 428, 429, 430, 431, 432, 433, 434, 435, 436, 437, 438, 439, 440, 441, 442, 443, 444, 445, 446, 447, 448, 449, 450, 451, 452, 453, 454, 455, 456, 457, 458],
      "AcquisitionTime": ["180138.415000", "180139.905000", "180141.395000", "180142.885000", "180144.375000", "180145.865000", "180147.355000", "180148.845000", "180150.335000", "180151.825000", "180153.315000", "180154.805000", "180156.295000", "180157.785000", "180159.275000", "180200.765000", "180202.255000", "180203.745000", "180205.235000", "180206.725000", "180208.215000", "180209.705000", "180211.195000", "180212.685000", "180214.175000", "180215.665000", "180217.155000", "180218.645000", "180220.135000", "180221.625000", "180223.115000", "180224.605000", "180226.095000", "180227.585000", "180229.075000", "180230.565000", "180232.055000", "180233.545000", "180235.035000", "180236.525000", "180238.015000", "180239.505000", "180240.995000", "180242.485000", "180243.975000", "180245.465000", "180246.955000", "180248.445000", "180249.935000", "180251.425000", "180252.915000", "180254.405000", "180255.895000", "180257.385000", "180258.875000", "180300.365000", "180301.855000", "180303.345000", "180304.835000", "180306.325000", "180307.815000", "180309.305000", "180310.795000", "180312.285000", "180313.775000", "180315.265000", "180316.755000", "180318.245000", "180319.735000", "180321.225000", "180322.715000", "180324.205000", "180325.695000", "180327.185000", "180328.675000", "180330.165000", "180331.655000", "180333.145000", "180334.635000", "180336.125000", "180337.615000", "180339.105000", "180340.595000", "180342.085000", "180343.575000", "180345.065000", "180346.555000", "180348.045000", "180349.535000", "180351.025000", "180352.515000", "180354.005000", "180355.495000", "180356.985000", "180358.475000", "180359.965000", "180401.455000", "180402.945000", "180404.435000", "180405.925000", "180407.415000", "180408.905000", "180410.395000", "180411.885000", "180413.375000", "180414.865000", "180416.355000", "180417.845000", "180419.335000", "180420.825000", "180422.315000", "180423.805000", "180425.295000", "180426.785000", "180428.275000", "180429.765000", "180431.255000", "180432.745000", "180434.235000", "180435.725000", "180437.215000", "180438.705000", "180440.195000", "180441.685000", "180443.175000", "180444.665000", "180446.155000", "180447.645000", "180449.135000", "180450.625000", "180452.115000", "180453.605000", "180455.095000", "180456.585000", "180458.075000", "180459.565000", "180501.055000", "180502.545000", "180504.035000", "180505.525000", "180507.015000", "180508.505000", "180509.995000", "180511.485000", "180512.975000", "180514.465000", "180515.955000", "180517.445000", "180518.935000", "180520.425000", "180521.915000", "180523.405000", "180524.895000", "180526.385000", "180527.875000", "180529.365000", "180530.855000", "180532.345000", "180533.835000", "180535.325000", "180536.815000", "180538.305000", "180539.795000", "180541.285000", "180542.775000", "180544.265000", "180545.755000", "180547.245000", "180548.735000", "180550.225000", "180551.715000", "180553.205000", "180554.695000", "180556.185000", "180557.675000", "180559.165000", "180600.655000", "180602.145000", "180603.635000", "180605.125000", "180606.615000", "180608.105000", "180609.595000", "180611.085000", "180612.575000", "180614.065000", "180615.555000", "180617.045000", "180618.535000", "180620.025000", "180621.515000", "180623.005000", "180624.495000", "180625.985000", "180627.475000", "180628.965000", "180630.455000", "180631.945000", "180633.435000", "180634.925000", "180636.415000", "180637.905000", "180639.395000", "180640.885000", "180642.375000", "180643.865000", "180645.355000", "180646.845000", "180648.335000", "180649.825000", "180651.315000", "180652.805000", "180654.295000", "180655.785000", "180657.275000", "180658.765000", "180700.255000", "180701.745000", "180703.235000", "180704.725000", "180706.215000", "180707.705000", "180709.195000", "180710.685000", "180712.175000", "180713.665000", "180715.155000", "180716.645000", "180718.135000", "180719.625000", "180721.115000", "180722.605000", "180724.095000", "180725.585000", "180727.075000", "180728.565000", "180730.055000", "180731.545000", "180733.035000", "180734.525000", "180736.015000", "180737.505000", "180738.995000", "180740.485000", "180741.975000", "180743.465000", "180744.955000", "180746.445000", "180747.935000", "180749.425000", "180750.915000", "180752.405000", "180753.895000", "180755.385000", "180756.875000", "180758.365000", "180759.855000", "180801.345000", "180802.835000", "180804.325000", "180805.815000", "180807.305000", "180808.795000", "180810.285000", "180811.775000", "180813.265000", "180814.755000", "180816.245000", "180817.735000", "180819.225000", "180820.715000", "180822.205000", "180823.695000", "180825.185000", "180826.675000", "180828.165000", "180829.655000", "180831.145000", "180832.635000", "180834.125000", "180835.615000", "180837.105000", "180838.595000", "180840.085000", "180841.575000", "180843.065000", "180844.555000", "180846.045000", "180847.535000", "180849.025000", "180850.515000", "180852.005000", "180853.495000", "180854.985000", "180856.475000", "180857.965000", "180859.455000", "180900.945000", "180902.435000", "180903.925000", "180905.415000", "180906.905000", "180908.395000", "180909.885000", "180911.375000", "180912.865000", "180914.355000", "180915.845000", "180917.335000", "180918.825000", "180920.315000", "180921.805000", "180923.295000", "180924.785000", "180926.275000", "180927.765000", "180929.255000", "180930.745000", "180932.235000", "180933.725000", "180935.215000", "180936.705000", "180938.195000", "180939.685000", "180941.175000", "180942.665000", "180944.155000", "180945.645000", "180947.135000", "180948.625000", "180950.115000", "180951.605000", "180953.095000", "180954.585000", "180956.075000", "180957.565000", "180959.055000", "181000.545000", "181002.035000", "181003.525000", "181005.015000", "181006.505000", "181007.995000", "181009.485000", "181010.975000", "181012.465000", "181013.955000", "181015.445000", "181016.935000", "181018.425000", "181019.915000", "181021.405000", "181022.895000", "181024.385000", "181025.875000", "181027.365000", "181028.855000", "181030.345000", "181031.835000", "181033.325000", "181034.815000", "181036.305000", "181037.795000", "181039.285000", "181040.775000", "181042.265000", "181043.755000", "181045.245000", "181046.735000", "181048.225000", "181049.715000", "181051.205000", "181052.695000", "181054.185000", "181055.675000", "181057.165000", "181058.655000", "181100.145000", "181101.635000", "181103.125000", "181104.615000", "181106.105000", "181107.595000", "181109.085000", "181110.575000", "181112.065000", "181113.555000", "181115.045000", "181116.535000", "181118.025000", "181119.515000", "181121.005000", "181122.495000", "181123.985000", "181125.475000", "181126.965000", "181128.455000", "181129.945000", "181131.435000", "181132.925000", "181134.415000", "181135.905000", "181137.395000", "181138.885000", "181140.375000", "181141.865000", "181143.355000", "181144.845000", "181146.335000", "181147.825000", "181149.315000", "181150.805000", "181152.295000", "181153.785000", "181155.275000", "181156.765000", "181158.255000", "181159.745000", "181201.235000", "181202.725000", "181204.215000", "181205.705000", "181207.195000", "181208.685000", "181210.175000", "181211.665000", "181213.155000", "181214.645000", "181216.135000", "181217.625000", "181219.115000", "181220.605000", "181222.095000", "181223.585000", "181225.075000", "181226.565000", "181228.055000", "181229.545000", "181231.035000", "181232.525000", "181234.015000", "181235.505000", "181236.995000", "181238.485000", "181239.975000", "181241.465000", "181242.955000", "181244.445000", "181245.935000", "181247.425000", "181248.915000", "181250.405000", "181251.895000", "181253.385000", "181254.875000", "181256.365000", "181257.855000", "181259.345000"],
      "ContentTime": ["180254.066000", "180254.070000", "180254.073000", "180254.075000", "180254.078000", "180254.103000", "180254.106000", "180254.109000", "180254.112000", "180254.115000", "180254.125000", "180254.128000", "180254.131000", "180254.134000", "180254.137000", "180254.140000", "180254.143000", "180254.146000", "180254.148000", "180254.151000", "180254.154000", "180314.032000", "180314.035000", "180314.038000", "180314.041000", "180314.044000", "180314.047000", "180314.050000", "180314.053000", "180314.055000", "180314.058000", "180314.061000", "180314.064000", "180314.067000", "180314.070000", "180314.073000", "180314.076000", "180314.078000", "180314.081000", "180314.084000", "180314.087000", "180334.032000", "180334.035000", "180334.038000", "180334.041000", "180334.044000", "180334.046000", "180334.049000", "180334.052000", "180334.055000", "180334.058000", "180334.068000", "180334.084000", "180334.086000", "180334.090000", "180334.093000", "180334.096000", "180334.099000", "180334.102000", "180334.105000", "180334.108000", "180354.033000", "180354.036000", "180354.039000", "180354.042000", "180354.045000", "180354.048000", "180354.051000", "180354.054000", "180354.057000", "180354.059000", "180354.062000", "180354.065000", "180354.068000", "180354.071000", "180354.074000", "180354.077000", "180354.080000", "180354.082000", "180354.086000", "180354.088000", "180414.033000", "180414.036000", "180414.039000", "180414.042000", "180414.045000", "180414.048000", "180414.050000", "180414.053000", "180414.056000", "180414.059000", "180414.062000", "180414.065000", "180414.068000", "180414.071000", "180414.074000", "180414.077000", "180414.080000", "180414.083000", "180414.085000", "180414.088000", "180414.091000", "180454.032000", "180454.035000", "180454.038000", "180454.041000", "180454.044000", "180454.047000", "180454.050000", "180454.053000", "180454.056000", "180454.058000", "180454.061000", "180454.064000", "180454.067000", "180454.070000", "180454.073000", "180454.076000", "180454.079000", "180454.082000", "180454.085000", "180454.088000", "180454.090000", "180454.093000", "180454.096000", "180454.099000", "180454.102000", "180454.105000", "180454.108000", "180454.111000", "180534.032000", "180534.035000", "180534.038000", "180534.041000", "180534.044000", "180534.047000", "180534.050000", "180534.053000", "180534.056000", "180534.059000", "180534.062000", "180534.064000", "180534.067000", "180534.070000", "180534.073000", "180534.076000", "180534.079000", "180534.082000", "180534.085000", "180534.088000", "180534.091000", "180534.094000", "180534.097000", "180534.100000", "180534.102000", "180534.106000", "180534.108000", "180614.033000", "180614.036000", "180614.039000", "180614.042000", "180614.045000", "180614.048000", "180614.051000", "180614.053000", "180614.057000", "180614.059000", "180614.062000", "180614.065000", "180614.068000", "180614.071000", "180614.074000", "180614.077000", "180614.080000", "180614.083000", "180614.085000", "180614.088000", "180614.091000", "180614.094000", "180614.097000", "180614.100000", "180614.103000", "180614.106000", "180614.109000", "180654.033000", "180654.036000", "180654.039000", "180654.042000", "180654.045000", "180654.048000", "180654.051000", "180654.054000", "180654.057000", "180654.059000", "180654.062000", "180654.065000", "180654.068000", "180654.071000", "180654.074000", "180654.077000", "180654.080000", "180654.083000", "180654.086000", "180654.089000", "180654.092000", "180654.094000", "180654.097000", "180654.100000", "180654.103000", "180654.106000", "180654.109000", "180734.032000", "180734.035000", "180734.038000", "180734.041000", "180734.044000", "180734.047000", "180734.050000", "180734.053000", "180734.056000", "180734.059000", "180734.062000", "180734.064000", "180734.068000", "180734.070000", "180734.073000", "180734.076000", "180734.079000", "180734.082000", "180734.085000", "180734.088000", "180734.091000", "180734.094000", "180734.097000", "180734.100000", "180734.103000", "180734.106000", "180814.033000", "180814.036000", "180814.039000", "180814.042000", "180814.045000", "180814.058000", "180814.061000", "180814.064000", "180814.067000", "180814.069000", "180814.072000", "180814.075000", "180814.078000", "180814.081000", "180814.084000", "180814.087000", "180814.090000", "180814.105000", "180814.108000", "180814.111000", "180814.114000", "180814.117000", "180814.120000", "180814.123000", "180814.126000", "180814.128000", "180814.131000", "180854.033000", "180854.036000", "180854.039000", "180854.043000", "180854.046000", "180854.048000", "180854.051000", "180854.054000", "180854.057000", "180854.060000", "180854.063000", "180854.066000", "180854.069000", "180854.072000", "180854.075000", "180854.078000", "180854.081000", "180854.083000", "180854.086000", "180854.089000", "180854.092000", "180854.095000", "180854.098000", "180854.101000", "180854.104000", "180854.107000", "180854.110000", "180934.032000", "180934.035000", "180934.038000", "180934.041000", "180934.044000", "180934.047000", "180934.050000", "180934.053000", "180934.056000", "180934.059000", "180934.062000", "180934.065000", "180934.067000", "180934.070000", "180934.073000", "180934.076000", "180934.079000", "180934.082000", "180934.085000", "180934.088000", "180934.091000", "180934.094000", "180934.097000", "180934.100000", "180934.102000", "180934.105000", "180934.108000", "181014.032000", "181014.035000", "181014.038000", "181014.041000", "181014.044000", "181014.047000", "181014.050000", "181014.053000", "181014.056000", "181014.059000", "181014.062000", "181014.065000", "181014.067000", "181014.070000", "181014.073000", "181014.076000", "181014.079000", "181014.082000", "181014.085000", "181014.088000", "181014.091000", "181014.094000", "181014.097000", "181014.099000", "181014.102000", "181014.105000", "181014.108000", "181054.033000", "181054.036000", "181054.039000", "181054.042000", "181054.045000", "181054.048000", "181054.051000", "181054.054000", "181054.057000", "181054.060000", "181054.063000", "181054.066000", "181054.069000", "181054.071000", "181054.074000", "181054.077000", "181054.080000", "181054.083000", "181054.086000", "181054.089000", "181054.092000", "181054.095000", "181054.098000", "181054.101000", "181054.104000", "181054.107000", "181054.109000", "181134.033000", "181134.036000", "181134.039000", "181134.042000", "181134.045000", "181134.048000", "181134.051000", "181134.054000", "181134.057000", "181134.060000", "181134.063000", "181134.066000", "181134.069000", "181134.071000", "181134.074000", "181134.077000", "181134.080000", "181134.083000", "181134.086000", "181134.089000", "181134.092000", "181134.095000", "181134.098000", "181134.101000", "181134.104000", "181134.106000", "181134.109000", "181214.032000", "181214.035000", "181214.054000", "181214.057000", "181214.060000", "181214.063000", "181214.066000", "181214.069000", "181214.072000", "181214.075000", "181214.078000", "181214.081000", "181214.084000", "181214.087000", "181214.090000", "181214.093000", "181214.097000", "181214.100000", "181214.102000", "181214.105000", "181214.108000", "181214.111000", "181214.114000", "181214.117000", "181214.120000", "181214.123000", "181254.033000", "181254.036000", "181254.039000", "181254.042000", "181254.055000", "181254.058000", "181254.061000", "181254.064000", "181254.067000", "181254.070000", "181254.072000", "181254.075000", "181254.078000", "181254.081000", "181254.084000", "181254.087000", "181254.090000", "181254.093000", "181254.096000", "181254.099000", "181254.102000", "181254.105000", "181254.108000", "181254.110000", "181254.114000", "181254.116000", "181254.119000", "181301.953000", "181301.956000", "181301.959000", "181301.962000", "181301.965000", "181301.968000"],
