{
  "AcquisitionMatrixPE": 104,
  "AcquisitionNumber": 1,
  "AcquisitionTime": "18:13:27.715000",
  "BandwidthPerPixelPhaseEncode": 17.17,
  "BaseResolution": 104,
  "BodyPartExamined": "BRAIN",
  "CoilString": "HC1-7;NC1_2",
  "ConsistencyInfo": "N4_VE11C_LATEST_20160120",
  "ConversionSoftware": "dcm2niix",
  "ConversionSoftwareVersion": "v1.0.20190902",
  "DerivedVendorReportedEchoSpacing": 0.000560011,
  "DeviceSerialNumber": "167006",
  "DwellTime": 2.1e-06,
  "EchoTime": 0.037,
  "EchoTrainLength": 104,
  "EffectiveEchoSpacing": 0.000560011,
  "FlipAngle": 52,
  "ImageComments": "Unaliased_MB4_PE3_LB",
  "ImageOrientationPatientDICOM": [0.999777, 0.00778551, 0.0196372, -0.00348988, 0.977706, -0.209951],
  "ImageType": [
    "ORIGINAL",
    "PRIMARY",
    "M",
    "MB",
    "ND",
    "MOSAIC"
],
  "ImagingFrequency": 123.259,
  "InPlanePhaseEncodingDirectionDICOM": "COL",
  "InstitutionAddress": "Chemin_Queen-Mary_4565_Montreal_District_CA_H3W_1W5",
  "InstitutionName": "IUGM",
  "InstitutionalDepartmentName": "Department",
  "MRAcquisitionType": "2D",
  "MagneticFieldStrength": 3,
  "Manufacturer": "Siemens",
  "ManufacturersModelName": "Prisma_fit",
  "Modality": "MR",
  "MultibandAccelerationFactor": 4,
  "PartialFourier": 1,
  "PatientPosition": "HFS",
  "PercentPhaseFOV": 100,
  "PhaseEncodingDirection": "j",
  "PhaseEncodingSteps": 104,
  "PhaseResolution": 1,
  "PixelBandwidth": 2290,
  "ProcedureStepDescription": "video_friends",
  "ProtocolName": "func_task-friends-s05e23d",
  "PulseSequenceDetails": "%CustomerSeq%_cmrr_mbep2d_bold",
  "ReceiveCoilActiveElements": "HC1-7;NC1,2",
  "ReceiveCoilName": "HeadNeck_64",
  "ReconMatrixPE": 104,
  "RepetitionTime": 1.49,
  "SAR": 0.0300185,
  "ScanOptions": "FS",
  "ScanningSequence": "EP",
  "SequenceName": "epfid2d1_104",
  "SequenceVariant": "SK_SS",
  "SeriesDescription": "func_task-friends-s05e23d",
  "SeriesNumber": 24,
  "ShimSetting": [648, -7247, -8757, 724, 55, -70, 145, 1],
  "SliceThickness": 2,
  "SliceTiming": [0, 0.785, 0.0975, 0.8825, 0.1975, 0.98, 0.295, 1.0775, 0.3925, 1.1775, 0.49, 1.275, 0.5875, 1.3725, 0.6875, 0, 0.785, 0.0975, 0.8825, 0.1975, 0.98, 0.295, 1.0775, 0.3925, 1.1775, 0.49, 1.275, 0.5875, 1.3725, 0.6875, 0, 0.785, 0.0975, 0.8825, 0.1975, 0.98, 0.295, 1.0775, 0.3925, 1.1775, 0.49, 1.275, 0.5875, 1.3725, 0.6875, 0, 0.785, 0.0975, 0.8825, 0.1975, 0.98, 0.295, 1.0775, 0.3925, 1.1775, 0.49, 1.275, 0.5875, 1.3725, 0.6875],
  "SoftwareVersions": "syngo_MR_E11",
  "SpacingBetweenSlices": 2,
  "StationName": "MRC35049",
  "TaskName": "s05e23d",
  "TotalReadoutTime": 0.0576811,
  "TxRefAmp": 206.18,
  "WipMemBlock": "b361c787-f3cc-4da2-bd8b-a35883414d02||Sequence: R016 ve11c/master r/e634e98; Dec 19 2017 11:00:25 by eja",
  "dcmmeta_affine": [
    [-1.9995536804199219, -0.006979751400649548, 0.04166790097951889, 104.06172943115234],
    [-0.01557102520018816, 1.955411434173584, -0.4196711480617523, -85.85767364501953],
    [0.039274346083402634, 0.41990190744400024, 1.9550293684005737, -48.13481140136719],
    [0.0, 0.0, 0.0, 1.0]
],
  "dcmmeta_reorient_transform": [
    [0.0, -1.0, 0.0, 103.0],
    [1.0, 0.0, 0.0, 0.0],
    [0.0, 0.0, 1.0, 0.0],
    [0.0, 0.0, 0.0, 1.0]
],
  "dcmmeta_shape": [104, 104, 60, 488],
  "dcmmeta_slice_dim": 2,
  "dcmmeta_version": 0.6,
  "global": {
    "const": {
      "AcquisitionMatrix": [104, 0, 0, 104],
      "AngioFlag": "N",
      "BitsAllocated": 16,
      "BitsStored": 16,
      "BodyPartExamined": "BRAIN",
      "Columns": 832,
      "EchoNumbers": 1,
      "EchoTime": 37.0,
      "EchoTrainLength": 104,
      "FlipAngle": 52.0,
      "HighBit": 15,
      "ImageOrientationPatient": [0.99977685873184, 0.00778551271935, 0.01963717230125, -0.003489875653, 0.97770568957212, -0.2099509593839],
      "ImagePositionPatient": [-828.63973645574, -832.98729026897, 133.66352149059],
      "ImageType": [
        "ORIGINAL",
        "PRIMARY",
        "M",
        "MB",
        "ND",
        "MOSAIC"
],
      "ImagedNucleus": "1H",
      "ImagingFrequency": 123.258973,
      "InPlanePhaseEncodingDirection": "COL",
      "MRAcquisitionType": "2D",
      "MagneticFieldStrength": 3.0,
      "Manufacturer": "SIEMENS",
      "ManufacturerModelName": "Prisma_fit",
      "Modality": "MR",
      "NumberOfAverages": 1.0,
      "NumberOfPhaseEncodingSteps": 104,
      "PercentPhaseFieldOfView": 100.0,
      "PercentSampling": 100.0,
      "PerformedProcedureStepStartTime": "170333.455000",
      "PhotometricInterpretation": "MONOCHROME2",
      "PixelBandwidth": 2290.0,
      "PixelRepresentation": 0,
      "PixelSpacing": [2.0, 2.0],
      "ProtocolName": "func_task-friends-s05e23d",
      "RepetitionTime": 1490.0,
      "Rows": 832,
      "SAR": 0.03001851113672,
      "SamplesPerPixel": 1,
      "ScanOptions": "FS",
      "ScanningSequence": "EP",
      "SequenceName": "epfid2d1_104",
      "SequenceVariant": [
        "SK",
        "SS"
],
      "SeriesDescription": "func_task-friends-s05e23d",
      "SeriesNumber": 24,
      "SeriesTime": "181456.347000",
      "SliceLocation": -26.868474787674,
      "SliceThickness": 2.0,
      "SmallestImagePixelValue": 0,
      "SoftwareVersions": "syngo MR E11",
      "SpacingBetweenSlices": 1.9999999587523,
      "SpecificCharacterSet": "ISO_IR 100",
      "StudyID": "1",
      "StudyTime": "170333.395000",
      "TransmitCoilName": "Body",
      "VariableFlipAngleFlag": "N",
      "WindowCenterWidthExplanation": "Algo1",
      "dBdt": 0.0},
    "slices": {}
  },
  "time": {
    "samples": {
      "AcquisitionNumber": [1, 2, 3, 4, 5, 6, 7, 8, 9, 10, 11, 12, 13, 14, 15, 16, 17, 18, 19, 20, 21, 22, 23, 24, 25, 26, 27, 28, 29, 30, 31, 32, 33, 34, 35, 36, 37, 38, 39, 40, 41, 42, 43, 44, 45, 46, 47, 48, 49, 50, 51, 52, 53, 54, 55, 56, 57, 58, 59, 60, 61, 62, 63, 64, 65, 66, 67, 68, 69, 70, 71, 72, 73, 74, 75, 76, 77, 78, 79, 80, 81, 82, 83, 84, 85, 86, 87, 88, 89, 90, 91, 92, 93, 94, 95, 96, 97, 98, 99, 100, 101, 102, 103, 104, 105, 106, 107, 108, 109, 110, 111, 112, 113, 114, 115, 116, 117, 118, 119, 120, 121, 122, 123, 124, 125, 126, 127, 128, 129, 130, 131, 132, 133, 134, 135, 136, 137, 138, 139, 140, 141, 142, 143, 144, 145, 146, 147, 148, 149, 150, 151, 152, 153, 154, 155, 156, 157, 158, 159, 160, 161, 162, 163, 164, 165, 166, 167, 168, 169, 170, 171, 172, 173, 174, 175, 176, 177, 178, 179, 180, 181, 182, 183, 184, 185, 186, 187, 188, 189, 190, 191, 192, 193, 194, 195, 196, 197, 198, 199, 200, 201, 202, 203, 204, 205, 206, 207, 208, 209, 210, 211, 212, 213, 214, 215, 216, 217, 218, 219, 220, 221, 222, 223, 224, 225, 226, 227, 228, 229, 230, 231, 232, 233, 234, 235, 236, 237, 238, 239, 240, 241, 242, 243, 244, 245, 246, 247, 248, 249, 250, 251, 252, 253, 254, 255, 256, 257, 258, 259, 260, 261, 262, 263, 264, 265, 266, 267, 268, 269, 270, 271, 272, 273, 274, 275, 276, 277, 278, 279, 280, 281, 282, 283, 284, 285, 286, 287, 288, 289, 290, 291, 292, 293, 294, 295, 296, 297, 298, 299, 300, 301, 302, 303, 304, 305, 306, 307, 308, 309, 310, 311, 312, 313, 314, 315, 316, 317, 318, 319, 320, 321, 322, 323, 324, 325, 326, 327, 328, 329, 330, 331, 332, 333, 334, 335, 336, 337, 338, 339, 340, 341, 342, 343, 344, 345, 346, 347, 348, 349, 350, 351, 352, 353, 354, 355, 356, 357, 358, 359, 360, 361, 362, 363, 364, 365, 366, 367, 368, 369, 370, 371, 372, 373, 374, 375, 376, 377, 378, 379, 380, 381, 382, 383, 384, 385, 386, 387, 388, 389, 390, 391, 392, 393, 394, 395, 396, 397, 398, 399, 400, 401, 402, 403, 404, 405, 406, 407, 408, 409, 410, 411, 412, 413, 414, 415, 416, 417, 418, 419, 420, 421, 422, 423, 424, 425, 426, 427, 428, 429, 430, 431, 432, 433, 434, 435, 436, 437, 438, 439, 440, 441, 442, 443, 444, 445, 446, 447, 448, 449, 450, 451, 452, 453, 454, 455, 456, 457, 458, 459, 460, 461, 462, 463, 464, 465, 466, 467, 468, 469, 470, 471, 472, 473, 474, 475, 476, 477, 478, 479, 480, 481, 482, 483, 484, 485, 486, 487, 488],
      "AcquisitionTime": ["181327.715000", "181329.205000", "181330.695000", "181332.185000", "181333.675000", "181335.165000", "181336.655000", "181338.145000", "181339.635000", "181341.125000", "181342.615000", "181344.105000", "181345.595000", "181347.085000", "181348.575000", "181350.065000", "181351.555000", "181353.045000", "181354.535000", "181356.025000", "181357.515000", "181359.005000", "181400.495000", "181401.985000", "181403.475000", "181404.965000", "181406.455000", "181407.945000", "181409.435000", "181410.925000", "181412.415000", "181413.905000", "181415.395000", "181416.885000", "181418.375000", "181419.865000", "181421.355000", "181422.845000", "181424.335000", "181425.825000", "181427.315000", "181428.805000", "181430.295000", "181431.785000", "181433.275000", "181434.765000", "181436.255000", "181437.745000", "181439.235000", "181440.725000", "181442.215000", "181443.705000", "181445.195000", "181446.685000", "181448.175000", "181449.665000", "181451.155000", "181452.645000", "181454.135000", "181455.625000", "181457.115000", "181458.605000", "181500.095000", "181501.585000", "181503.075000", "181504.565000", "181506.055000", "181507.545000", "181509.035000", "181510.525000", "181512.015000", "181513.505000", "181514.995000", "181516.485000", "181517.975000", "181519.465000", "181520.955000", "181522.445000", "181523.935000", "181525.425000", "181526.915000", "181528.405000", "181529.895000", "181531.385000", "181532.875000", "181534.365000", "181535.855000", "181537.345000", "181538.835000", "181540.325000", "181541.815000", "181543.305000", "181544.795000", "181546.285000", "181547.775000", "181549.265000", "181550.755000", "181552.245000", "181553.735000", "181555.225000", "181556.715000", "181558.205000", "181559.695000", "181601.185000", "181602.675000", "181604.165000", "181605.655000", "181607.145000", "181608.635000", "181610.125000", "181611.615000", "181613.105000", "181614.595000", "181616.085000", "181617.575000", "181619.065000", "181620.555000", "181622.045000", "181623.535000", "181625.025000", "181626.515000", "181628.005000", "181629.495000", "181630.985000", "181632.475000", "181633.965000", "181635.455000", "181636.945000", "181638.435000", "181639.925000", "181641.415000", "181642.905000", "181644.395000", "181645.885000", "181647.375000", "181648.865000", "181650.355000", "181651.845000", "181653.335000", "181654.825000", "181656.315000", "181657.805000", "181659.295000", "181700.785000", "181702.275000", "181703.765000", "181705.255000", "181706.745000", "181708.235000", "181709.725000", "181711.215000", "181712.705000", "181714.195000", "181715.685000", "181717.175000", "181718.665000", "181720.155000", "181721.645000", "181723.135000", "181724.625000", "181726.115000", "181727.605000", "181729.095000", "181730.585000", "181732.075000", "181733.565000", "181735.055000", "181736.545000", "181738.035000", "181739.525000", "181741.015000", "181742.505000", "181743.995000", "181745.485000", "181746.975000", "181748.465000", "181749.955000", "181751.445000", "181752.935000", "181754.425000", "181755.915000", "181757.405000", "181758.895000", "181800.385000", "181801.875000", "181803.365000", "181804.855000", "181806.345000", "181807.835000", "181809.325000", "181810.815000", "181812.305000", "181813.795000", "181815.285000", "181816.775000", "181818.265000", "181819.755000", "181821.245000", "181822.735000", "181824.225000", "181825.715000", "181827.205000", "181828.695000", "181830.185000", "181831.675000", "181833.165000", "181834.655000", "181836.145000", "181837.635000", "181839.125000", "181840.615000", "181842.105000", "181843.595000", "181845.085000", "181846.575000", "181848.065000", "181849.555000", "181851.045000", "181852.535000", "181854.025000", "181855.515000", "181857.005000", "181858.495000", "181859.985000", "181901.475000", "181902.965000", "181904.455000", "181905.945000", "181907.435000", "181908.925000", "181910.415000", "181911.905000", "181913.395000", "181914.885000", "181916.375000", "181917.865000", "181919.355000", "181920.845000", "181922.335000", "181923.825000", "181925.315000", "181926.805000", "181928.295000", "181929.785000", "181931.275000", "181932.765000", "181934.255000", "181935.745000", "181937.235000", "181938.725000", "181940.215000", "181941.705000", "181943.195000", "181944.685000", "181946.175000", "181947.665000", "181949.155000", "181950.645000", "181952.135000", "181953.625000", "181955.115000", "181956.605000", "181958.095000", "181959.585000", "182001.075000", "182002.565000", "182004.055000", "182005.545000", "182007.035000", "182008.525000", "182010.015000", "182011.505000", "182012.995000", "182014.485000", "182015.975000", "182017.465000", "182018.955000", "182020.445000", "182021.935000", "182023.425000", "182024.915000", "182026.405000", "182027.895000", "182029.385000", "182030.875000", "182032.365000", "182033.855000", "182035.345000", "182036.835000", "182038.325000", "182039.815000", "182041.305000", "182042.795000", "182044.285000", "182045.775000", "182047.265000", "182048.755000", "182050.245000", "182051.735000", "182053.225000", "182054.715000", "182056.205000", "182057.695000", "182059.185000", "182100.675000", "182102.165000", "182103.655000", "182105.145000", "182106.635000", "182108.125000", "182109.615000", "182111.105000", "182112.595000", "182114.085000", "182115.575000", "182117.065000", "182118.555000", "182120.045000", "182121.535000", "182123.025000", "182124.515000", "182126.005000", "182127.495000", "182128.985000", "182130.475000", "182131.965000", "182133.455000", "182134.945000", "182136.435000", "182137.925000", "182139.415000", "182140.905000", "182142.395000", "182143.885000", "182145.375000", "182146.865000", "182148.355000", "182149.845000", "182151.335000", "182152.825000", "182154.315000", "182155.805000", "182157.295000", "182158.785000", "182200.275000", "182201.765000", "182203.255000", "182204.745000", "182206.235000", "182207.725000", "182209.215000", "182210.705000", "182212.195000", "182213.685000", "182215.175000", "182216.665000", "182218.155000", "182219.645000", "182221.135000", "182222.625000", "182224.115000", "182225.605000", "182227.095000", "182228.585000", "182230.075000", "182231.565000", "182233.055000", "182234.545000", "182236.035000", "182237.525000", "182239.015000", "182240.505000", "182241.995000", "182243.485000", "182244.975000", "182246.465000", "182247.955000", "182249.445000", "182250.935000", "182252.425000", "182253.915000", "182255.405000", "182256.895000", "182258.385000", "182259.875000", "182301.365000", "182302.855000", "182304.345000", "182305.835000", "182307.325000", "182308.815000", "182310.305000", "182311.795000", "182313.285000", "182314.775000", "182316.265000", "182317.755000", "182319.245000", "182320.735000", "182322.225000", "182323.715000", "182325.205000", "182326.695000", "182328.185000", "182329.675000", "182331.165000", "182332.655000", "182334.145000", "182335.635000", "182337.125000", "182338.615000", "182340.105000", "182341.595000", "182343.085000", "182344.575000", "182346.065000", "182347.555000", "182349.045000", "182350.535000", "182352.025000", "182353.515000", "182355.005000", "182356.495000", "182357.985000", "182359.475000", "182400.965000", "182402.455000", "182403.945000", "182405.435000", "182406.925000", "182408.415000", "182409.905000", "182411.395000", "182412.885000", "182414.375000", "182415.865000", "182417.355000", "182418.845000", "182420.335000", "182421.825000", "182423.315000", "182424.805000", "182426.295000", "182427.785000", "182429.275000", "182430.765000", "182432.255000", "182433.745000", "182435.235000", "182436.725000", "182438.215000", "182439.705000", "182441.195000", "182442.685000", "182444.175000", "182445.665000", "182447.155000", "182448.645000", "182450.135000", "182451.625000", "182453.115000", "182454.605000", "182456.095000", "182457.585000", "182459.075000", "182500.565000", "182502.055000", "182503.545000", "182505.035000", "182506.525000", "182508.015000", "182509.505000", "182510.995000", "182512.485000", "182513.975000", "182515.465000", "182516.955000", "182518.445000", "182519.935000", "182521.425000", "182522.915000", "182524.405000", "182525.895000", "182527.385000", "182528.875000", "182530.365000", "182531.855000", "182533.345000"],
      "ContentTime": ["181456.350000", "181456.353000", "181456.356000", "181456.359000", "181456.362000", "181456.365000", "181456.368000", "181456.371000", "181456.374000", "181456.377000", "181456.380000", "181456.383000", "181456.386000", "181456.388000", "181456.391000", "181456.394000", "181456.397000", "181456.400000", "181456.403000", "181456.406000", "181456.409000", "181456.424000", "181456.427000", "181456.430000", "181456.433000", "181456.435000", "181456.438000", "181456.441000", "181456.444000", "181456.447000", "181456.450000", "181456.453000", "181456.456000", "181456.460000", "181516.318000", "181516.321000", "181516.324000", "181516.327000", "181516.330000", "181516.333000", "181516.335000", "181516.338000", "181516.341000", "181516.344000", "181516.347000", "181516.350000", "181516.353000", "181516.360000", "181516.363000", "181516.366000", "181516.369000", "181516.372000", "181516.374000", "181516.378000", "181536.317000", "181536.320000", "181536.323000", "181536.326000", "181536.329000", "181536.331000", "181536.334000", "181536.337000", "181536.340000", "181536.343000", "181536.346000", "181536.349000", "181536.352000", "181536.355000", "181536.358000", "181536.363000", "181536.366000", "181536.369000", "181536.372000", "181536.375000", "181556.317000", "181556.320000", "181556.323000", "181556.326000", "181556.328000", "181556.332000", "181556.335000", "181556.337000", "181556.340000", "181556.343000", "181556.346000", "181556.349000", "181556.352000", "181556.355000", "181556.358000", "181556.361000", "181556.364000", "181556.367000", "181556.369000", "181556.372000", "181556.375000", "181636.317000", "181636.320000", "181636.323000", "181636.326000", "181636.329000", "181636.332000", "181636.335000", "181636.337000", "181636.340000", "181636.343000", "181636.346000", "181636.349000", "181636.352000", "181636.355000", "181636.358000", "181636.361000", "181636.364000", "181636.367000", "181636.370000", "181636.378000", "181636.381000", "181636.383000", "181636.386000", "181636.389000", "181636.392000", "181636.395000", "181636.398000", "181636.401000", "181636.404000", "181636.407000", "181636.410000", "181716.318000", "181716.321000", "181716.324000", "181716.327000", "181716.330000", "181716.333000", "181716.336000", "181716.340000", "181716.343000", "181716.346000", "181716.349000", "181716.352000", "181716.354000", "181716.357000", "181716.360000", "181716.363000", "181716.366000", "181716.369000", "181716.372000", "181716.375000", "181716.378000", "181716.381000", "181716.384000", "181716.387000", "181716.390000", "181716.393000", "181736.318000", "181736.321000", "181736.324000", "181736.327000", "181736.330000", "181736.333000", "181736.336000", "181736.338000", "181736.341000", "181736.345000", "181736.347000", "181736.350000", "181736.353000", "181736.356000", "181816.317000", "181816.320000", "181816.323000", "181816.326000", "181816.329000", "181816.332000", "181816.335000", "181816.338000", "181816.341000", "181816.344000", "181816.346000", "181816.349000", "181816.352000", "181816.355000", "181816.358000", "181816.361000", "181816.364000", "181816.367000", "181816.370000", "181816.373000", "181816.376000", "181816.379000", "181816.381000", "181816.384000", "181816.387000", "181816.390000", "181816.393000", "181856.317000", "181856.320000", "181856.323000", "181856.326000", "181856.329000", "181856.331000", "181856.334000", "181856.337000", "181856.340000", "181856.349000", "181856.352000", "181856.354000", "181856.357000", "181856.360000", "181856.363000", "181856.366000", "181856.369000", "181856.372000", "181856.375000", "181856.378000", "181856.380000", "181856.383000", "181856.386000", "181856.389000", "181856.392000", "181856.395000", "181856.398000", "181936.318000", "181936.321000", "181936.324000", "181936.327000", "181936.330000", "181936.333000", "181936.336000", "181936.338000", "181936.341000", "181936.344000", "181936.347000", "181936.350000", "181936.353000", "181936.356000", "181936.359000", "181936.362000", "181936.364000", "181936.367000", "181936.370000", "181936.373000", "181936.376000", "181936.379000", "181936.382000", "181936.385000", "181936.388000", "181936.390000", "182016.317000", "182016.320000", "182016.323000", "182016.326000", "182016.329000", "182016.331000", "182016.334000", "182016.337000", "182016.340000", "182016.343000", "182016.346000", "182016.349000", "182016.352000", "182016.355000", "182016.358000", "182016.360000", "182016.363000", "182016.366000", "182016.369000", "182016.372000", "182016.375000", "182016.378000", "182016.381000", "182016.384000", "182016.387000", "182016.389000", "182016.392000", "182056.317000", "182056.320000", "182056.323000", "182056.326000", "182056.329000", "182056.332000", "182056.334000", "182056.338000", "182056.340000", "182056.343000", "182056.346000", "182056.349000", "182056.352000", "182056.355000", "182056.358000", "182056.361000", "182056.364000", "182056.367000", "182056.370000", "182056.373000", "182056.375000", "182056.378000", "182056.381000", "182056.384000", "182056.387000", "182056.390000", "182056.393000", "182136.317000", "182136.320000", "182136.323000", "182136.326000", "182136.329000", "182136.332000", "182136.334000", "182136.337000", "182136.340000", "182136.343000", "182136.346000", "182136.349000", "182136.352000", "182136.355000", "182136.358000", "182136.360000", "182136.363000", "182136.366000", "182136.369000", "182136.372000", "182136.375000", "182136.384000", "182136.387000", "182136.390000", "182136.393000", "182136.396000", "182136.399000", "182216.318000", "182216.329000", "182216.332000", "182216.335000", "182216.338000", "182216.341000", "182216.344000", "182216.347000", "182216.364000", "182216.367000", "182216.370000", "182216.373000", "182216.376000", "182216.379000", "182216.382000", "182216.385000", "182216.388000", "182216.391000", "182216.394000", "182216.396000", "182216.399000", "182216.402000", "182216.405000", "182216.408000", "182216.411000", "182216.414000", "182216.417000", "182256.317000", "182256.320000", "182256.323000", "182256.326000", "182256.329000", "182256.332000", "182256.335000", "182256.338000", "182256.341000", "182256.343000", "182256.346000", "182256.349000", "182256.352000", "182256.355000", "182256.358000", "182256.361000", "182256.364000", "182256.367000", "182256.370000", "182256.372000", "182256.376000", "182256.378000", "182256.381000", "182256.384000", "182256.387000", "182256.390000", "182256.393000", "182336.317000", "182336.320000", "182336.323000", "182336.326000", "182336.329000", "182336.332000", "182336.335000", "182336.338000", "182336.341000", "182336.344000", "182336.347000", "182336.350000", "182336.353000", "182336.356000", "182336.358000", "182336.361000", "182336.364000", "182336.367000", "182336.370000", "182336.373000", "182336.376000", "182336.379000", "182336.382000", "182336.384000", "182336.387000", "182336.390000", "182416.318000", "182416.321000", "182416.324000", "182416.327000", "182416.330000", "182416.333000", "182416.336000", "182416.339000", "182416.342000", "182416.344000", "182416.347000", "182416.350000", "182416.353000", "182416.356000", "182416.359000", "182416.362000", "182416.365000", "182416.368000", "182416.371000", "182416.374000", "182416.377000", "182416.380000", "182416.383000", "182416.386000", "182416.388000", "182416.391000", "182416.394000", "182456.317000", "182456.320000", "182456.323000", "182456.326000", "182456.329000", "182456.332000", "182456.335000", "182456.338000", "182456.341000", "182456.344000", "182456.347000", "182456.350000", "182456.352000", "182456.355000", "182456.358000", "182456.361000", "182456.364000", "182456.367000", "182456.370000", "182456.373000", "182456.376000", "182456.379000", "182456.382000", "182456.385000", "182456.388000", "182456.391000", "182456.394000", "182535.658000", "182535.661000", "182535.664000", "182535.667000", "182535.670000", "182535.673000", "182535.676000", "182535.679000", "182535.682000", "182535.685000", "182535.688000", "182535.691000", "182535.694000", "182535.697000", "182535.699000", "182535.702000", "182535.705000", "182535.708000", "182535.711000", "182535.714000", "182535.717000", "182535.720000", "182535.723000", "182535.726000", "182535.729000", "182535.732000", "182535.735000"],
