{
  "AcquisitionMatrixPE": 104,
  "AcquisitionNumber": 1,
  "AcquisitionTime": "17:19:16.202500",
  "BandwidthPerPixelPhaseEncode": 17.17,
  "BaseResolution": 104,
  "BodyPartExamined": "BRAIN",
  "CoilString": "HC1-7;NC1_2",
  "ConsistencyInfo": "N4_VE11C_LATEST_20160120",
  "ConversionSoftware": "dcm2niix",
  "ConversionSoftwareVersion": "v1.0.20190902",
  "DerivedVendorReportedEchoSpacing": 0.000560011,
  "DeviceSerialNumber": "167006",
  "DwellTime": 2.1e-06,
  "EchoTime": 0.037,
  "EchoTrainLength": 104,
  "EffectiveEchoSpacing": 0.000560011,
  "FlipAngle": 52,
  "ImageComments": "Unaliased_MB4_PE3_LB",
  "ImageOrientationPatientDICOM": [0.999896, 0.0144059, 0.00114065, -0.0137875, 0.974658, -0.223276],
  "ImageType": [
    "ORIGINAL",
    "PRIMARY",
    "M",
    "MB",
    "ND",
    "MOSAIC"
],
  "ImagingFrequency": 123.259,
  "InPlanePhaseEncodingDirectionDICOM": "COL",
  "InstitutionAddress": "Chemin_Queen-Mary_4565_Montreal_District_CA_H3W_1W5",
  "InstitutionName": "IUGM",
  "InstitutionalDepartmentName": "Department",
  "MRAcquisitionType": "2D",
  "MagneticFieldStrength": 3,
  "Manufacturer": "Siemens",
  "ManufacturersModelName": "Prisma_fit",
  "Modality": "MR",
  "MultibandAccelerationFactor": 4,
  "PartialFourier": 1,
  "PatientPosition": "HFS",
  "PercentPhaseFOV": 100,
  "PhaseEncodingDirection": "j",
  "PhaseEncodingSteps": 104,
  "PhaseResolution": 1,
  "PixelBandwidth": 2290,
  "ProcedureStepDescription": "video_friends",
  "ProtocolName": "func_task-friends-s05e23a",
  "PulseSequenceDetails": "%CustomerSeq%_cmrr_mbep2d_bold",
  "ReceiveCoilActiveElements": "HC1-7;NC1,2",
  "ReceiveCoilName": "HeadNeck_64",
  "ReconMatrixPE": 104,
  "RepetitionTime": 1.49,
  "SAR": 0.0304729,
  "ScanOptions": "FS",
  "ScanningSequence": "EP",
  "SequenceName": "epfid2d1_104",
  "SequenceVariant": "SK_SS",
  "SeriesDescription": "func_task-friends-s05e23a",
  "SeriesNumber": 11,
  "ShimSetting": [639, -7232, -8713, 705, 41, -42, 102, -3],
  "SliceThickness": 2,
  "SliceTiming": [0, 0.785, 0.0975, 0.8825, 0.195, 0.98, 0.295, 1.0775, 0.3925, 1.175, 0.49, 1.275, 0.5875, 1.3725, 0.685, 0, 0.785, 0.0975, 0.8825, 0.195, 0.98, 0.295, 1.0775, 0.3925, 1.175, 0.49, 1.275, 0.5875, 1.3725, 0.685, 0, 0.785, 0.0975, 0.8825, 0.195, 0.98, 0.295, 1.0775, 0.3925, 1.175, 0.49, 1.275, 0.5875, 1.3725, 0.685, 0, 0.785, 0.0975, 0.8825, 0.195, 0.98, 0.295, 1.0775, 0.3925, 1.175, 0.49, 1.275, 0.5875, 1.3725, 0.685],
  "SoftwareVersions": "syngo_MR_E11",
  "SpacingBetweenSlices": 2,
  "StationName": "MRC35049",
  "TaskName": "s05e23a",
  "TotalReadoutTime": 0.0576811,
  "TxRefAmp": 206.606,
  "WipMemBlock": "430b085b-a547-41e3-a350-1aef5bd1b5f6||Sequence: R016 ve11c/master r/e634e98; Dec 19 2017 11:00:25 by eja",
  "dcmmeta_affine": [
    [-1.999791145324707, -0.027575086802244186, 0.008656437508761883, 106.08212280273438],
    [-0.02881171740591526, 1.9493156671524048, -0.4464733302593231, -84.39750671386719],
    [0.0022812935058027506, 0.44655144214630127, 1.9495092630386353, -37.071170806884766],
    [0.0, 0.0, 0.0, 1.0]
],
  "dcmmeta_reorient_transform": [
    [0.0, -1.0, 0.0, 103.0],
    [1.0, 0.0, 0.0, 0.0],
    [0.0, 0.0, 1.0, 0.0],
    [0.0, 0.0, 0.0, 1.0]
],
  "dcmmeta_shape": [104, 104, 60, 454],
  "dcmmeta_slice_dim": 2,
  "dcmmeta_version": 0.6,
  "global": {
    "const": {
      "AcquisitionMatrix": [104, 0, 0, 104],
      "AngioFlag": "N",
      "BitsAllocated": 16,
      "BitsStored": 16,
      "BodyPartExamined": "BRAIN",
      "Columns": 832,
      "EchoNumbers": 1,
      "EchoTime": 37.0,
      "EchoTrainLength": 104,
      "FlipAngle": 52.0,
      "HighBit": 15,
      "ImageOrientationPatient": [0.99989557963319, 0.01440585835286, 0.00114064679914, -0.0137875434087, 0.97465781596535, -0.2232757161547],
      "ImagePositionPatient": [-821.12854142176, -836.42035855588, 170.6379585907],
      "ImageType": [
        "ORIGINAL",
        "PRIMARY",
        "M",
        "MB",
        "ND",
        "MOSAIC"
],
      "ImagedNucleus": "1H",
      "ImagingFrequency": 123.258921,
      "InPlanePhaseEncodingDirection": "COL",
      "MRAcquisitionType": "2D",
      "MagneticFieldStrength": 3.0,
      "Manufacturer": "SIEMENS",
      "ManufacturerModelName": "Prisma_fit",
      "Modality": "MR",
      "NumberOfAverages": 1.0,
      "NumberOfPhaseEncodingSteps": 104,
      "PercentPhaseFieldOfView": 100.0,
      "PercentSampling": 100.0,
      "PerformedProcedureStepStartTime": "170333.455000",
      "PhotometricInterpretation": "MONOCHROME2",
      "PixelBandwidth": 2290.0,
      "PixelRepresentation": 0,
      "PixelSpacing": [2.0, 2.0],
      "ProtocolName": "func_task-friends-s05e23a",
      "RepetitionTime": 1490.0,
      "Rows": 832,
      "SAR": 0.03047287189347,
      "SamplesPerPixel": 1,
      "ScanOptions": "FS",
      "ScanningSequence": "EP",
      "SequenceName": "epfid2d1_104",
      "SequenceVariant": [
        "SK",
        "SS"
],
      "SeriesDescription": "func_task-friends-s05e23a",
      "SeriesNumber": 11,
      "SeriesTime": "172127.575000",
      "SliceLocation": -16.83552993166,
      "SliceThickness": 2.0,
      "SmallestImagePixelValue": 0,
      "SoftwareVersions": "syngo MR E11",
      "SpacingBetweenSlices": 1.9999999518924,
      "SpecificCharacterSet": "ISO_IR 100",
      "StudyID": "1",
      "StudyTime": "170333.395000",
      "TransmitCoilName": "Body",
      "VariableFlipAngleFlag": "N",
      "WindowCenterWidthExplanation": "Algo1",
      "dBdt": 0.0},
    "slices": {}
  },
  "time": {
    "samples": {
      "AcquisitionNumber": [1, 2, 3, 4, 5, 6, 7, 8, 9, 10, 11, 12, 13, 14, 15, 16, 17, 18, 19, 20, 21, 22, 23, 24, 25, 26, 27, 28, 29, 30, 31, 32, 33, 34, 35, 36, 37, 38, 39, 40, 41, 42, 43, 44, 45, 46, 47, 48, 49, 50, 51, 52, 53, 54, 55, 56, 57, 58, 59, 60, 61, 62, 63, 64, 65, 66, 67, 68, 69, 70, 71, 72, 73, 74, 75, 76, 77, 78, 79, 80, 81, 82, 83, 84, 85, 86, 87, 88, 89, 90, 91, 92, 93, 94, 95, 96, 97, 98, 99, 100, 101, 102, 103, 104, 105, 106, 107, 108, 109, 110, 111, 112, 113, 114, 115, 116, 117, 118, 119, 120, 121, 122, 123, 124, 125, 126, 127, 128, 129, 130, 131, 132, 133, 134, 135, 136, 137, 138, 139, 140, 141, 142, 143, 144, 145, 146, 147, 148, 149, 150, 151, 152, 153, 154, 155, 156, 157, 158, 159, 160, 161, 162, 163, 164, 165, 166, 167, 168, 169, 170, 171, 172, 173, 174, 175, 176, 177, 178, 179, 180, 181, 182, 183, 184, 185, 186, 187, 188, 189, 190, 191, 192, 193, 194, 195, 196, 197, 198, 199, 200, 201, 202, 203, 204, 205, 206, 207, 208, 209, 210, 211, 212, 213, 214, 215, 216, 217, 218, 219, 220, 221, 222, 223, 224, 225, 226, 227, 228, 229, 230, 231, 232, 233, 234, 235, 236, 237, 238, 239, 240, 241, 242, 243, 244, 245, 246, 247, 248, 249, 250, 251, 252, 253, 254, 255, 256, 257, 258, 259, 260, 261, 262, 263, 264, 265, 266, 267, 268, 269, 270, 271, 272, 273, 274, 275, 276, 277, 278, 279, 280, 281, 282, 283, 284, 285, 286, 287, 288, 289, 290, 291, 292, 293, 294, 295, 296, 297, 298, 299, 300, 301, 302, 303, 304, 305, 306, 307, 308, 309, 310, 311, 312, 313, 314, 315, 316, 317, 318, 319, 320, 321, 322, 323, 324, 325, 326, 327, 328, 329, 330, 331, 332, 333, 334, 335, 336, 337, 338, 339, 340, 341, 342, 343, 344, 345, 346, 347, 348, 349, 350, 351, 352, 353, 354, 355, 356, 357, 358, 359, 360, 361, 362, 363, 364, 365, 366, 367, 368, 369, 370, 371, 372, 373, 374, 375, 376, 377, 378, 379, 380, 381, 382, 383, 384, 385, 386, 387, 388, 389, 390, 391, 392, 393, 394, 395, 396, 397, 398, 399, 400, 401, 402, 403, 404, 405, 406, 407, 408, 409, 410, 411, 412, 413, 414, 415, 416, 417, 418, 419, 420, 421, 422, 423, 424, 425, 426, 427, 428, 429, 430, 431, 432, 433, 434, 435, 436, 437, 438, 439, 440, 441, 442, 443, 444, 445, 446, 447, 448, 449, 450, 451, 452, 453, 454],
      "AcquisitionTime": ["171916.202500", "171917.692500", "171919.182500", "171920.672500", "171922.162500", "171923.652500", "171925.142500", "171926.632500", "171928.122500", "171929.612500", "171931.102500", "171932.592500", "171934.082500", "171935.572500", "171937.062500", "171938.552500", "171940.042500", "171941.532500", "171943.022500", "171944.512500", "171946.002500", "171947.492500", "171948.982500", "171950.472500", "171951.962500", "171953.452500", "171954.942500", "171956.432500", "171957.922500", "171959.412500", "172000.902500", "172002.392500", "172003.882500", "172005.372500", "172006.862500", "172008.352500", "172009.842500", "172011.332500", "172012.822500", "172014.312500", "172015.802500", "172017.292500", "172018.782500", "172020.272500", "172021.762500", "172023.252500", "172024.742500", "172026.232500", "172027.722500", "172029.212500", "172030.702500", "172032.192500", "172033.682500", "172035.172500", "172036.662500", "172038.152500", "172039.642500", "172041.132500", "172042.622500", "172044.112500", "172045.602500", "172047.092500", "172048.582500", "172050.072500", "172051.562500", "172053.052500", "172054.542500", "172056.032500", "172057.522500", "172059.012500", "172100.502500", "172101.992500", "172103.482500", "172104.972500", "172106.462500", "172107.952500", "172109.442500", "172110.932500", "172112.422500", "172113.912500", "172115.402500", "172116.892500", "172118.382500", "172119.872500", "172121.362500", "172122.852500", "172124.342500", "172125.832500", "172127.322500", "172128.812500", "172130.302500", "172131.792500", "172133.282500", "172134.772500", "172136.262500", "172137.752500", "172139.242500", "172140.732500", "172142.222500", "172143.712500", "172145.202500", "172146.692500", "172148.182500", "172149.672500", "172151.162500", "172152.652500", "172154.142500", "172155.632500", "172157.122500", "172158.612500", "172200.102500", "172201.592500", "172203.082500", "172204.572500", "172206.062500", "172207.552500", "172209.042500", "172210.532500", "172212.022500", "172213.512500", "172215.002500", "172216.492500", "172217.982500", "172219.472500", "172220.962500", "172222.452500", "172223.942500", "172225.432500", "172226.922500", "172228.412500", "172229.902500", "172231.392500", "172232.882500", "172234.372500", "172235.862500", "172237.352500", "172238.842500", "172240.332500", "172241.822500", "172243.312500", "172244.802500", "172246.292500", "172247.782500", "172249.272500", "172250.762500", "172252.252500", "172253.742500", "172255.232500", "172256.722500", "172258.212500", "172259.702500", "172301.192500", "172302.682500", "172304.172500", "172305.662500", "172307.152500", "172308.642500", "172310.132500", "172311.622500", "172313.112500", "172314.602500", "172316.092500", "172317.582500", "172319.072500", "172320.562500", "172322.052500", "172323.542500", "172325.032500", "172326.522500", "172328.012500", "172329.502500", "172330.992500", "172332.482500", "172333.972500", "172335.462500", "172336.952500", "172338.442500", "172339.932500", "172341.422500", "172342.912500", "172344.402500", "172345.892500", "172347.382500", "172348.872500", "172350.362500", "172351.852500", "172353.342500", "172354.832500", "172356.322500", "172357.812500", "172359.302500", "172400.792500", "172402.282500", "172403.772500", "172405.262500", "172406.752500", "172408.242500", "172409.732500", "172411.222500", "172412.712500", "172414.202500", "172415.692500", "172417.182500", "172418.672500", "172420.162500", "172421.652500", "172423.142500", "172424.632500", "172426.122500", "172427.612500", "172429.102500", "172430.592500", "172432.082500", "172433.572500", "172435.062500", "172436.552500", "172438.042500", "172439.532500", "172441.022500", "172442.512500", "172444.002500", "172445.492500", "172446.982500", "172448.472500", "172449.962500", "172451.452500", "172452.942500", "172454.432500", "172455.922500", "172457.412500", "172458.902500", "172500.392500", "172501.882500", "172503.372500", "172504.862500", "172506.352500", "172507.842500", "172509.332500", "172510.822500", "172512.312500", "172513.802500", "172515.292500", "172516.782500", "172518.272500", "172519.762500", "172521.252500", "172522.742500", "172524.232500", "172525.722500", "172527.212500", "172528.702500", "172530.192500", "172531.682500", "172533.172500", "172534.662500", "172536.152500", "172537.642500", "172539.132500", "172540.622500", "172542.112500", "172543.602500", "172545.092500", "172546.582500", "172548.072500", "172549.562500", "172551.052500", "172552.542500", "172554.032500", "172555.522500", "172557.012500", "172558.502500", "172559.992500", "172601.482500", "172602.972500", "172604.462500", "172605.952500", "172607.442500", "172608.932500", "172610.422500", "172611.912500", "172613.402500", "172614.892500", "172616.382500", "172617.872500", "172619.362500", "172620.852500", "172622.342500", "172623.832500", "172625.322500", "172626.812500", "172628.302500", "172629.792500", "172631.282500", "172632.772500", "172634.262500", "172635.752500", "172637.242500", "172638.732500", "172640.222500", "172641.712500", "172643.202500", "172644.692500", "172646.182500", "172647.672500", "172649.162500", "172650.652500", "172652.142500", "172653.632500", "172655.122500", "172656.612500", "172658.102500", "172659.592500", "172701.082500", "172702.572500", "172704.062500", "172705.552500", "172707.042500", "172708.532500", "172710.022500", "172711.512500", "172713.002500", "172714.492500", "172715.982500", "172717.472500", "172718.962500", "172720.452500", "172721.942500", "172723.432500", "172724.922500", "172726.412500", "172727.902500", "172729.392500", "172730.882500", "172732.372500", "172733.862500", "172735.352500", "172736.842500", "172738.332500", "172739.822500", "172741.312500", "172742.802500", "172744.292500", "172745.782500", "172747.272500", "172748.762500", "172750.252500", "172751.742500", "172753.232500", "172754.722500", "172756.212500", "172757.702500", "172759.192500", "172800.682500", "172802.172500", "172803.662500", "172805.152500", "172806.642500", "172808.132500", "172809.622500", "172811.112500", "172812.602500", "172814.092500", "172815.582500", "172817.072500", "172818.562500", "172820.052500", "172821.542500", "172823.032500", "172824.522500", "172826.012500", "172827.502500", "172828.992500", "172830.482500", "172831.972500", "172833.462500", "172834.952500", "172836.442500", "172837.932500", "172839.422500", "172840.912500", "172842.402500", "172843.892500", "172845.382500", "172846.872500", "172848.362500", "172849.852500", "172851.342500", "172852.832500", "172854.322500", "172855.812500", "172857.302500", "172858.792500", "172900.282500", "172901.772500", "172903.262500", "172904.752500", "172906.242500", "172907.732500", "172909.222500", "172910.712500", "172912.202500", "172913.692500", "172915.182500", "172916.672500", "172918.162500", "172919.652500", "172921.142500", "172922.632500", "172924.122500", "172925.612500", "172927.102500", "172928.592500", "172930.082500", "172931.572500", "172933.062500", "172934.552500", "172936.042500", "172937.532500", "172939.022500", "172940.512500", "172942.002500", "172943.492500", "172944.982500", "172946.472500", "172947.962500", "172949.452500", "172950.942500", "172952.432500", "172953.922500", "172955.412500", "172956.902500", "172958.392500", "172959.882500", "173001.372500", "173002.862500", "173004.352500", "173005.842500", "173007.332500", "173008.822500", "173010.312500", "173011.802500", "173013.292500", "173014.782500", "173016.272500", "173017.762500", "173019.252500", "173020.742500", "173022.232500", "173023.722500", "173025.212500", "173026.702500", "173028.192500", "173029.682500", "173031.172500"],
      "ContentTime": ["172127.577000", "172127.581000", "172127.583000", "172127.587000", "172127.589000", "172127.592000", "172127.595000", "172127.598000", "172127.601000", "172127.604000", "172127.607000", "172127.610000", "172127.613000", "172127.615000", "172127.618000", "172127.621000", "172127.624000", "172127.627000", "172127.630000", "172127.639000", "172127.642000", "172127.645000", "172127.648000", "172127.651000", "172127.654000", "172127.657000", "172127.660000", "172127.663000", "172127.666000", "172127.669000", "172127.671000", "172127.674000", "172127.677000", "172127.680000", "172127.683000", "172127.686000", "172127.689000", "172147.534000", "172147.537000", "172147.540000", "172147.543000", "172147.546000", "172147.549000", "172147.552000", "172147.554000", "172147.557000", "172147.560000", "172147.563000", "172147.566000", "172147.569000", "172147.572000", "172147.575000", "172147.578000", "172147.581000", "172147.584000", "172147.594000", "172147.597000", "172207.534000", "172207.552000", "172207.554000", "172207.557000", "172207.560000", "172207.563000", "172207.566000", "172207.569000", "172207.572000", "172207.575000", "172207.578000", "172207.581000", "172207.584000", "172207.587000", "172207.590000", "172207.592000", "172207.603000", "172207.606000", "172207.609000", "172207.612000", "172227.534000", "172227.537000", "172227.540000", "172227.543000", "172227.546000", "172227.549000", "172227.552000", "172227.555000", "172227.558000", "172227.561000", "172227.564000", "172227.566000", "172227.569000", "172227.572000", "172227.575000", "172227.578000", "172227.581000", "172227.584000", "172227.587000", "172227.590000", "172247.535000", "172247.538000", "172247.541000", "172247.544000", "172247.547000", "172247.549000", "172247.552000", "172247.555000", "172247.558000", "172247.561000", "172247.564000", "172247.567000", "172247.570000", "172247.573000", "172247.576000", "172247.579000", "172247.582000", "172247.585000", "172247.587000", "172247.590000", "172247.593000", "172307.535000", "172307.554000", "172307.558000", "172307.560000", "172307.563000", "172307.566000", "172307.569000", "172307.572000", "172307.575000", "172307.578000", "172307.581000", "172307.584000", "172307.587000", "172307.590000", "172307.593000", "172307.596000", "172307.599000", "172307.601000", "172307.604000", "172307.607000", "172327.535000", "172327.538000", "172327.541000", "172327.544000", "172327.547000", "172327.550000", "172327.553000", "172327.556000", "172327.558000", "172327.561000", "172327.564000", "172327.567000", "172327.570000", "172327.573000", "172327.576000", "172327.579000", "172327.582000", "172327.585000", "172327.588000", "172327.591000", "172347.534000", "172347.537000", "172347.540000", "172347.543000", "172347.546000", "172347.549000", "172347.552000", "172347.554000", "172347.557000", "172347.560000", "172347.563000", "172347.568000", "172347.571000", "172347.574000", "172347.577000", "172347.580000", "172347.583000", "172347.586000", "172347.589000", "172347.592000", "172347.595000", "172427.534000", "172427.537000", "172427.540000", "172427.543000", "172427.546000", "172427.549000", "172427.552000", "172427.555000", "172427.558000", "172427.561000", "172427.564000", "172427.567000", "172427.570000", "172427.573000", "172427.576000", "172427.578000", "172427.581000", "172427.584000", "172427.587000", "172427.590000", "172427.593000", "172427.596000", "172427.599000", "172427.602000", "172427.605000", "172427.608000", "172427.611000", "172427.614000", "172427.616000", "172507.535000", "172507.538000", "172507.541000", "172507.544000", "172507.547000", "172507.550000", "172507.553000", "172507.556000", "172507.559000", "172507.562000", "172507.565000", "172507.568000", "172507.571000", "172507.574000", "172507.577000", "172507.579000", "172507.582000", "172507.585000", "172507.588000", "172507.591000", "172507.594000", "172507.597000", "172507.600000", "172507.603000", "172507.606000", "172507.609000", "172507.612000", "172547.535000", "172547.538000", "172547.541000", "172547.544000", "172547.547000", "172547.550000", "172547.553000", "172547.556000", "172547.559000", "172547.562000", "172547.565000", "172547.568000", "172547.571000", "172547.574000", "172547.577000", "172547.580000", "172547.583000", "172547.586000", "172547.588000", "172547.591000", "172547.594000", "172547.597000", "172547.600000", "172547.603000", "172547.606000", "172547.609000", "172547.612000", "172627.534000", "172627.537000", "172627.540000", "172627.543000", "172627.546000", "172627.549000", "172627.552000", "172627.555000", "172627.558000", "172627.561000", "172627.564000", "172627.567000", "172627.570000", "172627.573000", "172627.575000", "172627.578000", "172627.581000", "172627.584000", "172627.587000", "172627.590000", "172627.593000", "172627.596000", "172627.599000", "172627.602000", "172627.605000", "172627.608000", "172627.611000", "172707.534000", "172707.537000", "172707.540000", "172707.543000", "172707.546000", "172707.549000", "172707.552000", "172707.555000", "172707.558000", "172707.561000", "172707.564000", "172707.567000", "172707.570000", "172707.573000", "172707.576000", "172707.579000", "172707.582000", "172707.585000", "172707.588000", "172707.600000", "172707.603000", "172707.606000", "172707.609000", "172707.612000", "172707.615000", "172707.618000", "172727.535000", "172727.538000", "172727.541000", "172727.544000", "172727.547000", "172727.550000", "172727.553000", "172727.560000", "172727.562000", "172727.565000", "172727.568000", "172727.571000", "172727.574000", "172727.577000", "172807.535000", "172807.538000", "172807.541000", "172807.544000", "172807.547000", "172807.550000", "172807.553000", "172807.555000", "172807.558000", "172807.561000", "172807.564000", "172807.567000", "172807.570000", "172807.573000", "172807.576000", "172807.579000", "172807.582000", "172807.585000", "172807.587000", "172807.590000", "172807.593000", "172807.596000", "172807.599000", "172807.602000", "172807.605000", "172807.608000", "172807.611000", "172847.534000", "172847.537000", "172847.540000", "172847.544000", "172847.547000", "172847.550000", "172847.553000", "172847.556000", "172847.559000", "172847.562000", "172847.565000", "172847.567000", "172847.570000", "172847.573000", "172847.576000", "172847.579000", "172847.582000", "172847.585000", "172847.588000", "172847.591000", "172847.594000", "172847.597000", "172847.599000", "172847.602000", "172847.605000", "172847.608000", "172927.534000", "172927.537000", "172927.540000", "172927.543000", "172927.546000", "172927.549000", "172927.552000", "172927.555000", "172927.558000", "172927.561000", "172927.563000", "172927.566000", "172927.569000", "172927.572000", "172927.575000", "172927.578000", "172927.588000", "172927.591000", "172927.594000", "172927.597000", "172927.600000", "172927.603000", "172927.606000", "172927.608000", "172927.611000", "172927.614000", "172927.617000", "173007.535000", "173007.538000", "173007.541000", "173007.544000", "173007.547000", "173007.550000", "173007.553000", "173007.556000", "173007.559000", "173007.562000", "173007.565000", "173007.568000", "173007.571000", "173007.574000", "173007.576000", "173007.579000", "173007.582000", "173007.585000", "173007.588000", "173007.591000", "173007.594000", "173007.597000", "173007.600000", "173007.603000", "173007.606000", "173007.609000", "173007.611000", "173033.393000", "173033.396000", "173033.399000", "173033.402000", "173033.412000", "173033.415000", "173033.418000", "173033.421000", "173033.424000", "173033.426000", "173033.429000", "173033.432000", "173033.435000", "173033.438000", "173033.441000", "173033.444000", "173033.447000", "173033.450000"],
