{
  "AcquisitionMatrixPE": 104,
  "AcquisitionNumber": 1,
  "AcquisitionTime": "18:13:57.430000",
  "BandwidthPerPixelPhaseEncode": 17.17,
  "BaseResolution": 104,
  "BodyPartExamined": "BRAIN",
  "CoilCombinationMethod": "Sum of Squares",
  "ConsistencyInfo": "N4_VE11C_LATEST_20160120",
  "ConversionSoftware": "dcm2niix",
  "ConversionSoftwareVersion": "v1.0.20211006",
  "DerivedVendorReportedEchoSpacing": 0.000560011,
  "DeviceSerialNumber": "167006",
  "DwellTime": 2.1e-06,
  "EchoTime": 0.037,
  "EchoTrainLength": 104,
  "EffectiveEchoSpacing": 0.000560011,
  "FlipAngle": 52,
  "HeudiconvVersion": "0.11.3.post9+gc939bf8",
  "ImageComments": "Unaliased MB4/PE3/LB",
  "ImageOrientationPatientDICOM": [0.995511, 0.0944022, 0.00682162, -0.0846453, 0.920232, -0.38211],
  "ImageOrientationText": "Tra>Cor(-22.3)>Sag(2.4)",
  "ImageType": [
    "ORIGINAL",
    "PRIMARY",
    "M",
    "MB",
    "ND",
    "MOSAIC"
],
  "ImagingFrequency": 123.259,
  "InPlanePhaseEncodingDirectionDICOM": "COL",
  "InstitutionAddress": "Chemin Queen-Mary 4565,Montreal,District,CA,H3W 1W5",
  "InstitutionName": "IUGM",
  "InstitutionalDepartmentName": "Department",
  "MRAcquisitionType": "2D",
  "MagneticFieldStrength": 3,
  "Manufacturer": "Siemens",
  "ManufacturersModelName": "Prisma_fit",
  "MatrixCoilMode": "SENSE",
  "Modality": "MR",
  "MultibandAccelerationFactor": 4,
  "PartialFourier": 1,
  "PatientPosition": "HFS",
  "PercentPhaseFOV": 100,
  "PercentSampling": 100,
  "PhaseEncodingDirection": "j",
  "PhaseEncodingSteps": 104,
  "PhaseResolution": 1,
  "PixelBandwidth": 2290,
  "ProcedureStepDescription": "video^friends",
  "ProtocolName": "func_task-friends-s06e15b",
  "PulseSequenceDetails": "%CustomerSeq%\\cmrr_mbep2d_bold",
  "ReceiveCoilActiveElements": "HC1-7;NC1,2",
  "ReceiveCoilName": "HeadNeck_64",
  "ReconMatrixPE": 104,
  "RepetitionTime": 1.49,
  "SAR": 0.0654984,
  "ScanOptions": "FS",
  "ScanningSequence": "EP",
  "SequenceName": "epfid2d1_104",
  "SequenceVariant": "SK\\SS",
  "SeriesDescription": "func_task-friends-s06e15b",
  "SeriesNumber": 10,
  "ShimSetting": [632, -7195, -8795, 673, 96, -47, -68, 1],
  "SliceThickness": 2,
  "SliceTiming": [0, 0.7825, 0.0975, 0.88, 0.195, 0.98, 0.2925, 1.0775, 0.39, 1.175, 0.49, 1.2725, 0.5875, 1.37, 0.685, 0, 0.7825, 0.0975, 0.88, 0.195, 0.98, 0.2925, 1.0775, 0.39, 1.175, 0.49, 1.2725, 0.5875, 1.37, 0.685, 0, 0.7825, 0.0975, 0.88, 0.195, 0.98, 0.2925, 1.0775, 0.39, 1.175, 0.49, 1.2725, 0.5875, 1.37, 0.685, 0, 0.7825, 0.0975, 0.88, 0.195, 0.98, 0.2925, 1.0775, 0.39, 1.175, 0.49, 1.2725, 0.5875, 1.37, 0.685],
  "SoftwareVersions": "syngo MR E11",
  "SpacingBetweenSlices": 2,
  "StationName": "MRC35049",
  "TaskName": "s06e15b",
  "TotalReadoutTime": 0.0576811,
  "TxRefAmp": 281.2,
  "WipMemBlock": "92489c68-be74-4723-9ce2-47e9b8e23ff3||Sequence: R017 ve11c/master r/75a17815+; Jun 28 2022 16:32:11 by eja",
  "dcmmeta_affine": [
    [-1.9910215139389038, -0.16929061710834503, 0.08469893038272858, 108.08174896240234],
    [-0.18880434334278107, 1.840464472770691, -0.7596338391304016, -57.862083435058594],
    [0.013643239624798298, 0.7642194628715515, 1.8481836318969727, -61.260066986083984],
    [0.0, 0.0, 0.0, 1.0]
],
  "dcmmeta_reorient_transform": [
    [0.0, -1.0, 0.0, 103.0],
    [1.0, 0.0, 0.0, 0.0],
    [0.0, 0.0, 1.0, 0.0],
    [0.0, 0.0, 0.0, 1.0]
],
  "dcmmeta_shape": [104, 104, 60, 460],
  "dcmmeta_slice_dim": 2,
  "dcmmeta_version": 0.6,
  "global": {
    "const": {
      "AcquisitionMatrix": [104, 0, 0, 104],
      "AngioFlag": "N",
      "BitsAllocated": 16,
      "BitsStored": 16,
      "BodyPartExamined": "BRAIN",
      "Columns": 832,
      "EchoNumbers": 1,
      "EchoTime": 37.0,
      "EchoTrainLength": 104,
      "FlipAngle": 52.0,
      "HighBit": 15,
      "ImageOrientationPatient": [0.99551077085384, 0.09440217486112, 0.0068216197116, -0.084645307794, 0.92023221837027, -0.3821097174135],
      "ImagePositionPatient": [-753.75487496965, -870.35959202398, 290.66427118627],
      "ImageType": [
        "ORIGINAL",
        "PRIMARY",
        "M",
        "MB",
        "ND",
        "MOSAIC"
],
      "ImagedNucleus": "1H",
      "ImagingFrequency": 123.258796,
      "InPlanePhaseEncodingDirection": "COL",
      "MRAcquisitionType": "2D",
      "MagneticFieldStrength": 3.0,
      "Manufacturer": "SIEMENS",
      "ManufacturerModelName": "Prisma_fit",
      "Modality": "MR",
      "NumberOfAverages": 1.0,
      "NumberOfPhaseEncodingSteps": 104,
      "PercentPhaseFieldOfView": 100.0,
      "PercentSampling": 100.0,
      "PerformedProcedureStepStartTime": "180843.663000",
      "PhotometricInterpretation": "MONOCHROME2",
      "PixelBandwidth": 2290.0,
      "PixelRepresentation": 0,
      "PixelSpacing": [2.0, 2.0],
      "ProtocolName": "func_task-friends-s06e15b",
      "RepetitionTime": 1490.0,
      "Rows": 832,
      "SAR": 0.06549838884124,
      "SamplesPerPixel": 1,
      "ScanOptions": "FS",
      "ScanningSequence": "EP",
      "SequenceName": "epfid2d1_104",
      "SequenceVariant": [
        "SK",
        "SS"
],
      "SeriesDescription": "func_task-friends-s06e15b",
      "SeriesNumber": 10,
      "SeriesTime": "181513.873000",
      "SliceLocation": -30.055721169956,
      "SliceThickness": 2.0,
      "SmallestImagePixelValue": 0,
      "SoftwareVersions": "syngo MR E11",
      "SpacingBetweenSlices": 2.0000000446341,
      "SpecificCharacterSet": "ISO_IR 100",
      "StudyID": "1",
      "StudyTime": "180843.586000",
      "TransmitCoilName": "Body",
      "VariableFlipAngleFlag": "N",
      "WindowCenterWidthExplanation": "Algo1",
      "dBdt": 0.0},
    "slices": {}
  },
  "time": {
    "samples": {
      "AcquisitionNumber": [1, 2, 3, 4, 5, 6, 7, 8, 9, 10, 11, 12, 13, 14, 15, 16, 17, 18, 19, 20, 21, 22, 23, 24, 25, 26, 27, 28, 29, 30, 31, 32, 33, 34, 35, 36, 37, 38, 39, 40, 41, 42, 43, 44, 45, 46, 47, 48, 49, 50, 51, 52, 53, 54, 55, 56, 57, 58, 59, 60, 61, 62, 63, 64, 65, 66, 67, 68, 69, 70, 71, 72, 73, 74, 75, 76, 77, 78, 79, 80, 81, 82, 83, 84, 85, 86, 87, 88, 89, 90, 91, 92, 93, 94, 95, 96, 97, 98, 99, 100, 101, 102, 103, 104, 105, 106, 107, 108, 109, 110, 111, 112, 113, 114, 115, 116, 117, 118, 119, 120, 121, 122, 123, 124, 125, 126, 127, 128, 129, 130, 131, 132, 133, 134, 135, 136, 137, 138, 139, 140, 141, 142, 143, 144, 145, 146, 147, 148, 149, 150, 151, 152, 153, 154, 155, 156, 157, 158, 159, 160, 161, 162, 163, 164, 165, 166, 167, 168, 169, 170, 171, 172, 173, 174, 175, 176, 177, 178, 179, 180, 181, 182, 183, 184, 185, 186, 187, 188, 189, 190, 191, 192, 193, 194, 195, 196, 197, 198, 199, 200, 201, 202, 203, 204, 205, 206, 207, 208, 209, 210, 211, 212, 213, 214, 215, 216, 217, 218, 219, 220, 221, 222, 223, 224, 225, 226, 227, 228, 229, 230, 231, 232, 233, 234, 235, 236, 237, 238, 239, 240, 241, 242, 243, 244, 245, 246, 247, 248, 249, 250, 251, 252, 253, 254, 255, 256, 257, 258, 259, 260, 261, 262, 263, 264, 265, 266, 267, 268, 269, 270, 271, 272, 273, 274, 275, 276, 277, 278, 279, 280, 281, 282, 283, 284, 285, 286, 287, 288, 289, 290, 291, 292, 293, 294, 295, 296, 297, 298, 299, 300, 301, 302, 303, 304, 305, 306, 307, 308, 309, 310, 311, 312, 313, 314, 315, 316, 317, 318, 319, 320, 321, 322, 323, 324, 325, 326, 327, 328, 329, 330, 331, 332, 333, 334, 335, 336, 337, 338, 339, 340, 341, 342, 343, 344, 345, 346, 347, 348, 349, 350, 351, 352, 353, 354, 355, 356, 357, 358, 359, 360, 361, 362, 363, 364, 365, 366, 367, 368, 369, 370, 371, 372, 373, 374, 375, 376, 377, 378, 379, 380, 381, 382, 383, 384, 385, 386, 387, 388, 389, 390, 391, 392, 393, 394, 395, 396, 397, 398, 399, 400, 401, 402, 403, 404, 405, 406, 407, 408, 409, 410, 411, 412, 413, 414, 415, 416, 417, 418, 419, 420, 421, 422, 423, 424, 425, 426, 427, 428, 429, 430, 431, 432, 433, 434, 435, 436, 437, 438, 439, 440, 441, 442, 443, 444, 445, 446, 447, 448, 449, 450, 451, 452, 453, 454, 455, 456, 457, 458, 459, 460],
      "AcquisitionTime": ["181357.430000", "181358.920000", "181400.410000", "181401.900000", "181403.390000", "181404.880000", "181406.370000", "181407.860000", "181409.350000", "181410.840000", "181412.330000", "181413.820000", "181415.310000", "181416.800000", "181418.290000", "181419.780000", "181421.270000", "181422.760000", "181424.250000", "181425.740000", "181427.230000", "181428.720000", "181430.210000", "181431.700000", "181433.190000", "181434.680000", "181436.170000", "181437.660000", "181439.150000", "181440.640000", "181442.130000", "181443.620000", "181445.110000", "181446.600000", "181448.090000", "181449.580000", "181451.070000", "181452.560000", "181454.050000", "181455.540000", "181457.030000", "181458.520000", "181500.010000", "181501.500000", "181502.990000", "181504.480000", "181505.970000", "181507.460000", "181508.950000", "181510.440000", "181511.930000", "181513.420000", "181514.910000", "181516.400000", "181517.890000", "181519.380000", "181520.870000", "181522.360000", "181523.850000", "181525.340000", "181526.830000", "181528.320000", "181529.810000", "181531.300000", "181532.790000", "181534.280000", "181535.770000", "181537.260000", "181538.750000", "181540.240000", "181541.730000", "181543.220000", "181544.710000", "181546.200000", "181547.690000", "181549.180000", "181550.670000", "181552.160000", "181553.650000", "181555.140000", "181556.630000", "181558.120000", "181559.610000", "181601.100000", "181602.590000", "181604.080000", "181605.570000", "181607.060000", "181608.550000", "181610.040000", "181611.530000", "181613.020000", "181614.510000", "181616.000000", "181617.490000", "181618.980000", "181620.470000", "181621.960000", "181623.450000", "181624.940000", "181626.430000", "181627.920000", "181629.410000", "181630.900000", "181632.390000", "181633.880000", "181635.370000", "181636.860000", "181638.350000", "181639.840000", "181641.330000", "181642.820000", "181644.310000", "181645.800000", "181647.290000", "181648.780000", "181650.270000", "181651.760000", "181653.250000", "181654.740000", "181656.230000", "181657.720000", "181659.210000", "181700.700000", "181702.190000", "181703.680000", "181705.170000", "181706.660000", "181708.150000", "181709.640000", "181711.130000", "181712.620000", "181714.110000", "181715.600000", "181717.090000", "181718.580000", "181720.070000", "181721.560000", "181723.050000", "181724.540000", "181726.030000", "181727.520000", "181729.010000", "181730.500000", "181731.990000", "181733.480000", "181734.970000", "181736.460000", "181737.950000", "181739.440000", "181740.930000", "181742.420000", "181743.910000", "181745.400000", "181746.890000", "181748.380000", "181749.870000", "181751.360000", "181752.850000", "181754.340000", "181755.830000", "181757.320000", "181758.810000", "181800.300000", "181801.790000", "181803.280000", "181804.770000", "181806.260000", "181807.750000", "181809.240000", "181810.730000", "181812.220000", "181813.710000", "181815.200000", "181816.690000", "181818.180000", "181819.670000", "181821.160000", "181822.650000", "181824.140000", "181825.630000", "181827.120000", "181828.610000", "181830.100000", "181831.590000", "181833.080000", "181834.570000", "181836.060000", "181837.550000", "181839.040000", "181840.530000", "181842.020000", "181843.510000", "181845.000000", "181846.490000", "181847.980000", "181849.470000", "181850.960000", "181852.450000", "181853.940000", "181855.430000", "181856.920000", "181858.410000", "181859.900000", "181901.390000", "181902.880000", "181904.370000", "181905.860000", "181907.350000", "181908.840000", "181910.330000", "181911.820000", "181913.310000", "181914.800000", "181916.290000", "181917.780000", "181919.270000", "181920.760000", "181922.250000", "181923.740000", "181925.230000", "181926.720000", "181928.210000", "181929.700000", "181931.190000", "181932.680000", "181934.170000", "181935.660000", "181937.150000", "181938.640000", "181940.130000", "181941.620000", "181943.110000", "181944.600000", "181946.090000", "181947.580000", "181949.070000", "181950.560000", "181952.050000", "181953.540000", "181955.030000", "181956.520000", "181958.010000", "181959.500000", "182000.990000", "182002.480000", "182003.970000", "182005.460000", "182006.950000", "182008.440000", "182009.930000", "182011.420000", "182012.910000", "182014.400000", "182015.890000", "182017.380000", "182018.870000", "182020.360000", "182021.850000", "182023.340000", "182024.830000", "182026.320000", "182027.810000", "182029.300000", "182030.790000", "182032.280000", "182033.770000", "182035.260000", "182036.750000", "182038.240000", "182039.730000", "182041.220000", "182042.710000", "182044.200000", "182045.690000", "182047.180000", "182048.670000", "182050.160000", "182051.650000", "182053.140000", "182054.630000", "182056.120000", "182057.610000", "182059.100000", "182100.590000", "182102.080000", "182103.570000", "182105.060000", "182106.550000", "182108.040000", "182109.530000", "182111.020000", "182112.510000", "182114.000000", "182115.490000", "182116.980000", "182118.470000", "182119.960000", "182121.450000", "182122.940000", "182124.430000", "182125.920000", "182127.410000", "182128.900000", "182130.390000", "182131.880000", "182133.370000", "182134.860000", "182136.350000", "182137.840000", "182139.330000", "182140.820000", "182142.310000", "182143.800000", "182145.290000", "182146.780000", "182148.270000", "182149.760000", "182151.250000", "182152.740000", "182154.230000", "182155.720000", "182157.210000", "182158.700000", "182200.190000", "182201.680000", "182203.170000", "182204.660000", "182206.150000", "182207.640000", "182209.130000", "182210.620000", "182212.110000", "182213.600000", "182215.090000", "182216.580000", "182218.070000", "182219.560000", "182221.050000", "182222.540000", "182224.030000", "182225.520000", "182227.010000", "182228.500000", "182229.990000", "182231.480000", "182232.970000", "182234.460000", "182235.950000", "182237.440000", "182238.930000", "182240.420000", "182241.910000", "182243.400000", "182244.890000", "182246.380000", "182247.870000", "182249.360000", "182250.850000", "182252.340000", "182253.830000", "182255.320000", "182256.810000", "182258.300000", "182259.790000", "182301.280000", "182302.770000", "182304.260000", "182305.750000", "182307.240000", "182308.730000", "182310.220000", "182311.710000", "182313.200000", "182314.690000", "182316.180000", "182317.670000", "182319.160000", "182320.650000", "182322.140000", "182323.630000", "182325.120000", "182326.610000", "182328.100000", "182329.590000", "182331.080000", "182332.570000", "182334.060000", "182335.550000", "182337.040000", "182338.530000", "182340.020000", "182341.510000", "182343.000000", "182344.490000", "182345.980000", "182347.470000", "182348.960000", "182350.450000", "182351.940000", "182353.430000", "182354.920000", "182356.410000", "182357.900000", "182359.390000", "182400.880000", "182402.370000", "182403.860000", "182405.350000", "182406.840000", "182408.330000", "182409.820000", "182411.310000", "182412.800000", "182414.290000", "182415.780000", "182417.270000", "182418.760000", "182420.250000", "182421.740000", "182423.230000", "182424.720000", "182426.210000", "182427.700000", "182429.190000", "182430.680000", "182432.170000", "182433.660000", "182435.150000", "182436.640000", "182438.130000", "182439.620000", "182441.110000", "182442.600000", "182444.090000", "182445.580000", "182447.070000", "182448.560000", "182450.050000", "182451.540000", "182453.030000", "182454.520000", "182456.010000", "182457.500000", "182458.990000", "182500.480000", "182501.970000", "182503.460000", "182504.950000", "182506.440000", "182507.930000", "182509.420000", "182510.910000", "182512.400000", "182513.890000", "182515.380000", "182516.870000", "182518.360000", "182519.850000", "182521.340000"],
      "ContentTime": ["181513.876000", "181513.879000", "181513.882000", "181513.885000", "181513.888000", "181513.891000", "181513.894000", "181513.897000", "181513.900000", "181513.906000", "181513.909000", "181513.912000", "181513.915000", "181513.918000", "181513.921000", "181513.924000", "181513.927000", "181513.930000", "181513.933000", "181513.936000", "181513.942000", "181513.945000", "181513.948000", "181513.951000", "181513.954000", "181513.957000", "181513.960000", "181513.963000", "181533.831000", "181533.834000", "181533.837000", "181533.840000", "181533.854000", "181533.857000", "181533.860000", "181533.863000", "181533.866000", "181533.869000", "181533.872000", "181533.875000", "181533.878000", "181533.881000", "181533.884000", "181533.887000", "181533.889000", "181533.892000", "181533.895000", "181533.898000", "181553.831000", "181553.834000", "181553.837000", "181553.840000", "181553.843000", "181553.846000", "181553.849000", "181553.852000", "181553.855000", "181553.858000", "181553.861000", "181553.864000", "181553.867000", "181553.870000", "181553.872000", "181553.875000", "181553.878000", "181553.881000", "181553.884000", "181553.887000", "181613.832000", "181613.835000", "181613.838000", "181613.841000", "181613.844000", "181613.847000", "181613.850000", "181613.853000", "181613.856000", "181613.859000", "181613.861000", "181613.865000", "181613.868000", "181613.870000", "181613.873000", "181613.876000", "181613.879000", "181613.882000", "181613.885000", "181613.888000", "181653.832000", "181653.835000", "181653.838000", "181653.841000", "181653.844000", "181653.847000", "181653.850000", "181653.853000", "181653.856000", "181653.859000", "181653.862000", "181653.872000", "181653.875000", "181653.878000", "181653.880000", "181653.883000", "181653.886000", "181653.889000", "181653.892000", "181653.895000", "181653.898000", "181653.901000", "181653.904000", "181653.907000", "181653.910000", "181653.913000", "181653.916000", "181653.919000", "181653.922000", "181653.925000", "181733.832000", "181733.835000", "181733.838000", "181733.841000", "181733.844000", "181733.847000", "181733.850000", "181733.853000", "181733.856000", "181733.863000", "181733.866000", "181733.869000", "181733.872000", "181733.875000", "181733.878000", "181733.881000", "181733.884000", "181733.887000", "181733.890000", "181733.893000", "181733.896000", "181733.899000", "181733.902000", "181733.905000", "181733.908000", "181733.911000", "181813.831000", "181813.834000", "181813.837000", "181813.840000", "181813.843000", "181813.846000", "181813.849000", "181813.852000", "181813.855000", "181813.858000", "181813.861000", "181813.864000", "181813.867000", "181813.870000", "181813.873000", "181813.876000", "181813.879000", "181813.882000", "181813.885000", "181813.888000", "181813.891000", "181813.903000", "181813.906000", "181813.909000", "181813.912000", "181813.915000", "181813.918000", "181853.832000", "181853.835000", "181853.838000", "181853.841000", "181853.844000", "181853.847000", "181853.850000", "181853.853000", "181853.856000", "181853.859000", "181853.862000", "181853.865000", "181853.868000", "181853.871000", "181853.874000", "181853.877000", "181853.880000", "181853.883000", "181853.886000", "181853.889000", "181853.892000", "181853.895000", "181853.898000", "181853.900000", "181853.903000", "181853.906000", "181853.909000", "181933.832000", "181933.835000", "181933.838000", "181933.841000", "181933.844000", "181933.847000", "181933.850000", "181933.853000", "181933.856000", "181933.859000", "181933.862000", "181933.865000", "181933.868000", "181933.871000", "181933.874000", "181933.877000", "181933.880000", "181933.883000", "181933.886000", "181933.889000", "181933.892000", "181933.895000", "181933.898000", "181933.900000", "181933.903000", "181933.906000", "181933.909000", "182013.831000", "182013.834000", "182013.837000", "182013.840000", "182013.843000", "182013.846000", "182013.849000", "182013.852000", "182013.855000", "182013.858000", "182013.861000", "182013.864000", "182013.867000", "182013.870000", "182013.873000", "182013.876000", "182013.879000", "182013.882000", "182013.884000", "182013.887000", "182013.890000", "182013.893000", "182013.896000", "182013.899000", "182013.902000", "182013.905000", "182013.908000", "182033.831000", "182033.834000", "182033.837000", "182033.840000", "182033.843000", "182033.846000", "182033.849000", "182033.852000", "182033.855000", "182033.858000", "182033.861000", "182033.864000", "182033.867000", "182113.832000", "182113.835000", "182113.838000", "182113.841000", "182113.844000", "182113.847000", "182113.850000", "182113.853000", "182113.856000", "182113.859000", "182113.862000", "182113.865000", "182113.868000", "182113.871000", "182113.874000", "182113.877000", "182113.892000", "182113.895000", "182113.898000", "182113.901000", "182113.904000", "182113.907000", "182113.910000", "182113.913000", "182113.916000", "182113.919000", "182113.922000", "182153.832000", "182153.835000", "182153.838000", "182153.841000", "182153.844000", "182153.847000", "182153.850000", "182153.853000", "182153.856000", "182153.859000", "182153.862000", "182153.865000", "182153.868000", "182153.871000", "182153.874000", "182153.877000", "182153.880000", "182153.883000", "182153.887000", "182153.890000", "182153.893000", "182153.896000", "182153.899000", "182153.902000", "182153.905000", "182153.908000", "182153.911000", "182233.831000", "182233.834000", "182233.837000", "182233.840000", "182233.843000", "182233.846000", "182233.849000", "182233.852000", "182233.855000", "182233.858000", "182233.861000", "182233.864000", "182233.867000", "182233.870000", "182233.873000", "182233.876000", "182233.879000", "182233.882000", "182233.885000", "182233.888000", "182233.891000", "182233.894000", "182233.897000", "182233.900000", "182233.903000", "182233.906000", "182233.909000", "182313.832000", "182313.835000", "182313.838000", "182313.841000", "182313.844000", "182313.847000", "182313.850000", "182313.853000", "182313.856000", "182313.859000", "182313.862000", "182313.865000", "182313.868000", "182313.871000", "182313.874000", "182313.877000", "182313.879000", "182313.882000", "182313.885000", "182313.888000", "182313.891000", "182313.894000", "182313.897000", "182313.900000", "182313.903000", "182313.906000", "182313.909000", "182353.832000", "182353.835000", "182353.838000", "182353.841000", "182353.844000", "182353.847000", "182353.850000", "182353.853000", "182353.856000", "182353.859000", "182353.863000", "182353.866000", "182353.869000", "182353.872000", "182353.874000", "182353.878000", "182353.881000", "182353.883000", "182353.886000", "182353.889000", "182353.892000", "182353.895000", "182353.898000", "182353.901000", "182353.904000", "182353.907000", "182433.832000", "182433.835000", "182433.838000", "182433.841000", "182433.844000", "182433.847000", "182433.850000", "182433.853000", "182433.856000", "182433.859000", "182433.862000", "182433.865000", "182433.868000", "182433.871000", "182433.874000", "182433.877000", "182433.880000", "182433.883000", "182433.886000", "182433.889000", "182433.892000", "182433.894000", "182433.897000", "182433.900000", "182433.903000", "182433.906000", "182433.909000", "182513.831000", "182513.834000", "182513.837000", "182513.840000", "182513.843000", "182513.846000", "182513.849000", "182513.852000", "182513.855000", "182513.858000", "182513.861000", "182513.864000", "182513.867000", "182513.870000", "182513.873000", "182513.876000", "182513.879000", "182513.882000", "182513.885000", "182513.888000", "182513.891000", "182513.894000", "182513.897000", "182513.900000", "182513.903000", "182513.906000", "182513.909000", "182523.434000", "182523.437000", "182523.440000", "182523.443000", "182523.446000", "182523.449000", "182523.452000"],
