{
  "AcquisitionMatrixPE": 104,
  "AcquisitionNumber": 1,
  "AcquisitionTime": "16:07:4.910000",
  "BandwidthPerPixelPhaseEncode": 17.17,
  "BaseResolution": 104,
  "BodyPartExamined": "BRAIN",
  "CoilString": "HC1-7;NC1_2",
  "ConsistencyInfo": "N4_VE11C_LATEST_20160120",
  "ConversionSoftware": "dcm2niix",
  "ConversionSoftwareVersion": "v1.0.20190720  (JP2:OpenJPEG) GCC7.3.0",
  "DerivedVendorReportedEchoSpacing": 0.000560011,
  "DeviceSerialNumber": "167006",
  "DwellTime": 2.1e-06,
  "EchoTime": 0.037,
  "EchoTrainLength": 104,
  "EffectiveEchoSpacing": 0.000560011,
  "FlipAngle": 52,
  "ImageComments": "Unaliased_MB4_PE3_LB",
  "ImageOrientationPatientDICOM": [0.999985, -0.000961446, 0.00530756, 0.00366514, 0.843048, -0.537826],
  "ImageType": [
    "ORIGINAL",
    "PRIMARY",
    "M",
    "MB",
    "ND",
    "MOSAIC"
],
  "ImagingFrequency": 123.259,
  "InPlanePhaseEncodingDirectionDICOM": "COL",
  "InstitutionAddress": "Chemin_Queen-Mary_4565_Montreal_District_CA_H3W_1W5",
  "InstitutionName": "IUGM",
  "InstitutionalDepartmentName": "Department",
  "MRAcquisitionType": "2D",
  "MagneticFieldStrength": 3,
  "Manufacturer": "Siemens",
  "ManufacturersModelName": "Prisma_fit",
  "Modality": "MR",
  "MultibandAccelerationFactor": 4,
  "PartialFourier": 1,
  "PatientPosition": "HFS",
  "PercentPhaseFOV": 100,
  "PhaseEncodingDirection": "j",
  "PhaseEncodingSteps": 104,
  "PhaseResolution": 1,
  "PixelBandwidth": 2290,
  "ProcedureStepDescription": "video_friends",
  "ProtocolName": "func_task-friends-s01e10a",
  "PulseSequenceDetails": "%CustomerSeq%_cmrr_mbep2d_bold",
  "ReceiveCoilActiveElements": "HC1-7;NC1,2",
  "ReceiveCoilName": "HeadNeck_64",
  "ReconMatrixPE": 104,
  "RepetitionTime": 1.49,
  "SAR": 0.0371444,
  "ScanOptions": "FS",
  "ScanningSequence": "EP",
  "SequenceName": "epfid2d1_104",
  "SequenceVariant": "SK_SS",
  "SeriesDescription": "func_task-friends-s01e10a",
  "SeriesNumber": 12,
  "ShimSetting": [623, -7177, -8887, 395, -8, -168, 8, -7],
  "SliceThickness": 2,
  "SliceTiming": [0, 0.785, 0.0975, 0.8825, 0.1975, 0.98, 0.295, 1.0775, 0.3925, 1.1775, 0.49, 1.275, 0.5875, 1.3725, 0.6875, 0, 0.785, 0.0975, 0.8825, 0.1975, 0.98, 0.295, 1.0775, 0.3925, 1.1775, 0.49, 1.275, 0.5875, 1.3725, 0.6875, 0, 0.785, 0.0975, 0.8825, 0.1975, 0.98, 0.295, 1.0775, 0.3925, 1.1775, 0.49, 1.275, 0.5875, 1.3725, 0.6875, 0, 0.785, 0.0975, 0.8825, 0.1975, 0.98, 0.295, 1.0775, 0.3925, 1.1775, 0.49, 1.275, 0.5875, 1.3725, 0.6875],
  "SoftwareVersions": "syngo_MR_E11",
  "SpacingBetweenSlices": 2,
  "StationName": "MRC35049",
  "TaskName": "friends",
  "TotalReadoutTime": 0.0576811,
  "TxRefAmp": 251.534,
  "WipMemBlock": "1ee73552-dafb-498d-8b4a-653e462964fd||Sequence: R016 ve11c/master r/e634e98; Dec 19 2017 11:00:25 by eja",
  "dcmmeta_affine": [
    [-1.9999709129333496, 0.007330283988267183, 0.007914865389466286, 102.6148910522461],
    [0.0019228915916755795, 1.6860953569412231, -1.0756759643554688, -56.886131286621094],
    [0.010615114122629166, 1.0756527185440063, 1.6860778331756592, -108.3019790649414],
    [0.0, 0.0, 0.0, 1.0]
],
  "dcmmeta_reorient_transform": [
    [0.0, -1.0, 0.0, 103.0],
    [1.0, 0.0, 0.0, 0.0],
    [0.0, 0.0, 1.0, 0.0],
    [0.0, 0.0, 0.0, 1.0]
],
  "dcmmeta_shape": [104, 104, 60, 496],
  "dcmmeta_slice_dim": 2,
  "dcmmeta_version": 0.6,
  "global": {
    "const": {
      "AcquisitionMatrix": [104, 0, 0, 104],
      "AngioFlag": "N",
      "BitsAllocated": 16,
      "BitsStored": 16,
      "BodyPartExamined": "BRAIN",
      "Columns": 832,
      "EchoNumbers": 1,
      "EchoTime": 37.0,
      "EchoTrainLength": 104,
      "FlipAngle": 52.0,
      "HighBit": 15,
      "ImageOrientationPatient": [0.99998545262526, -0.0009614458053, 0.00530755686022, 0.00366514188682, 0.84304767824737, -0.5378263464508],
      "ImagePositionPatient": [-834.02754307575, -729.82046684261, 390.16392456537],
      "ImageType": [
        "ORIGINAL",
        "PRIMARY",
        "M",
        "MB",
        "ND",
        "MOSAIC"
],
      "ImagedNucleus": "1H",
      "ImagingFrequency": 123.259171,
      "InPlanePhaseEncodingDirection": "COL",
      "MRAcquisitionType": "2D",
      "MagneticFieldStrength": 3.0,
      "Manufacturer": "SIEMENS",
      "ManufacturerModelName": "Prisma_fit",
      "Modality": "MR",
      "NumberOfAverages": 1.0,
      "NumberOfPhaseEncodingSteps": 104,
      "PercentPhaseFieldOfView": 100.0,
      "PercentSampling": 100.0,
      "PerformedProcedureStepStartTime": "153514.919000",
      "PhotometricInterpretation": "MONOCHROME2",
      "PixelBandwidth": 2290.0,
      "PixelRepresentation": 0,
      "PixelSpacing": [2.0, 2.0],
      "ProtocolName": "func_task-friends-s01e10a",
      "RepetitionTime": 1490.0,
      "Rows": 832,
      "SAR": 0.03714444892306,
      "SamplesPerPixel": 1,
      "ScanOptions": "FS",
      "ScanningSequence": "EP",
      "SequenceName": "epfid2d1_104",
      "SequenceVariant": [
        "SK",
        "SS"
],
      "SeriesDescription": "func_task-friends-s01e10a",
      "SeriesNumber": 12,
      "SeriesTime": "160824.962000",
      "SliceLocation": -60.301173936194,
      "SliceThickness": 2.0,
      "SmallestImagePixelValue": 0,
      "SoftwareVersions": "syngo MR E11",
      "SpacingBetweenSlices": 1.9999999851967,
      "SpecificCharacterSet": "ISO_IR 100",
      "StudyID": "1",
      "StudyTime": "153514.845000",
      "TransmitCoilName": "Body",
      "VariableFlipAngleFlag": "N",
      "WindowCenterWidthExplanation": "Algo1",
      "dBdt": 0.0},
    "slices": {}
  },
  "time": {
    "samples": {
      "AcquisitionNumber": [1, 2, 3, 4, 5, 6, 7, 8, 9, 10, 11, 12, 13, 14, 15, 16, 17, 18, 19, 20, 21, 22, 23, 24, 25, 26, 27, 28, 29, 30, 31, 32, 33, 34, 35, 36, 37, 38, 39, 40, 41, 42, 43, 44, 45, 46, 47, 48, 49, 50, 51, 52, 53, 54, 55, 56, 57, 58, 59, 60, 61, 62, 63, 64, 65, 66, 67, 68, 69, 70, 71, 72, 73, 74, 75, 76, 77, 78, 79, 80, 81, 82, 83, 84, 85, 86, 87, 88, 89, 90, 91, 92, 93, 94, 95, 96, 97, 98, 99, 100, 101, 102, 103, 104, 105, 106, 107, 108, 109, 110, 111, 112, 113, 114, 115, 116, 117, 118, 119, 120, 121, 122, 123, 124, 125, 126, 127, 128, 129, 130, 131, 132, 133, 134, 135, 136, 137, 138, 139, 140, 141, 142, 143, 144, 145, 146, 147, 148, 149, 150, 151, 152, 153, 154, 155, 156, 157, 158, 159, 160, 161, 162, 163, 164, 165, 166, 167, 168, 169, 170, 171, 172, 173, 174, 175, 176, 177, 178, 179, 180, 181, 182, 183, 184, 185, 186, 187, 188, 189, 190, 191, 192, 193, 194, 195, 196, 197, 198, 199, 200, 201, 202, 203, 204, 205, 206, 207, 208, 209, 210, 211, 212, 213, 214, 215, 216, 217, 218, 219, 220, 221, 222, 223, 224, 225, 226, 227, 228, 229, 230, 231, 232, 233, 234, 235, 236, 237, 238, 239, 240, 241, 242, 243, 244, 245, 246, 247, 248, 249, 250, 251, 252, 253, 254, 255, 256, 257, 258, 259, 260, 261, 262, 263, 264, 265, 266, 267, 268, 269, 270, 271, 272, 273, 274, 275, 276, 277, 278, 279, 280, 281, 282, 283, 284, 285, 286, 287, 288, 289, 290, 291, 292, 293, 294, 295, 296, 297, 298, 299, 300, 301, 302, 303, 304, 305, 306, 307, 308, 309, 310, 311, 312, 313, 314, 315, 316, 317, 318, 319, 320, 321, 322, 323, 324, 325, 326, 327, 328, 329, 330, 331, 332, 333, 334, 335, 336, 337, 338, 339, 340, 341, 342, 343, 344, 345, 346, 347, 348, 349, 350, 351, 352, 353, 354, 355, 356, 357, 358, 359, 360, 361, 362, 363, 364, 365, 366, 367, 368, 369, 370, 371, 372, 373, 374, 375, 376, 377, 378, 379, 380, 381, 382, 383, 384, 385, 386, 387, 388, 389, 390, 391, 392, 393, 394, 395, 396, 397, 398, 399, 400, 401, 402, 403, 404, 405, 406, 407, 408, 409, 410, 411, 412, 413, 414, 415, 416, 417, 418, 419, 420, 421, 422, 423, 424, 425, 426, 427, 428, 429, 430, 431, 432, 433, 434, 435, 436, 437, 438, 439, 440, 441, 442, 443, 444, 445, 446, 447, 448, 449, 450, 451, 452, 453, 454, 455, 456, 457, 458, 459, 460, 461, 462, 463, 464, 465, 466, 467, 468, 469, 470, 471, 472, 473, 474, 475, 476, 477, 478, 479, 480, 481, 482, 483, 484, 485, 486, 487, 488, 489, 490, 491, 492, 493, 494, 495, 496],
      "AcquisitionTime": ["160704.910000", "160706.400000", "160707.890000", "160709.380000", "160710.870000", "160712.360000", "160713.850000", "160715.340000", "160716.830000", "160718.320000", "160719.810000", "160721.300000", "160722.790000", "160724.280000", "160725.770000", "160727.260000", "160728.750000", "160730.240000", "160731.730000", "160733.220000", "160734.710000", "160736.200000", "160737.690000", "160739.180000", "160740.670000", "160742.160000", "160743.650000", "160745.140000", "160746.630000", "160748.120000", "160749.610000", "160751.100000", "160752.590000", "160754.080000", "160755.570000", "160757.060000", "160758.550000", "160800.040000", "160801.530000", "160803.020000", "160804.510000", "160806.000000", "160807.490000", "160808.980000", "160810.470000", "160811.960000", "160813.450000", "160814.940000", "160816.430000", "160817.920000", "160819.410000", "160820.900000", "160822.390000", "160823.880000", "160825.370000", "160826.860000", "160828.350000", "160829.840000", "160831.330000", "160832.820000", "160834.310000", "160835.800000", "160837.290000", "160838.780000", "160840.270000", "160841.760000", "160843.250000", "160844.740000", "160846.230000", "160847.720000", "160849.210000", "160850.700000", "160852.190000", "160853.680000", "160855.170000", "160856.660000", "160858.150000", "160859.640000", "160901.130000", "160902.620000", "160904.110000", "160905.600000", "160907.090000", "160908.580000", "160910.070000", "160911.560000", "160913.050000", "160914.540000", "160916.030000", "160917.520000", "160919.010000", "160920.500000", "160921.990000", "160923.480000", "160924.970000", "160926.460000", "160927.950000", "160929.440000", "160930.930000", "160932.420000", "160933.910000", "160935.400000", "160936.890000", "160938.380000", "160939.870000", "160941.360000", "160942.850000", "160944.340000", "160945.830000", "160947.320000", "160948.810000", "160950.300000", "160951.790000", "160953.280000", "160954.770000", "160956.260000", "160957.750000", "160959.240000", "161000.730000", "161002.220000", "161003.710000", "161005.200000", "161006.690000", "161008.180000", "161009.670000", "161011.160000", "161012.650000", "161014.140000", "161015.630000", "161017.120000", "161018.610000", "161020.100000", "161021.590000", "161023.080000", "161024.570000", "161026.060000", "161027.550000", "161029.040000", "161030.530000", "161032.020000", "161033.510000", "161035.000000", "161036.490000", "161037.980000", "161039.470000", "161040.960000", "161042.450000", "161043.940000", "161045.430000", "161046.920000", "161048.410000", "161049.900000", "161051.390000", "161052.880000", "161054.370000", "161055.860000", "161057.350000", "161058.840000", "161100.330000", "161101.820000", "161103.310000", "161104.800000", "161106.290000", "161107.780000", "161109.270000", "161110.760000", "161112.250000", "161113.740000", "161115.230000", "161116.720000", "161118.210000", "161119.700000", "161121.190000", "161122.680000", "161124.170000", "161125.660000", "161127.150000", "161128.640000", "161130.130000", "161131.620000", "161133.110000", "161134.600000", "161136.090000", "161137.580000", "161139.070000", "161140.560000", "161142.050000", "161143.540000", "161145.030000", "161146.520000", "161148.010000", "161149.500000", "161150.990000", "161152.480000", "161153.970000", "161155.460000", "161156.950000", "161158.440000", "161159.930000", "161201.420000", "161202.910000", "161204.400000", "161205.890000", "161207.380000", "161208.870000", "161210.360000", "161211.850000", "161213.340000", "161214.830000", "161216.320000", "161217.810000", "161219.300000", "161220.790000", "161222.280000", "161223.770000", "161225.260000", "161226.750000", "161228.240000", "161229.730000", "161231.220000", "161232.710000", "161234.200000", "161235.690000", "161237.180000", "161238.670000", "161240.160000", "161241.650000", "161243.140000", "161244.630000", "161246.120000", "161247.610000", "161249.100000", "161250.590000", "161252.080000", "161253.570000", "161255.060000", "161256.550000", "161258.040000", "161259.530000", "161301.020000", "161302.510000", "161304.000000", "161305.490000", "161306.980000", "161308.470000", "161309.960000", "161311.450000", "161312.940000", "161314.430000", "161315.920000", "161317.410000", "161318.900000", "161320.390000", "161321.880000", "161323.370000", "161324.860000", "161326.350000", "161327.840000", "161329.330000", "161330.820000", "161332.310000", "161333.800000", "161335.290000", "161336.780000", "161338.270000", "161339.760000", "161341.250000", "161342.740000", "161344.230000", "161345.720000", "161347.210000", "161348.700000", "161350.190000", "161351.680000", "161353.170000", "161354.660000", "161356.150000", "161357.640000", "161359.130000", "161400.620000", "161402.110000", "161403.600000", "161405.090000", "161406.580000", "161408.070000", "161409.560000", "161411.050000", "161412.540000", "161414.030000", "161415.520000", "161417.010000", "161418.500000", "161419.990000", "161421.480000", "161422.970000", "161424.460000", "161425.950000", "161427.440000", "161428.930000", "161430.420000", "161431.910000", "161433.400000", "161434.890000", "161436.380000", "161437.870000", "161439.360000", "161440.850000", "161442.340000", "161443.830000", "161445.320000", "161446.810000", "161448.300000", "161449.790000", "161451.280000", "161452.770000", "161454.260000", "161455.750000", "161457.240000", "161458.730000", "161500.220000", "161501.710000", "161503.200000", "161504.690000", "161506.180000", "161507.670000", "161509.160000", "161510.650000", "161512.140000", "161513.630000", "161515.120000", "161516.610000", "161518.100000", "161519.590000", "161521.080000", "161522.570000", "161524.060000", "161525.550000", "161527.040000", "161528.530000", "161530.020000", "161531.510000", "161533.000000", "161534.490000", "161535.980000", "161537.470000", "161538.960000", "161540.450000", "161541.940000", "161543.430000", "161544.920000", "161546.410000", "161547.900000", "161549.390000", "161550.880000", "161552.370000", "161553.860000", "161555.350000", "161556.840000", "161558.330000", "161559.820000", "161601.310000", "161602.800000", "161604.290000", "161605.780000", "161607.270000", "161608.760000", "161610.250000", "161611.740000", "161613.230000", "161614.720000", "161616.210000", "161617.700000", "161619.190000", "161620.680000", "161622.170000", "161623.660000", "161625.150000", "161626.640000", "161628.130000", "161629.620000", "161631.110000", "161632.600000", "161634.090000", "161635.580000", "161637.070000", "161638.560000", "161640.050000", "161641.540000", "161643.030000", "161644.520000", "161646.010000", "161647.500000", "161648.990000", "161650.480000", "161651.970000", "161653.460000", "161654.950000", "161656.440000", "161657.930000", "161659.420000", "161700.910000", "161702.400000", "161703.890000", "161705.380000", "161706.870000", "161708.360000", "161709.850000", "161711.340000", "161712.830000", "161714.320000", "161715.810000", "161717.300000", "161718.790000", "161720.280000", "161721.770000", "161723.260000", "161724.750000", "161726.240000", "161727.730000", "161729.220000", "161730.710000", "161732.200000", "161733.690000", "161735.180000", "161736.670000", "161738.160000", "161739.650000", "161741.140000", "161742.630000", "161744.120000", "161745.610000", "161747.100000", "161748.590000", "161750.080000", "161751.570000", "161753.060000", "161754.550000", "161756.040000", "161757.530000", "161759.020000", "161800.510000", "161802.000000", "161803.490000", "161804.980000", "161806.470000", "161807.960000", "161809.450000", "161810.940000", "161812.430000", "161813.920000", "161815.410000", "161816.900000", "161818.390000", "161819.880000", "161821.370000", "161822.860000", "161824.350000", "161825.840000", "161827.330000", "161828.820000", "161830.310000", "161831.800000", "161833.290000", "161834.780000", "161836.270000", "161837.760000", "161839.250000", "161840.740000", "161842.230000", "161843.720000", "161845.210000", "161846.700000", "161848.190000", "161849.680000", "161851.170000", "161852.660000", "161854.150000", "161855.640000", "161857.130000", "161858.620000", "161900.110000", "161901.600000", "161903.090000", "161904.580000", "161906.070000", "161907.560000", "161909.050000", "161910.540000", "161912.030000", "161913.520000", "161915.010000", "161916.500000", "161917.990000", "161919.480000", "161920.970000", "161922.460000"],
      "ContentTime": ["160824.964000", "160824.968000", "160824.970000", "160824.973000", "160824.976000", "160824.979000", "160824.982000", "160824.985000", "160824.992000", "160824.995000", "160825.002000", "160825.005000", "160825.007000", "160825.010000", "160825.013000", "160825.016000", "160825.019000", "160825.021000", "160825.024000", "160825.027000", "160825.030000", "160825.033000", "160825.042000", "160825.044000", "160825.047000", "160825.050000", "160844.936000", "160844.939000", "160844.942000", "160844.944000", "160844.947000", "160844.950000", "160844.953000", "160844.956000", "160844.959000", "160844.961000", "160844.964000", "160844.967000", "160844.970000", "160844.977000", "160844.980000", "160844.983000", "160844.986000", "160844.988000", "160844.991000", "160844.994000", "160904.936000", "160904.939000", "160904.942000", "160904.944000", "160904.947000", "160904.950000", "160904.953000", "160904.956000", "160904.959000", "160904.962000", "160904.964000", "160904.967000", "160904.970000", "160904.987000", "160904.989000", "160904.992000", "160904.995000", "160904.998000", "160905.002000", "160905.005000", "160924.936000", "160924.944000", "160924.947000", "160924.950000", "160924.952000", "160924.955000", "160924.958000", "160924.961000", "160924.964000", "160924.967000", "160924.969000", "160924.972000", "160924.975000", "160924.991000", "160924.994000", "160924.997000", "160925.000000", "160925.003000", "160925.006000", "160925.009000", "160944.936000", "160944.939000", "160944.942000", "160944.944000", "160944.947000", "160944.950000", "160944.953000", "160944.956000", "160944.958000", "160944.961000", "160944.964000", "160944.967000", "160944.970000", "160944.972000", "160944.975000", "160944.978000", "160944.981000", "160944.989000", "160944.992000", "160944.994000", "161024.937000", "161024.940000", "161024.943000", "161024.946000", "161024.948000", "161024.951000", "161024.954000", "161024.957000", "161024.960000", "161024.962000", "161024.965000", "161024.968000", "161024.971000", "161024.974000", "161024.976000", "161024.979000", "161024.982000", "161024.985000", "161024.987000", "161024.990000", "161024.993000", "161024.996000", "161024.999000", "161025.012000", "161025.015000", "161025.017000", "161025.020000", "161104.936000", "161104.939000", "161104.942000", "161104.945000", "161104.947000", "161104.950000", "161104.953000", "161104.956000", "161104.959000", "161104.961000", "161104.964000", "161104.967000", "161104.970000", "161104.973000", "161104.976000", "161104.978000", "161104.981000", "161104.984000", "161104.987000", "161104.990000", "161104.992000", "161104.995000", "161104.998000", "161105.002000", "161105.005000", "161105.007000", "161105.010000", "161124.936000", "161124.939000", "161124.942000", "161124.945000", "161124.948000", "161124.950000", "161124.954000", "161124.957000", "161124.960000", "161124.963000", "161124.966000", "161124.968000", "161124.971000", "161204.936000", "161204.939000", "161204.942000", "161204.945000", "161204.947000", "161204.950000", "161204.953000", "161204.956000", "161204.959000", "161204.962000", "161204.964000", "161204.967000", "161204.970000", "161204.973000", "161204.976000", "161204.978000", "161204.981000", "161204.984000", "161204.987000", "161204.990000", "161204.993000", "161204.995000", "161204.998000", "161205.002000", "161205.005000", "161205.008000", "161205.010000", "161244.937000", "161244.940000", "161244.943000", "161244.945000", "161244.948000", "161244.951000", "161244.954000", "161244.957000", "161244.959000", "161244.962000", "161244.965000", "161244.968000", "161244.979000", "161244.982000", "161244.984000", "161244.987000", "161244.990000", "161244.993000", "161244.996000", "161244.998000", "161245.001000", "161245.004000", "161245.007000", "161245.010000", "161245.012000", "161245.015000", "161245.018000", "161324.936000", "161324.939000", "161324.942000", "161324.945000", "161324.947000", "161324.950000", "161324.953000", "161324.956000", "161324.959000", "161324.969000", "161324.972000", "161324.975000", "161324.978000", "161324.980000", "161324.983000", "161324.986000", "161324.989000", "161324.992000", "161324.995000", "161324.997000", "161325.000000", "161325.003000", "161325.006000", "161325.009000", "161325.012000", "161325.014000", "161325.017000", "161404.936000", "161404.939000", "161404.942000", "161404.945000", "161404.947000", "161404.950000", "161404.953000", "161404.956000", "161404.959000", "161404.962000", "161404.964000", "161404.967000", "161404.970000", "161404.973000", "161404.976000", "161404.979000", "161404.982000", "161404.985000", "161404.987000", "161404.990000", "161404.993000", "161404.996000", "161405.000000", "161405.002000", "161405.005000", "161405.008000", "161405.011000", "161444.944000", "161444.947000", "161444.950000", "161444.952000", "161444.955000", "161444.958000", "161444.961000", "161444.964000", "161444.966000", "161444.969000", "161444.972000", "161444.975000", "161444.978000", "161444.981000", "161444.984000", "161444.986000", "161444.989000", "161444.992000", "161444.995000", "161444.998000", "161445.001000", "161445.004000", "161445.007000", "161445.010000", "161445.013000", "161445.016000", "161445.018000", "161524.936000", "161524.939000", "161524.942000", "161524.945000", "161524.948000", "161524.950000", "161524.953000", "161524.956000", "161524.959000", "161524.963000", "161524.966000", "161524.969000", "161524.972000", "161524.976000", "161524.979000", "161524.982000", "161524.985000", "161524.988000", "161524.991000", "161524.994000", "161524.996000", "161525.000000", "161525.003000", "161525.006000", "161525.009000", "161525.012000", "161604.936000", "161604.939000", "161604.942000", "161604.945000", "161604.947000", "161604.950000", "161604.953000", "161604.956000", "161604.959000", "161604.961000", "161604.964000", "161604.967000", "161604.970000", "161604.973000", "161604.976000", "161604.978000", "161604.981000", "161604.984000", "161604.987000", "161604.990000", "161604.993000", "161604.995000", "161604.998000", "161605.002000", "161605.005000", "161605.008000", "161605.011000", "161644.936000", "161644.939000", "161644.942000", "161644.945000", "161644.948000", "161644.951000", "161644.953000", "161644.956000", "161644.959000", "161644.962000", "161644.965000", "161644.967000", "161644.970000", "161644.973000", "161644.976000", "161644.979000", "161644.982000", "161644.984000", "161644.987000", "161644.990000", "161644.993000", "161644.996000", "161645.000000", "161645.002000", "161645.005000", "161645.008000", "161645.011000", "161724.936000", "161724.939000", "161724.942000", "161724.945000", "161724.948000", "161724.950000", "161724.953000", "161724.956000", "161724.959000", "161724.962000", "161724.965000", "161724.967000", "161724.970000", "161724.973000", "161724.976000", "161724.979000", "161724.981000", "161724.984000", "161724.987000", "161724.990000", "161724.993000", "161724.996000", "161724.998000", "161725.002000", "161725.005000", "161725.008000", "161725.011000", "161804.936000", "161804.939000", "161804.942000", "161804.945000", "161804.948000", "161804.950000", "161804.953000", "161804.956000", "161804.959000", "161804.962000", "161804.965000", "161804.967000", "161804.970000", "161804.973000", "161804.976000", "161804.979000", "161804.982000", "161804.985000", "161804.988000", "161804.990000", "161804.993000", "161804.996000", "161805.000000", "161805.003000", "161805.006000", "161805.008000", "161805.011000", "161844.936000", "161844.939000", "161844.942000", "161844.945000", "161844.948000", "161844.950000", "161844.953000", "161844.956000", "161844.959000", "161844.962000", "161844.965000", "161844.967000", "161844.970000", "161844.973000", "161844.976000", "161844.979000", "161844.982000", "161844.984000", "161844.987000", "161844.990000", "161844.993000", "161844.996000", "161844.998000", "161845.002000", "161845.005000", "161845.008000", "161845.011000", "161924.913000", "161924.916000", "161924.919000", "161924.922000", "161924.924000", "161924.928000", "161924.930000", "161924.933000", "161924.936000", "161924.939000", "161924.942000", "161924.945000", "161924.948000", "161924.951000", "161924.954000", "161924.957000", "161924.960000", "161924.963000", "161924.966000", "161924.969000", "161924.972000", "161924.975000", "161924.977000", "161924.980000", "161924.983000", "161924.986000", "161924.989000"],
