{
  "AcquisitionMatrixPE": 104,
  "AcquisitionNumber": 1,
  "AcquisitionTime": "16:19:56.007500",
  "BandwidthPerPixelPhaseEncode": 17.17,
  "BaseResolution": 104,
  "BodyPartExamined": "BRAIN",
  "CoilString": "HC1-7;NC1_2",
  "ConsistencyInfo": "N4_VE11C_LATEST_20160120",
  "ConversionSoftware": "dcm2niix",
  "ConversionSoftwareVersion": "v1.0.20190720  (JP2:OpenJPEG) GCC7.3.0",
  "DerivedVendorReportedEchoSpacing": 0.000560011,
  "DeviceSerialNumber": "167006",
  "DwellTime": 2.1e-06,
  "EchoTime": 0.037,
  "EchoTrainLength": 104,
  "EffectiveEchoSpacing": 0.000560011,
  "FlipAngle": 52,
  "ImageComments": "Unaliased_MB4_PE3_LB",
  "ImageOrientationPatientDICOM": [0.999985, -0.000961446, 0.00530756, 0.00366514, 0.843048, -0.537826],
  "ImageType": [
    "ORIGINAL",
    "PRIMARY",
    "M",
    "MB",
    "ND",
    "MOSAIC"
],
  "ImagingFrequency": 123.259,
  "InPlanePhaseEncodingDirectionDICOM": "COL",
  "InstitutionAddress": "Chemin_Queen-Mary_4565_Montreal_District_CA_H3W_1W5",
  "InstitutionName": "IUGM",
  "InstitutionalDepartmentName": "Department",
  "MRAcquisitionType": "2D",
  "MagneticFieldStrength": 3,
  "Manufacturer": "Siemens",
  "ManufacturersModelName": "Prisma_fit",
  "Modality": "MR",
  "MultibandAccelerationFactor": 4,
  "PartialFourier": 1,
  "PatientPosition": "HFS",
  "PercentPhaseFOV": 100,
  "PhaseEncodingDirection": "j",
  "PhaseEncodingSteps": 104,
  "PhaseResolution": 1,
  "PixelBandwidth": 2290,
  "ProcedureStepDescription": "video_friends",
  "ProtocolName": "func_task-friends-s01e10b",
  "PulseSequenceDetails": "%CustomerSeq%_cmrr_mbep2d_bold",
  "ReceiveCoilActiveElements": "HC1-7;NC1,2",
  "ReceiveCoilName": "HeadNeck_64",
  "ReconMatrixPE": 104,
  "RepetitionTime": 1.49,
  "SAR": 0.0371444,
  "ScanOptions": "FS",
  "ScanningSequence": "EP",
  "SequenceName": "epfid2d1_104",
  "SequenceVariant": "SK_SS",
  "SeriesDescription": "func_task-friends-s01e10b",
  "SeriesNumber": 14,
  "ShimSetting": [623, -7177, -8887, 395, -8, -168, 8, -7],
  "SliceThickness": 2,
  "SliceTiming": [0, 0.785, 0.0975, 0.8825, 0.1975, 0.98, 0.295, 1.0775, 0.3925, 1.1775, 0.49, 1.275, 0.5875, 1.3725, 0.6875, 0, 0.785, 0.0975, 0.8825, 0.1975, 0.98, 0.295, 1.0775, 0.3925, 1.1775, 0.49, 1.275, 0.5875, 1.3725, 0.6875, 0, 0.785, 0.0975, 0.8825, 0.1975, 0.98, 0.295, 1.0775, 0.3925, 1.1775, 0.49, 1.275, 0.5875, 1.3725, 0.6875, 0, 0.785, 0.0975, 0.8825, 0.1975, 0.98, 0.295, 1.0775, 0.3925, 1.1775, 0.49, 1.275, 0.5875, 1.3725, 0.6875],
  "SoftwareVersions": "syngo_MR_E11",
  "SpacingBetweenSlices": 2,
  "StationName": "MRC35049",
  "TaskName": "friends",
  "TotalReadoutTime": 0.0576811,
  "TxRefAmp": 251.534,
  "WipMemBlock": "09121b1c-56ee-473b-8a82-488a2153f0ad||Sequence: R016 ve11c/master r/e634e98; Dec 19 2017 11:00:25 by eja",
  "dcmmeta_affine": [
    [-1.9999709129333496, 0.007330283988267183, 0.007914865389466286, 102.6148910522461],
    [0.0019228915916755795, 1.6860953569412231, -1.0756759643554688, -56.886131286621094],
    [0.010615114122629166, 1.0756527185440063, 1.6860778331756592, -108.3019790649414],
    [0.0, 0.0, 0.0, 1.0]
],
  "dcmmeta_reorient_transform": [
    [0.0, -1.0, 0.0, 103.0],
    [1.0, 0.0, 0.0, 0.0],
    [0.0, 0.0, 1.0, 0.0],
    [0.0, 0.0, 0.0, 1.0]
],
  "dcmmeta_shape": [104, 104, 60, 496],
  "dcmmeta_slice_dim": 2,
  "dcmmeta_version": 0.6,
  "global": {
    "const": {
      "AcquisitionMatrix": [104, 0, 0, 104],
      "AngioFlag": "N",
      "BitsAllocated": 16,
      "BitsStored": 16,
      "BodyPartExamined": "BRAIN",
      "Columns": 832,
      "EchoNumbers": 1,
      "EchoTime": 37.0,
      "EchoTrainLength": 104,
      "FlipAngle": 52.0,
      "HighBit": 15,
      "ImageOrientationPatient": [0.99998545262526, -0.0009614458053, 0.00530755686022, 0.00366514188682, 0.84304767824737, -0.5378263464508],
      "ImagePositionPatient": [-834.02754307575, -729.82046684261, 390.16392456537],
      "ImageType": [
        "ORIGINAL",
        "PRIMARY",
        "M",
        "MB",
        "ND",
        "MOSAIC"
],
      "ImagedNucleus": "1H",
      "ImagingFrequency": 123.259179,
      "InPlanePhaseEncodingDirection": "COL",
      "MRAcquisitionType": "2D",
      "MagneticFieldStrength": 3.0,
      "Manufacturer": "SIEMENS",
      "ManufacturerModelName": "Prisma_fit",
      "Modality": "MR",
      "NumberOfAverages": 1.0,
      "NumberOfPhaseEncodingSteps": 104,
      "PercentPhaseFieldOfView": 100.0,
      "PercentSampling": 100.0,
      "PerformedProcedureStepStartTime": "153514.919000",
      "PhotometricInterpretation": "MONOCHROME2",
      "PixelBandwidth": 2290.0,
      "PixelRepresentation": 0,
      "PixelSpacing": [2.0, 2.0],
      "ProtocolName": "func_task-friends-s01e10b",
      "RepetitionTime": 1490.0,
      "Rows": 832,
      "SAR": 0.03714444892306,
      "SamplesPerPixel": 1,
      "ScanOptions": "FS",
      "ScanningSequence": "EP",
      "SequenceName": "epfid2d1_104",
      "SequenceVariant": [
        "SK",
        "SS"
],
      "SeriesDescription": "func_task-friends-s01e10b",
      "SeriesNumber": 14,
      "SeriesTime": "162109.686000",
      "SliceLocation": -60.301173936194,
      "SliceThickness": 2.0,
      "SmallestImagePixelValue": 0,
      "SoftwareVersions": "syngo MR E11",
      "SpacingBetweenSlices": 1.9999999851967,
      "SpecificCharacterSet": "ISO_IR 100",
      "StudyID": "1",
      "StudyTime": "153514.845000",
      "TransmitCoilName": "Body",
      "VariableFlipAngleFlag": "N",
      "WindowCenterWidthExplanation": "Algo1",
      "dBdt": 0.0},
    "slices": {}
  },
  "time": {
    "samples": {
      "AcquisitionNumber": [1, 2, 3, 4, 5, 6, 7, 8, 9, 10, 11, 12, 13, 14, 15, 16, 17, 18, 19, 20, 21, 22, 23, 24, 25, 26, 27, 28, 29, 30, 31, 32, 33, 34, 35, 36, 37, 38, 39, 40, 41, 42, 43, 44, 45, 46, 47, 48, 49, 50, 51, 52, 53, 54, 55, 56, 57, 58, 59, 60, 61, 62, 63, 64, 65, 66, 67, 68, 69, 70, 71, 72, 73, 74, 75, 76, 77, 78, 79, 80, 81, 82, 83, 84, 85, 86, 87, 88, 89, 90, 91, 92, 93, 94, 95, 96, 97, 98, 99, 100, 101, 102, 103, 104, 105, 106, 107, 108, 109, 110, 111, 112, 113, 114, 115, 116, 117, 118, 119, 120, 121, 122, 123, 124, 125, 126, 127, 128, 129, 130, 131, 132, 133, 134, 135, 136, 137, 138, 139, 140, 141, 142, 143, 144, 145, 146, 147, 148, 149, 150, 151, 152, 153, 154, 155, 156, 157, 158, 159, 160, 161, 162, 163, 164, 165, 166, 167, 168, 169, 170, 171, 172, 173, 174, 175, 176, 177, 178, 179, 180, 181, 182, 183, 184, 185, 186, 187, 188, 189, 190, 191, 192, 193, 194, 195, 196, 197, 198, 199, 200, 201, 202, 203, 204, 205, 206, 207, 208, 209, 210, 211, 212, 213, 214, 215, 216, 217, 218, 219, 220, 221, 222, 223, 224, 225, 226, 227, 228, 229, 230, 231, 232, 233, 234, 235, 236, 237, 238, 239, 240, 241, 242, 243, 244, 245, 246, 247, 248, 249, 250, 251, 252, 253, 254, 255, 256, 257, 258, 259, 260, 261, 262, 263, 264, 265, 266, 267, 268, 269, 270, 271, 272, 273, 274, 275, 276, 277, 278, 279, 280, 281, 282, 283, 284, 285, 286, 287, 288, 289, 290, 291, 292, 293, 294, 295, 296, 297, 298, 299, 300, 301, 302, 303, 304, 305, 306, 307, 308, 309, 310, 311, 312, 313, 314, 315, 316, 317, 318, 319, 320, 321, 322, 323, 324, 325, 326, 327, 328, 329, 330, 331, 332, 333, 334, 335, 336, 337, 338, 339, 340, 341, 342, 343, 344, 345, 346, 347, 348, 349, 350, 351, 352, 353, 354, 355, 356, 357, 358, 359, 360, 361, 362, 363, 364, 365, 366, 367, 368, 369, 370, 371, 372, 373, 374, 375, 376, 377, 378, 379, 380, 381, 382, 383, 384, 385, 386, 387, 388, 389, 390, 391, 392, 393, 394, 395, 396, 397, 398, 399, 400, 401, 402, 403, 404, 405, 406, 407, 408, 409, 410, 411, 412, 413, 414, 415, 416, 417, 418, 419, 420, 421, 422, 423, 424, 425, 426, 427, 428, 429, 430, 431, 432, 433, 434, 435, 436, 437, 438, 439, 440, 441, 442, 443, 444, 445, 446, 447, 448, 449, 450, 451, 452, 453, 454, 455, 456, 457, 458, 459, 460, 461, 462, 463, 464, 465, 466, 467, 468, 469, 470, 471, 472, 473, 474, 475, 476, 477, 478, 479, 480, 481, 482, 483, 484, 485, 486, 487, 488, 489, 490, 491, 492, 493, 494, 495, 496],
      "AcquisitionTime": ["161956.007500", "161957.497500", "161958.987500", "162000.477500", "162001.967500", "162003.457500", "162004.947500", "162006.437500", "162007.927500", "162009.417500", "162010.907500", "162012.397500", "162013.887500", "162015.377500", "162016.867500", "162018.357500", "162019.847500", "162021.337500", "162022.827500", "162024.317500", "162025.807500", "162027.297500", "162028.787500", "162030.277500", "162031.767500", "162033.257500", "162034.747500", "162036.237500", "162037.727500", "162039.217500", "162040.707500", "162042.197500", "162043.687500", "162045.177500", "162046.667500", "162048.157500", "162049.647500", "162051.137500", "162052.627500", "162054.117500", "162055.607500", "162057.097500", "162058.587500", "162100.077500", "162101.567500", "162103.057500", "162104.547500", "162106.037500", "162107.527500", "162109.017500", "162110.507500", "162111.997500", "162113.487500", "162114.977500", "162116.467500", "162117.957500", "162119.447500", "162120.937500", "162122.427500", "162123.917500", "162125.407500", "162126.897500", "162128.387500", "162129.877500", "162131.367500", "162132.857500", "162134.347500", "162135.837500", "162137.327500", "162138.817500", "162140.307500", "162141.797500", "162143.287500", "162144.777500", "162146.267500", "162147.757500", "162149.247500", "162150.737500", "162152.227500", "162153.717500", "162155.207500", "162156.697500", "162158.187500", "162159.677500", "162201.167500", "162202.657500", "162204.147500", "162205.637500", "162207.127500", "162208.617500", "162210.107500", "162211.597500", "162213.087500", "162214.577500", "162216.067500", "162217.557500", "162219.047500", "162220.537500", "162222.027500", "162223.517500", "162225.007500", "162226.497500", "162227.987500", "162229.477500", "162230.967500", "162232.457500", "162233.947500", "162235.437500", "162236.927500", "162238.417500", "162239.907500", "162241.397500", "162242.887500", "162244.377500", "162245.867500", "162247.357500", "162248.847500", "162250.337500", "162251.827500", "162253.317500", "162254.807500", "162256.297500", "162257.787500", "162259.277500", "162300.767500", "162302.257500", "162303.747500", "162305.237500", "162306.727500", "162308.217500", "162309.707500", "162311.197500", "162312.687500", "162314.177500", "162315.667500", "162317.157500", "162318.647500", "162320.137500", "162321.627500", "162323.117500", "162324.607500", "162326.097500", "162327.587500", "162329.077500", "162330.567500", "162332.057500", "162333.547500", "162335.037500", "162336.527500", "162338.017500", "162339.507500", "162340.997500", "162342.487500", "162343.977500", "162345.467500", "162346.957500", "162348.447500", "162349.937500", "162351.427500", "162352.917500", "162354.407500", "162355.897500", "162357.387500", "162358.877500", "162400.367500", "162401.857500", "162403.347500", "162404.837500", "162406.327500", "162407.817500", "162409.307500", "162410.797500", "162412.287500", "162413.777500", "162415.267500", "162416.757500", "162418.247500", "162419.737500", "162421.227500", "162422.717500", "162424.207500", "162425.697500", "162427.187500", "162428.677500", "162430.167500", "162431.657500", "162433.147500", "162434.637500", "162436.127500", "162437.617500", "162439.107500", "162440.597500", "162442.087500", "162443.577500", "162445.067500", "162446.557500", "162448.047500", "162449.537500", "162451.027500", "162452.517500", "162454.007500", "162455.497500", "162456.987500", "162458.477500", "162459.967500", "162501.457500", "162502.947500", "162504.437500", "162505.927500", "162507.417500", "162508.907500", "162510.397500", "162511.887500", "162513.377500", "162514.867500", "162516.357500", "162517.847500", "162519.337500", "162520.827500", "162522.317500", "162523.807500", "162525.297500", "162526.787500", "162528.277500", "162529.767500", "162531.257500", "162532.747500", "162534.237500", "162535.727500", "162537.217500", "162538.707500", "162540.197500", "162541.687500", "162543.177500", "162544.667500", "162546.157500", "162547.647500", "162549.137500", "162550.627500", "162552.117500", "162553.607500", "162555.097500", "162556.587500", "162558.077500", "162559.567500", "162601.057500", "162602.547500", "162604.037500", "162605.527500", "162607.017500", "162608.507500", "162609.997500", "162611.487500", "162612.977500", "162614.467500", "162615.957500", "162617.447500", "162618.937500", "162620.427500", "162621.917500", "162623.407500", "162624.897500", "162626.387500", "162627.877500", "162629.367500", "162630.857500", "162632.347500", "162633.837500", "162635.327500", "162636.817500", "162638.307500", "162639.797500", "162641.287500", "162642.777500", "162644.267500", "162645.757500", "162647.247500", "162648.737500", "162650.227500", "162651.717500", "162653.207500", "162654.697500", "162656.187500", "162657.677500", "162659.167500", "162700.657500", "162702.147500", "162703.637500", "162705.127500", "162706.617500", "162708.107500", "162709.597500", "162711.087500", "162712.577500", "162714.067500", "162715.557500", "162717.047500", "162718.537500", "162720.027500", "162721.517500", "162723.007500", "162724.497500", "162725.987500", "162727.477500", "162728.967500", "162730.457500", "162731.947500", "162733.437500", "162734.927500", "162736.417500", "162737.907500", "162739.397500", "162740.887500", "162742.377500", "162743.867500", "162745.357500", "162746.847500", "162748.337500", "162749.827500", "162751.317500", "162752.807500", "162754.297500", "162755.787500", "162757.277500", "162758.767500", "162800.257500", "162801.747500", "162803.237500", "162804.727500", "162806.217500", "162807.707500", "162809.197500", "162810.687500", "162812.177500", "162813.667500", "162815.157500", "162816.647500", "162818.137500", "162819.627500", "162821.117500", "162822.607500", "162824.097500", "162825.587500", "162827.077500", "162828.567500", "162830.057500", "162831.547500", "162833.037500", "162834.527500", "162836.017500", "162837.507500", "162838.997500", "162840.487500", "162841.977500", "162843.467500", "162844.957500", "162846.447500", "162847.937500", "162849.427500", "162850.917500", "162852.407500", "162853.897500", "162855.387500", "162856.877500", "162858.367500", "162859.857500", "162901.347500", "162902.837500", "162904.327500", "162905.817500", "162907.307500", "162908.797500", "162910.287500", "162911.777500", "162913.267500", "162914.757500", "162916.247500", "162917.737500", "162919.227500", "162920.717500", "162922.207500", "162923.697500", "162925.187500", "162926.677500", "162928.167500", "162929.657500", "162931.147500", "162932.637500", "162934.127500", "162935.617500", "162937.107500", "162938.597500", "162940.087500", "162941.577500", "162943.067500", "162944.557500", "162946.047500", "162947.537500", "162949.027500", "162950.517500", "162952.007500", "162953.497500", "162954.987500", "162956.477500", "162957.967500", "162959.457500", "163000.947500", "163002.437500", "163003.927500", "163005.417500", "163006.907500", "163008.397500", "163009.887500", "163011.377500", "163012.867500", "163014.357500", "163015.847500", "163017.337500", "163018.827500", "163020.317500", "163021.807500", "163023.297500", "163024.787500", "163026.277500", "163027.767500", "163029.257500", "163030.747500", "163032.237500", "163033.727500", "163035.217500", "163036.707500", "163038.197500", "163039.687500", "163041.177500", "163042.667500", "163044.157500", "163045.647500", "163047.137500", "163048.627500", "163050.117500", "163051.607500", "163053.097500", "163054.587500", "163056.077500", "163057.567500", "163059.057500", "163100.547500", "163102.037500", "163103.527500", "163105.017500", "163106.507500", "163107.997500", "163109.487500", "163110.977500", "163112.467500", "163113.957500", "163115.447500", "163116.937500", "163118.427500", "163119.917500", "163121.407500", "163122.897500", "163124.387500", "163125.877500", "163127.367500", "163128.857500", "163130.347500", "163131.837500", "163133.327500", "163134.817500", "163136.307500", "163137.797500", "163139.287500", "163140.777500", "163142.267500", "163143.757500", "163145.247500", "163146.737500", "163148.227500", "163149.717500", "163151.207500", "163152.697500", "163154.187500", "163155.677500", "163157.167500", "163158.657500", "163200.147500", "163201.637500", "163203.127500", "163204.617500", "163206.107500", "163207.597500", "163209.087500", "163210.577500", "163212.067500", "163213.557500"],
      "ContentTime": ["162109.689000", "162109.696000", "162109.699000", "162109.701000", "162109.704000", "162109.707000", "162109.710000", "162109.713000", "162109.716000", "162109.718000", "162109.721000", "162109.724000", "162109.727000", "162109.730000", "162109.732000", "162109.735000", "162109.738000", "162109.741000", "162109.743000", "162109.749000", "162129.660000", "162129.663000", "162129.666000", "162129.668000", "162129.671000", "162129.674000", "162129.677000", "162129.680000", "162129.682000", "162129.685000", "162129.688000", "162129.691000", "162129.694000", "162129.696000", "162129.699000", "162129.702000", "162129.705000", "162129.708000", "162129.710000", "162129.713000", "162149.660000", "162149.670000", "162149.673000", "162149.676000", "162149.678000", "162149.681000", "162149.684000", "162149.687000", "162149.689000", "162149.692000", "162149.695000", "162149.698000", "162149.701000", "162149.704000", "162149.707000", "162149.709000", "162149.712000", "162149.715000", "162149.718000", "162149.720000", "162209.660000", "162209.663000", "162209.666000", "162209.668000", "162209.671000", "162209.674000", "162209.677000", "162209.680000", "162209.682000", "162209.685000", "162209.688000", "162209.691000", "162209.694000", "162209.697000", "162209.700000", "162209.702000", "162209.705000", "162209.708000", "162209.711000", "162209.714000", "162229.660000", "162229.663000", "162229.665000", "162229.668000", "162229.671000", "162229.674000", "162229.677000", "162229.680000", "162229.683000", "162229.686000", "162229.688000", "162229.691000", "162229.694000", "162229.697000", "162229.700000", "162229.703000", "162229.706000", "162229.708000", "162229.711000", "162229.714000", "162229.717000", "162309.659000", "162309.662000", "162309.665000", "162309.668000", "162309.671000", "162309.673000", "162309.676000", "162309.679000", "162309.682000", "162309.685000", "162309.688000", "162309.691000", "162309.694000", "162309.696000", "162309.699000", "162309.702000", "162309.705000", "162309.708000", "162309.711000", "162309.713000", "162309.716000", "162309.719000", "162309.722000", "162309.725000", "162309.728000", "162309.731000", "162309.734000", "162309.736000", "162349.660000", "162349.663000", "162349.666000", "162349.669000", "162349.672000", "162349.675000", "162349.677000", "162349.680000", "162349.683000", "162349.686000", "162349.689000", "162349.692000", "162349.695000", "162349.697000", "162349.700000", "162349.703000", "162349.706000", "162349.723000", "162349.726000", "162349.729000", "162349.732000", "162349.735000", "162349.737000", "162349.740000", "162349.743000", "162349.746000", "162349.749000", "162429.660000", "162429.663000", "162429.666000", "162429.669000", "162429.672000", "162429.675000", "162429.678000", "162429.680000", "162429.683000", "162429.686000", "162429.689000", "162429.692000", "162429.695000", "162429.698000", "162429.701000", "162429.704000", "162429.706000", "162429.710000", "162429.712000", "162429.715000", "162429.718000", "162429.721000", "162429.724000", "162429.727000", "162429.729000", "162429.732000", "162509.660000", "162509.670000", "162509.673000", "162509.675000", "162509.678000", "162509.681000", "162509.684000", "162509.687000", "162509.690000", "162509.693000", "162509.696000", "162509.698000", "162509.701000", "162509.704000", "162509.707000", "162509.710000", "162509.713000", "162509.716000", "162509.719000", "162509.721000", "162509.724000", "162509.727000", "162509.730000", "162509.733000", "162509.736000", "162509.739000", "162509.742000", "162549.659000", "162549.662000", "162549.665000", "162549.668000", "162549.671000", "162549.673000", "162549.676000", "162549.679000", "162549.682000", "162549.685000", "162549.688000", "162549.691000", "162549.694000", "162549.696000", "162549.699000", "162549.702000", "162549.705000", "162549.708000", "162549.711000", "162549.714000", "162549.717000", "162549.719000", "162549.722000", "162549.725000", "162549.728000", "162549.731000", "162549.734000", "162629.660000", "162629.663000", "162629.666000", "162629.669000", "162629.672000", "162629.675000", "162629.678000", "162629.680000", "162629.683000", "162629.686000", "162629.689000", "162629.692000", "162629.702000", "162629.705000", "162629.708000", "162629.711000", "162629.714000", "162629.716000", "162629.719000", "162629.722000", "162629.725000", "162629.728000", "162629.731000", "162629.734000", "162629.737000", "162629.739000", "162629.742000", "162709.660000", "162709.666000", "162709.669000", "162709.672000", "162709.675000", "162709.678000", "162709.681000", "162709.684000", "162709.687000", "162709.690000", "162709.693000", "162709.695000", "162709.698000", "162709.701000", "162709.704000", "162709.707000", "162709.710000", "162709.713000", "162709.716000", "162709.718000", "162709.721000", "162709.724000", "162709.727000", "162709.730000", "162709.733000", "162709.736000", "162709.738000", "162749.659000", "162749.662000", "162749.665000", "162749.668000", "162749.671000", "162749.673000", "162749.676000", "162749.679000", "162749.682000", "162749.685000", "162749.688000", "162749.691000", "162749.693000", "162749.696000", "162749.699000", "162749.702000", "162749.705000", "162749.708000", "162749.711000", "162749.714000", "162749.716000", "162749.719000", "162749.722000", "162749.725000", "162749.728000", "162749.731000", "162749.734000", "162829.660000", "162829.663000", "162829.667000", "162829.670000", "162829.673000", "162829.676000", "162829.679000", "162829.681000", "162829.684000", "162829.687000", "162829.690000", "162829.693000", "162829.696000", "162829.699000", "162829.702000", "162829.704000", "162829.707000", "162829.710000", "162829.713000", "162829.716000", "162829.719000", "162829.722000", "162829.725000", "162829.727000", "162829.730000", "162829.733000", "162909.660000", "162909.663000", "162909.666000", "162909.669000", "162909.672000", "162909.675000", "162909.678000", "162909.680000", "162909.683000", "162909.686000", "162909.689000", "162909.692000", "162909.695000", "162909.698000", "162909.701000", "162909.703000", "162909.706000", "162909.709000", "162909.712000", "162909.715000", "162909.718000", "162909.721000", "162909.724000", "162909.726000", "162909.729000", "162909.732000", "162909.735000", "162949.660000", "162949.663000", "162949.666000", "162949.669000", "162949.671000", "162949.674000", "162949.677000", "162949.680000", "162949.683000", "162949.686000", "162949.689000", "162949.691000", "162949.694000", "162949.697000", "162949.700000", "162949.703000", "162949.706000", "162949.708000", "162949.711000", "162949.714000", "162949.717000", "162949.720000", "162949.722000", "162949.725000", "162949.728000", "162949.731000", "162949.734000", "163029.659000", "163029.662000", "163029.665000", "163029.668000", "163029.671000", "163029.673000", "163029.676000", "163029.679000", "163029.682000", "163029.685000", "163029.688000", "163029.691000", "163029.693000", "163029.696000", "163029.699000", "163029.702000", "163029.705000", "163029.708000", "163029.710000", "163029.713000", "163029.716000", "163029.719000", "163029.722000", "163029.725000", "163029.728000", "163029.730000", "163029.733000", "163109.660000", "163109.663000", "163109.666000", "163109.669000", "163109.671000", "163109.674000", "163109.677000", "163109.680000", "163109.683000", "163109.686000", "163109.688000", "163109.691000", "163109.694000", "163109.697000", "163109.700000", "163109.703000", "163109.705000", "163109.708000", "163109.711000", "163109.714000", "163109.717000", "163109.720000", "163109.722000", "163109.725000", "163109.728000", "163109.731000", "163109.734000", "163129.660000", "163129.663000", "163129.666000", "163129.669000", "163129.672000", "163129.675000", "163129.677000", "163129.680000", "163129.683000", "163129.686000", "163129.689000", "163129.692000", "163129.695000", "163209.660000", "163209.663000", "163209.666000", "163209.668000", "163209.671000", "163209.674000", "163209.677000", "163209.680000", "163209.683000", "163209.686000", "163209.688000", "163209.691000", "163209.694000", "163209.697000", "163209.700000", "163209.703000", "163209.715000", "163209.718000", "163209.721000", "163209.724000", "163209.727000", "163209.729000", "163209.732000", "163209.735000", "163209.738000", "163209.741000", "163209.744000", "163216.199000", "163216.202000", "163216.205000", "163216.208000", "163216.211000"],
