{
  "AcquisitionMatrixPE": 104,
  "AcquisitionNumber": 1,
  "AcquisitionTime": "17:49:11.022500",
  "BandwidthPerPixelPhaseEncode": 17.17,
  "BaseResolution": 104,
  "BodyPartExamined": "BRAIN",
  "CoilCombinationMethod": "Sum of Squares",
  "ConsistencyInfo": "N4_VE11C_LATEST_20160120",
  "ConversionSoftware": "dcm2niix",
  "ConversionSoftwareVersion": "v1.0.20211006",
  "DerivedVendorReportedEchoSpacing": 0.000560011,
  "DeviceSerialNumber": "167006",
  "DwellTime": 2.1e-06,
  "EchoTime": 0.037,
  "EchoTrainLength": 104,
  "EffectiveEchoSpacing": 0.000560011,
  "FlipAngle": 52,
  "HeudiconvVersion": "0.5.3.post569+g418601f",
  "ImageComments": "Unaliased MB4/PE3/LB",
  "ImageOrientationPatientDICOM": [0.997752, 0.0517444, 0.0425768, -0.0264756, 0.888099, -0.458889],
  "ImageOrientationText": "Tra>Cor(-27.2)>Sag(3.5)",
  "ImageType": [
    "ORIGINAL",
    "PRIMARY",
    "M",
    "MB",
    "ND",
    "MOSAIC"
],
  "ImagingFrequency": 123.259,
  "InPlanePhaseEncodingDirectionDICOM": "COL",
  "InstitutionAddress": "Chemin Queen-Mary 4565,Montreal,District,CA,H3W 1W5",
  "InstitutionName": "IUGM",
  "InstitutionalDepartmentName": "Department",
  "MRAcquisitionType": "2D",
  "MagneticFieldStrength": 3,
  "Manufacturer": "Siemens",
  "ManufacturersModelName": "Prisma_fit",
  "MatrixCoilMode": "SENSE",
  "Modality": "MR",
  "MultibandAccelerationFactor": 4,
  "PartialFourier": 1,
  "PatientPosition": "HFS",
  "PercentPhaseFOV": 100,
  "PercentSampling": 100,
  "PhaseEncodingDirection": "j",
  "PhaseEncodingSteps": 104,
  "PhaseResolution": 1,
  "PixelBandwidth": 2290,
  "ProcedureStepDescription": "video^friends",
  "ProtocolName": "func_task-friends-s05e21b",
  "PulseSequenceDetails": "%CustomerSeq%\\cmrr_mbep2d_bold",
  "ReceiveCoilActiveElements": "HC1-7;NC1,2",
  "ReceiveCoilName": "HeadNeck_64",
  "ReconMatrixPE": 104,
  "RepetitionTime": 1.49,
  "SAR": 0.0502617,
  "ScanOptions": "FS",
  "ScanningSequence": "EP",
  "SequenceName": "epfid2d1_104",
  "SequenceVariant": "SK\\SS",
  "SeriesDescription": "func_task-friends-s05e21b",
  "SeriesNumber": 11,
  "ShimSetting": [649, -7163, -8845, 564, 97, -29, -147, 45],
  "SliceThickness": 2,
  "SliceTiming": [0, 0.7825, 0.0975, 0.88, 0.195, 0.98, 0.2925, 1.0775, 0.39, 1.175, 0.49, 1.2725, 0.5875, 1.37, 0.685, 0, 0.7825, 0.0975, 0.88, 0.195, 0.98, 0.2925, 1.0775, 0.39, 1.175, 0.49, 1.2725, 0.5875, 1.37, 0.685, 0, 0.7825, 0.0975, 0.88, 0.195, 0.98, 0.2925, 1.0775, 0.39, 1.175, 0.49, 1.2725, 0.5875, 1.37, 0.685, 0, 0.7825, 0.0975, 0.88, 0.195, 0.98, 0.2925, 1.0775, 0.39, 1.175, 0.49, 1.2725, 0.5875, 1.37, 0.685],
  "SoftwareVersions": "syngo MR E11",
  "SpacingBetweenSlices": 2,
  "StationName": "MRC35049",
  "TaskName": "s05e21b",
  "TotalReadoutTime": 0.0576811,
  "TxRefAmp": 272.973,
  "WipMemBlock": "2b1eaa3a-eca6-44f0-8595-a3b5ef3ebb26||Sequence: R016 ve11c/master r/e634e98; Dec 19 2017 11:00:25 by eja",
  "dcmmeta_affine": [
    [-1.9955047369003296, -0.05295123532414436, 0.12311471998691559, 102.85861206054688],
    [-0.10348878800868988, 1.7761980295181274, -0.9134607911109924, -56.35749816894531],
    [0.08515362441539764, 0.9177781939506531, 1.774945616722107, -80.4247817993164],
    [0.0, 0.0, 0.0, 1.0]
],
  "dcmmeta_reorient_transform": [
    [0.0, -1.0, 0.0, 103.0],
    [1.0, 0.0, 0.0, 0.0],
    [0.0, 0.0, 1.0, 0.0],
    [0.0, 0.0, 0.0, 1.0]
],
  "dcmmeta_shape": [104, 104, 60, 478],
  "dcmmeta_slice_dim": 2,
  "dcmmeta_version": 0.6,
  "global": {
    "const": {
      "AcquisitionMatrix": [104, 0, 0, 104],
      "AngioFlag": "N",
      "BitsAllocated": 16,
      "BitsStored": 16,
      "BodyPartExamined": "BRAIN",
      "Columns": 832,
      "EchoNumbers": 1,
      "EchoTime": 37.0,
      "EchoTrainLength": 104,
      "FlipAngle": 52.0,
      "HighBit": 15,
      "ImageOrientationPatient": [0.99775234041351, 0.05174439250809, 0.04257681344733, -0.0264756169687, 0.88809900924259, -0.4588890840807],
      "ImagePositionPatient": [-804.49409343752, -810.7968934841, 317.18170372877],
      "ImageType": [
        "ORIGINAL",
        "PRIMARY",
        "M",
        "MB",
        "ND",
        "MOSAIC"
],
      "ImagedNucleus": "1H",
      "ImagingFrequency": 123.258859,
      "InPlanePhaseEncodingDirection": "COL",
      "MRAcquisitionType": "2D",
      "MagneticFieldStrength": 3.0,
      "Manufacturer": "SIEMENS",
      "ManufacturerModelName": "Prisma_fit",
      "Modality": "MR",
      "NumberOfAverages": 1.0,
      "NumberOfPhaseEncodingSteps": 104,
      "PercentPhaseFieldOfView": 100.0,
      "PercentSampling": 100.0,
      "PerformedProcedureStepStartTime": "170136.397000",
      "PhotometricInterpretation": "MONOCHROME2",
      "PixelBandwidth": 2290.0,
      "PixelRepresentation": 0,
      "PixelSpacing": [2.0, 2.0],
      "ProtocolName": "func_task-friends-s05e21b",
      "RepetitionTime": 1490.0,
      "Rows": 832,
      "SAR": 0.05026172361505,
      "SamplesPerPixel": 1,
      "ScanOptions": "FS",
      "ScanningSequence": "EP",
      "SequenceName": "epfid2d1_104",
      "SequenceVariant": [
        "SK",
        "SS"
],
      "SeriesDescription": "func_task-friends-s05e21b",
      "SeriesNumber": 11,
      "SeriesTime": "175017.490000",
      "SliceLocation": -39.302918913711,
      "SliceThickness": 2.0,
      "SmallestImagePixelValue": 0,
      "SoftwareVersions": "syngo MR E11",
      "SpacingBetweenSlices": 1.9999999563951,
      "SpecificCharacterSet": "ISO_IR 100",
      "StudyID": "1",
      "StudyTime": "170136.331000",
      "TransmitCoilName": "Body",
      "VariableFlipAngleFlag": "N",
      "WindowCenterWidthExplanation": "Algo1",
      "dBdt": 0.0},
    "slices": {}
  },
  "time": {
    "samples": {
      "AcquisitionNumber": [1, 2, 3, 4, 5, 6, 7, 8, 9, 10, 11, 12, 13, 14, 15, 16, 17, 18, 19, 20, 21, 22, 23, 24, 25, 26, 27, 28, 29, 30, 31, 32, 33, 34, 35, 36, 37, 38, 39, 40, 41, 42, 43, 44, 45, 46, 47, 48, 49, 50, 51, 52, 53, 54, 55, 56, 57, 58, 59, 60, 61, 62, 63, 64, 65, 66, 67, 68, 69, 70, 71, 72, 73, 74, 75, 76, 77, 78, 79, 80, 81, 82, 83, 84, 85, 86, 87, 88, 89, 90, 91, 92, 93, 94, 95, 96, 97, 98, 99, 100, 101, 102, 103, 104, 105, 106, 107, 108, 109, 110, 111, 112, 113, 114, 115, 116, 117, 118, 119, 120, 121, 122, 123, 124, 125, 126, 127, 128, 129, 130, 131, 132, 133, 134, 135, 136, 137, 138, 139, 140, 141, 142, 143, 144, 145, 146, 147, 148, 149, 150, 151, 152, 153, 154, 155, 156, 157, 158, 159, 160, 161, 162, 163, 164, 165, 166, 167, 168, 169, 170, 171, 172, 173, 174, 175, 176, 177, 178, 179, 180, 181, 182, 183, 184, 185, 186, 187, 188, 189, 190, 191, 192, 193, 194, 195, 196, 197, 198, 199, 200, 201, 202, 203, 204, 205, 206, 207, 208, 209, 210, 211, 212, 213, 214, 215, 216, 217, 218, 219, 220, 221, 222, 223, 224, 225, 226, 227, 228, 229, 230, 231, 232, 233, 234, 235, 236, 237, 238, 239, 240, 241, 242, 243, 244, 245, 246, 247, 248, 249, 250, 251, 252, 253, 254, 255, 256, 257, 258, 259, 260, 261, 262, 263, 264, 265, 266, 267, 268, 269, 270, 271, 272, 273, 274, 275, 276, 277, 278, 279, 280, 281, 282, 283, 284, 285, 286, 287, 288, 289, 290, 291, 292, 293, 294, 295, 296, 297, 298, 299, 300, 301, 302, 303, 304, 305, 306, 307, 308, 309, 310, 311, 312, 313, 314, 315, 316, 317, 318, 319, 320, 321, 322, 323, 324, 325, 326, 327, 328, 329, 330, 331, 332, 333, 334, 335, 336, 337, 338, 339, 340, 341, 342, 343, 344, 345, 346, 347, 348, 349, 350, 351, 352, 353, 354, 355, 356, 357, 358, 359, 360, 361, 362, 363, 364, 365, 366, 367, 368, 369, 370, 371, 372, 373, 374, 375, 376, 377, 378, 379, 380, 381, 382, 383, 384, 385, 386, 387, 388, 389, 390, 391, 392, 393, 394, 395, 396, 397, 398, 399, 400, 401, 402, 403, 404, 405, 406, 407, 408, 409, 410, 411, 412, 413, 414, 415, 416, 417, 418, 419, 420, 421, 422, 423, 424, 425, 426, 427, 428, 429, 430, 431, 432, 433, 434, 435, 436, 437, 438, 439, 440, 441, 442, 443, 444, 445, 446, 447, 448, 449, 450, 451, 452, 453, 454, 455, 456, 457, 458, 459, 460, 461, 462, 463, 464, 465, 466, 467, 468, 469, 470, 471, 472, 473, 474, 475, 476, 477, 478],
      "AcquisitionTime": ["174911.022500", "174912.512500", "174914.002500", "174915.492500", "174916.982500", "174918.472500", "174919.962500", "174921.452500", "174922.942500", "174924.432500", "174925.922500", "174927.412500", "174928.902500", "174930.392500", "174931.882500", "174933.372500", "174934.862500", "174936.352500", "174937.842500", "174939.332500", "174940.822500", "174942.312500", "174943.802500", "174945.292500", "174946.782500", "174948.272500", "174949.762500", "174951.252500", "174952.742500", "174954.232500", "174955.722500", "174957.212500", "174958.702500", "175000.192500", "175001.682500", "175003.172500", "175004.662500", "175006.152500", "175007.642500", "175009.132500", "175010.622500", "175012.112500", "175013.602500", "175015.092500", "175016.582500", "175018.072500", "175019.562500", "175021.052500", "175022.542500", "175024.032500", "175025.522500", "175027.012500", "175028.502500", "175029.992500", "175031.482500", "175032.972500", "175034.462500", "175035.952500", "175037.442500", "175038.932500", "175040.422500", "175041.912500", "175043.402500", "175044.892500", "175046.382500", "175047.872500", "175049.362500", "175050.852500", "175052.342500", "175053.832500", "175055.322500", "175056.812500", "175058.302500", "175059.792500", "175101.282500", "175102.772500", "175104.262500", "175105.752500", "175107.242500", "175108.732500", "175110.222500", "175111.712500", "175113.202500", "175114.692500", "175116.182500", "175117.672500", "175119.162500", "175120.652500", "175122.142500", "175123.632500", "175125.122500", "175126.612500", "175128.102500", "175129.592500", "175131.082500", "175132.572500", "175134.062500", "175135.552500", "175137.042500", "175138.532500", "175140.022500", "175141.512500", "175143.002500", "175144.492500", "175145.982500", "175147.472500", "175148.962500", "175150.452500", "175151.942500", "175153.432500", "175154.922500", "175156.412500", "175157.902500", "175159.392500", "175200.882500", "175202.372500", "175203.862500", "175205.352500", "175206.842500", "175208.332500", "175209.822500", "175211.312500", "175212.802500", "175214.292500", "175215.782500", "175217.272500", "175218.762500", "175220.252500", "175221.742500", "175223.232500", "175224.722500", "175226.212500", "175227.702500", "175229.192500", "175230.682500", "175232.172500", "175233.662500", "175235.152500", "175236.642500", "175238.132500", "175239.622500", "175241.112500", "175242.602500", "175244.092500", "175245.582500", "175247.072500", "175248.562500", "175250.052500", "175251.542500", "175253.032500", "175254.522500", "175256.012500", "175257.502500", "175258.992500", "175300.482500", "175301.972500", "175303.462500", "175304.952500", "175306.442500", "175307.932500", "175309.422500", "175310.912500", "175312.402500", "175313.892500", "175315.382500", "175316.872500", "175318.362500", "175319.852500", "175321.342500", "175322.832500", "175324.322500", "175325.812500", "175327.302500", "175328.792500", "175330.282500", "175331.772500", "175333.262500", "175334.752500", "175336.242500", "175337.732500", "175339.222500", "175340.712500", "175342.202500", "175343.692500", "175345.182500", "175346.672500", "175348.162500", "175349.652500", "175351.142500", "175352.632500", "175354.122500", "175355.612500", "175357.102500", "175358.592500", "175400.082500", "175401.572500", "175403.062500", "175404.552500", "175406.042500", "175407.532500", "175409.022500", "175410.512500", "175412.002500", "175413.492500", "175414.982500", "175416.472500", "175417.962500", "175419.452500", "175420.942500", "175422.432500", "175423.922500", "175425.412500", "175426.902500", "175428.392500", "175429.882500", "175431.372500", "175432.862500", "175434.352500", "175435.842500", "175437.332500", "175438.822500", "175440.312500", "175441.802500", "175443.292500", "175444.782500", "175446.272500", "175447.762500", "175449.252500", "175450.742500", "175452.232500", "175453.722500", "175455.212500", "175456.702500", "175458.192500", "175459.682500", "175501.172500", "175502.662500", "175504.152500", "175505.642500", "175507.132500", "175508.622500", "175510.112500", "175511.602500", "175513.092500", "175514.582500", "175516.072500", "175517.562500", "175519.052500", "175520.542500", "175522.032500", "175523.522500", "175525.012500", "175526.502500", "175527.992500", "175529.482500", "175530.972500", "175532.462500", "175533.952500", "175535.442500", "175536.932500", "175538.422500", "175539.912500", "175541.402500", "175542.892500", "175544.382500", "175545.872500", "175547.362500", "175548.852500", "175550.342500", "175551.832500", "175553.322500", "175554.812500", "175556.302500", "175557.792500", "175559.282500", "175600.772500", "175602.262500", "175603.752500", "175605.242500", "175606.732500", "175608.222500", "175609.712500", "175611.202500", "175612.692500", "175614.182500", "175615.672500", "175617.162500", "175618.652500", "175620.142500", "175621.632500", "175623.122500", "175624.612500", "175626.102500", "175627.592500", "175629.082500", "175630.572500", "175632.062500", "175633.552500", "175635.042500", "175636.532500", "175638.022500", "175639.512500", "175641.002500", "175642.492500", "175643.982500", "175645.472500", "175646.962500", "175648.452500", "175649.942500", "175651.432500", "175652.922500", "175654.412500", "175655.902500", "175657.392500", "175658.882500", "175700.372500", "175701.862500", "175703.352500", "175704.842500", "175706.332500", "175707.822500", "175709.312500", "175710.802500", "175712.292500", "175713.782500", "175715.272500", "175716.762500", "175718.252500", "175719.742500", "175721.232500", "175722.722500", "175724.212500", "175725.702500", "175727.192500", "175728.682500", "175730.172500", "175731.662500", "175733.152500", "175734.642500", "175736.132500", "175737.622500", "175739.112500", "175740.602500", "175742.092500", "175743.582500", "175745.072500", "175746.562500", "175748.052500", "175749.542500", "175751.032500", "175752.522500", "175754.012500", "175755.502500", "175756.992500", "175758.482500", "175759.972500", "175801.462500", "175802.952500", "175804.442500", "175805.932500", "175807.422500", "175808.912500", "175810.402500", "175811.892500", "175813.382500", "175814.872500", "175816.362500", "175817.852500", "175819.342500", "175820.832500", "175822.322500", "175823.812500", "175825.302500", "175826.792500", "175828.282500", "175829.772500", "175831.262500", "175832.752500", "175834.242500", "175835.732500", "175837.222500", "175838.712500", "175840.202500", "175841.692500", "175843.182500", "175844.672500", "175846.162500", "175847.652500", "175849.142500", "175850.632500", "175852.122500", "175853.612500", "175855.102500", "175856.592500", "175858.082500", "175859.572500", "175901.062500", "175902.552500", "175904.042500", "175905.532500", "175907.022500", "175908.512500", "175910.002500", "175911.492500", "175912.982500", "175914.472500", "175915.962500", "175917.452500", "175918.942500", "175920.432500", "175921.922500", "175923.412500", "175924.902500", "175926.392500", "175927.882500", "175929.372500", "175930.862500", "175932.352500", "175933.842500", "175935.332500", "175936.822500", "175938.312500", "175939.802500", "175941.292500", "175942.782500", "175944.272500", "175945.762500", "175947.252500", "175948.742500", "175950.232500", "175951.722500", "175953.212500", "175954.702500", "175956.192500", "175957.682500", "175959.172500", "180000.662500", "180002.152500", "180003.642500", "180005.132500", "180006.622500", "180008.112500", "180009.602500", "180011.092500", "180012.582500", "180014.072500", "180015.562500", "180017.052500", "180018.542500", "180020.032500", "180021.522500", "180023.012500", "180024.502500", "180025.992500", "180027.482500", "180028.972500", "180030.462500", "180031.952500", "180033.442500", "180034.932500", "180036.422500", "180037.912500", "180039.402500", "180040.892500", "180042.382500", "180043.872500", "180045.362500", "180046.852500", "180048.342500", "180049.832500", "180051.322500", "180052.812500", "180054.302500", "180055.792500", "180057.282500", "180058.772500", "180100.262500", "180101.752500"],
      "ContentTime": ["175017.493000", "175017.496000", "175017.499000", "175017.502000", "175017.509000", "175017.512000", "175017.522000", "175017.525000", "175017.528000", "175017.531000", "175017.534000", "175017.537000", "175037.457000", "175037.460000", "175037.463000", "175037.466000", "175037.469000", "175037.471000", "175037.474000", "175037.477000", "175037.480000", "175037.483000", "175037.485000", "175037.488000", "175037.491000", "175037.494000", "175037.497000", "175037.500000", "175037.503000", "175037.505000", "175037.508000", "175037.511000", "175037.514000", "175057.457000", "175057.460000", "175057.463000", "175057.466000", "175057.468000", "175057.471000", "175057.474000", "175057.477000", "175057.480000", "175057.483000", "175057.486000", "175057.488000", "175057.491000", "175057.494000", "175057.497000", "175057.500000", "175057.503000", "175057.505000", "175057.508000", "175057.511000", "175117.458000", "175117.461000", "175117.464000", "175117.467000", "175117.469000", "175117.472000", "175117.475000", "175117.478000", "175117.481000", "175117.483000", "175117.486000", "175117.489000", "175117.492000", "175117.495000", "175117.498000", "175117.501000", "175117.504000", "175117.507000", "175117.509000", "175117.512000", "175137.457000", "175137.460000", "175137.463000", "175137.466000", "175137.469000", "175137.472000", "175137.475000", "175137.478000", "175137.481000", "175137.484000", "175137.486000", "175137.489000", "175137.492000", "175137.495000", "175137.498000", "175137.501000", "175137.511000", "175137.514000", "175137.517000", "175137.520000", "175137.522000", "175217.457000", "175217.460000", "175217.463000", "175217.466000", "175217.469000", "175217.471000", "175217.474000", "175217.477000", "175217.480000", "175217.483000", "175217.486000", "175217.488000", "175217.491000", "175217.494000", "175217.497000", "175217.500000", "175217.503000", "175217.506000", "175217.509000", "175217.511000", "175217.514000", "175217.517000", "175217.520000", "175217.523000", "175217.526000", "175217.529000", "175217.531000", "175217.534000", "175217.537000", "175217.540000", "175257.457000", "175257.460000", "175257.463000", "175257.466000", "175257.468000", "175257.471000", "175257.474000", "175257.477000", "175257.480000", "175257.492000", "175257.495000", "175257.498000", "175257.501000", "175257.503000", "175257.506000", "175257.509000", "175257.512000", "175257.515000", "175257.518000", "175257.521000", "175257.523000", "175257.526000", "175257.529000", "175257.532000", "175257.535000", "175257.538000", "175257.541000", "175337.458000", "175337.461000", "175337.464000", "175337.467000", "175337.470000", "175337.472000", "175337.475000", "175337.478000", "175337.481000", "175337.484000", "175337.487000", "175337.490000", "175337.492000", "175337.495000", "175337.498000", "175337.501000", "175337.504000", "175337.507000", "175337.510000", "175337.512000", "175337.515000", "175337.518000", "175337.521000", "175337.524000", "175337.527000", "175337.530000", "175337.532000", "175417.457000", "175417.460000", "175417.463000", "175417.466000", "175417.469000", "175417.472000", "175417.474000", "175417.477000", "175417.480000", "175417.483000", "175417.486000", "175417.489000", "175417.492000", "175417.494000", "175417.497000", "175417.500000", "175417.503000", "175417.506000", "175417.509000", "175417.512000", "175417.515000", "175417.517000", "175417.520000", "175417.523000", "175417.526000", "175417.529000", "175417.532000", "175457.457000", "175457.460000", "175457.463000", "175457.466000", "175457.469000", "175457.472000", "175457.474000", "175457.477000", "175457.480000", "175457.483000", "175457.486000", "175457.489000", "175457.492000", "175457.494000", "175457.497000", "175457.500000", "175457.503000", "175457.506000", "175457.509000", "175457.512000", "175457.515000", "175457.517000", "175457.520000", "175457.523000", "175457.526000", "175457.529000", "175457.532000", "175537.457000", "175537.460000", "175537.463000", "175537.466000", "175537.469000", "175537.472000", "175537.475000", "175537.478000", "175537.481000", "175537.484000", "175537.487000", "175537.489000", "175537.492000", "175537.495000", "175537.498000", "175537.501000", "175537.504000", "175537.506000", "175537.509000", "175537.512000", "175537.515000", "175537.518000", "175537.521000", "175537.524000", "175537.527000", "175537.529000", "175617.457000", "175617.460000", "175617.463000", "175617.466000", "175617.469000", "175617.472000", "175617.474000", "175617.477000", "175617.480000", "175617.483000", "175617.486000", "175617.489000", "175617.492000", "175617.494000", "175617.497000", "175617.500000", "175617.503000", "175617.506000", "175617.509000", "175617.512000", "175617.514000", "175617.517000", "175617.520000", "175617.523000", "175617.526000", "175617.529000", "175617.532000", "175657.457000", "175657.460000", "175657.463000", "175657.466000", "175657.469000", "175657.472000", "175657.475000", "175657.477000", "175657.480000", "175657.483000", "175657.486000", "175657.489000", "175657.492000", "175657.495000", "175657.497000", "175657.500000", "175657.503000", "175657.506000", "175657.509000", "175657.512000", "175657.514000", "175657.517000", "175657.520000", "175657.523000", "175657.526000", "175657.529000", "175657.532000", "175737.457000", "175737.460000", "175737.463000", "175737.466000", "175737.469000", "175737.472000", "175737.474000", "175737.477000", "175737.480000", "175737.483000", "175737.486000", "175737.489000", "175737.492000", "175737.494000", "175737.497000", "175737.500000", "175737.503000", "175737.506000", "175737.509000", "175737.511000", "175737.514000", "175737.517000", "175737.520000", "175737.533000", "175737.536000", "175737.539000", "175737.542000", "175817.458000", "175817.461000", "175817.464000", "175817.467000", "175817.470000", "175817.472000", "175817.475000", "175817.478000", "175817.481000", "175817.484000", "175817.487000", "175817.490000", "175817.493000", "175817.496000", "175817.499000", "175817.501000", "175817.504000", "175817.507000", "175817.510000", "175817.513000", "175817.516000", "175817.518000", "175817.521000", "175817.524000", "175817.527000", "175817.530000", "175817.533000", "175857.457000", "175857.460000", "175857.463000", "175857.466000", "175857.469000", "175857.472000", "175857.474000", "175857.477000", "175857.480000", "175857.483000", "175857.486000", "175857.489000", "175857.492000", "175857.495000", "175857.504000", "175857.507000", "175857.510000", "175857.513000", "175857.516000", "175857.519000", "175857.521000", "175857.524000", "175857.527000", "175857.530000", "175857.533000", "175857.536000", "175857.539000", "175917.457000", "175917.460000", "175917.463000", "175917.466000", "175917.469000", "175917.472000", "175917.474000", "175917.477000", "175917.480000", "175917.483000", "175917.486000", "175917.489000", "175917.492000", "175957.457000", "175957.460000", "175957.463000", "175957.466000", "175957.469000", "175957.471000", "175957.474000", "175957.477000", "175957.480000", "175957.483000", "175957.486000", "175957.489000", "175957.492000", "175957.494000", "175957.497000", "175957.500000", "175957.503000", "175957.506000", "175957.509000", "175957.512000", "175957.515000", "175957.517000", "175957.520000", "175957.523000", "175957.526000", "175957.529000", "175957.532000", "180037.458000", "180037.461000", "180037.464000", "180037.467000", "180037.470000", "180037.472000", "180037.475000", "180037.478000", "180037.481000", "180037.484000", "180037.487000", "180037.490000", "180037.493000", "180037.495000", "180037.498000", "180037.501000", "180037.504000", "180037.507000", "180037.509000", "180037.512000", "180037.515000", "180037.518000", "180037.521000", "180037.524000", "180037.527000", "180037.530000", "180037.532000", "180103.839000", "180103.842000", "180103.845000", "180103.848000", "180103.851000", "180103.854000", "180103.857000", "180103.859000", "180103.862000", "180103.865000", "180103.868000", "180103.871000", "180103.874000", "180103.877000", "180103.881000", "180103.884000", "180103.887000", "180103.890000"],
