{
  "AcquisitionMatrixPE": 104,
  "AcquisitionNumber": 1,
  "AcquisitionTime": "17:34:12.937500",
  "BandwidthPerPixelPhaseEncode": 17.17,
  "BaseResolution": 104,
  "BodyPartExamined": "BRAIN",
  "CoilCombinationMethod": "Sum of Squares",
  "ConsistencyInfo": "N4_VE11C_LATEST_20160120",
  "ConversionSoftware": "dcm2niix",
  "ConversionSoftwareVersion": "v1.0.20211006",
  "DerivedVendorReportedEchoSpacing": 0.000560011,
  "DeviceSerialNumber": "167006",
  "DwellTime": 2.1e-06,
  "EchoTime": 0.037,
  "EchoTrainLength": 104,
  "EffectiveEchoSpacing": 0.000560011,
  "FlipAngle": 52,
  "HeudiconvVersion": "0.5.3.post569+g418601f",
  "ImageComments": "Unaliased MB4/PE3/LB",
  "ImageOrientationPatientDICOM": [0.997752, 0.0517444, 0.0425768, -0.0264756, 0.888099, -0.458889],
  "ImageOrientationText": "Tra>Cor(-27.2)>Sag(3.5)",
  "ImageType": [
    "ORIGINAL",
    "PRIMARY",
    "M",
    "MB",
    "ND",
    "MOSAIC"
],
  "ImagingFrequency": 123.259,
  "InPlanePhaseEncodingDirectionDICOM": "COL",
  "InstitutionAddress": "Chemin Queen-Mary 4565,Montreal,District,CA,H3W 1W5",
  "InstitutionName": "IUGM",
  "InstitutionalDepartmentName": "Department",
  "MRAcquisitionType": "2D",
  "MagneticFieldStrength": 3,
  "Manufacturer": "Siemens",
  "ManufacturersModelName": "Prisma_fit",
  "MatrixCoilMode": "SENSE",
  "Modality": "MR",
  "MultibandAccelerationFactor": 4,
  "PartialFourier": 1,
  "PatientPosition": "HFS",
  "PercentPhaseFOV": 100,
  "PercentSampling": 100,
  "PhaseEncodingDirection": "j",
  "PhaseEncodingSteps": 104,
  "PhaseResolution": 1,
  "PixelBandwidth": 2290,
  "ProcedureStepDescription": "video^friends",
  "ProtocolName": "func_task-friends-s05e21a",
  "PulseSequenceDetails": "%CustomerSeq%\\cmrr_mbep2d_bold",
  "ReceiveCoilActiveElements": "HC1-7;NC1,2",
  "ReceiveCoilName": "HeadNeck_64",
  "ReconMatrixPE": 104,
  "RepetitionTime": 1.49,
  "SAR": 0.0502458,
  "ScanOptions": "FS",
  "ScanningSequence": "EP",
  "SequenceName": "epfid2d1_104",
  "SequenceVariant": "SK\\SS",
  "SeriesDescription": "func_task-friends-s05e21a",
  "SeriesNumber": 9,
  "ShimSetting": [649, -7163, -8845, 564, 97, -29, -147, 45],
  "SliceThickness": 2,
  "SliceTiming": [0, 0.7825, 0.0975, 0.8825, 0.195, 0.98, 0.2925, 1.0775, 0.3925, 1.175, 0.49, 1.2725, 0.5875, 1.3725, 0.685, 0, 0.7825, 0.0975, 0.8825, 0.195, 0.98, 0.2925, 1.0775, 0.3925, 1.175, 0.49, 1.2725, 0.5875, 1.3725, 0.685, 0, 0.7825, 0.0975, 0.8825, 0.195, 0.98, 0.2925, 1.0775, 0.3925, 1.175, 0.49, 1.2725, 0.5875, 1.3725, 0.685, 0, 0.7825, 0.0975, 0.8825, 0.195, 0.98, 0.2925, 1.0775, 0.3925, 1.175, 0.49, 1.2725, 0.5875, 1.3725, 0.685],
  "SoftwareVersions": "syngo MR E11",
  "SpacingBetweenSlices": 2,
  "StationName": "MRC35049",
  "TaskName": "s05e21a",
  "TotalReadoutTime": 0.0576811,
  "TxRefAmp": 272.973,
  "WipMemBlock": "a4bbf282-3911-4800-a865-8adf98f5babd||Sequence: R016 ve11c/master r/e634e98; Dec 19 2017 11:00:25 by eja",
  "dcmmeta_affine": [
    [-1.9955047369003296, -0.05295123532414436, 0.12311471998691559, 102.85861206054688],
    [-0.10348878800868988, 1.7761980295181274, -0.9134607911109924, -56.35749816894531],
    [0.08515362441539764, 0.9177781939506531, 1.774945616722107, -80.4247817993164],
    [0.0, 0.0, 0.0, 1.0]
],
  "dcmmeta_reorient_transform": [
    [0.0, -1.0, 0.0, 103.0],
    [1.0, 0.0, 0.0, 0.0],
    [0.0, 0.0, 1.0, 0.0],
    [0.0, 0.0, 0.0, 1.0]
],
  "dcmmeta_shape": [104, 104, 60, 444],
  "dcmmeta_slice_dim": 2,
  "dcmmeta_version": 0.6,
  "global": {
    "const": {
      "AcquisitionMatrix": [104, 0, 0, 104],
      "AngioFlag": "N",
      "BitsAllocated": 16,
      "BitsStored": 16,
      "BodyPartExamined": "BRAIN",
      "Columns": 832,
      "EchoNumbers": 1,
      "EchoTime": 37.0,
      "EchoTrainLength": 104,
      "FlipAngle": 52.0,
      "HighBit": 15,
      "ImageOrientationPatient": [0.99775234041351, 0.05174439250809, 0.04257681344733, -0.0264756169687, 0.88809900924259, -0.4588890840807],
      "ImagePositionPatient": [-804.49409343752, -810.7968934841, 317.18170372877],
      "ImageType": [
        "ORIGINAL",
        "PRIMARY",
        "M",
        "MB",
        "ND",
        "MOSAIC"
],
      "ImagedNucleus": "1H",
      "ImagingFrequency": 123.258849,
      "InPlanePhaseEncodingDirection": "COL",
      "MRAcquisitionType": "2D",
      "MagneticFieldStrength": 3.0,
      "Manufacturer": "SIEMENS",
      "ManufacturerModelName": "Prisma_fit",
      "Modality": "MR",
      "NumberOfAverages": 1.0,
      "NumberOfPhaseEncodingSteps": 104,
      "PercentPhaseFieldOfView": 100.0,
      "PercentSampling": 100.0,
      "PerformedProcedureStepStartTime": "170136.397000",
      "PhotometricInterpretation": "MONOCHROME2",
      "PixelBandwidth": 2290.0,
      "PixelRepresentation": 0,
      "PixelSpacing": [2.0, 2.0],
      "ProtocolName": "func_task-friends-s05e21a",
      "RepetitionTime": 1490.0,
      "Rows": 832,
      "SAR": 0.05024582611713,
      "SamplesPerPixel": 1,
      "ScanOptions": "FS",
      "ScanningSequence": "EP",
      "SequenceName": "epfid2d1_104",
      "SequenceVariant": [
        "SK",
        "SS"
],
      "SeriesDescription": "func_task-friends-s05e21a",
      "SeriesNumber": 9,
      "SeriesTime": "173541.525000",
      "SliceLocation": -39.302918913711,
      "SliceThickness": 2.0,
      "SmallestImagePixelValue": 0,
      "SoftwareVersions": "syngo MR E11",
      "SpacingBetweenSlices": 1.9999999563951,
      "SpecificCharacterSet": "ISO_IR 100",
      "StudyID": "1",
      "StudyTime": "170136.331000",
      "TransmitCoilName": "Body",
      "VariableFlipAngleFlag": "N",
      "WindowCenterWidthExplanation": "Algo1",
      "dBdt": 0.0},
    "slices": {}
  },
  "time": {
    "samples": {
      "AcquisitionNumber": [1, 2, 3, 4, 5, 6, 7, 8, 9, 10, 11, 12, 13, 14, 15, 16, 17, 18, 19, 20, 21, 22, 23, 24, 25, 26, 27, 28, 29, 30, 31, 32, 33, 34, 35, 36, 37, 38, 39, 40, 41, 42, 43, 44, 45, 46, 47, 48, 49, 50, 51, 52, 53, 54, 55, 56, 57, 58, 59, 60, 61, 62, 63, 64, 65, 66, 67, 68, 69, 70, 71, 72, 73, 74, 75, 76, 77, 78, 79, 80, 81, 82, 83, 84, 85, 86, 87, 88, 89, 90, 91, 92, 93, 94, 95, 96, 97, 98, 99, 100, 101, 102, 103, 104, 105, 106, 107, 108, 109, 110, 111, 112, 113, 114, 115, 116, 117, 118, 119, 120, 121, 122, 123, 124, 125, 126, 127, 128, 129, 130, 131, 132, 133, 134, 135, 136, 137, 138, 139, 140, 141, 142, 143, 144, 145, 146, 147, 148, 149, 150, 151, 152, 153, 154, 155, 156, 157, 158, 159, 160, 161, 162, 163, 164, 165, 166, 167, 168, 169, 170, 171, 172, 173, 174, 175, 176, 177, 178, 179, 180, 181, 182, 183, 184, 185, 186, 187, 188, 189, 190, 191, 192, 193, 194, 195, 196, 197, 198, 199, 200, 201, 202, 203, 204, 205, 206, 207, 208, 209, 210, 211, 212, 213, 214, 215, 216, 217, 218, 219, 220, 221, 222, 223, 224, 225, 226, 227, 228, 229, 230, 231, 232, 233, 234, 235, 236, 237, 238, 239, 240, 241, 242, 243, 244, 245, 246, 247, 248, 249, 250, 251, 252, 253, 254, 255, 256, 257, 258, 259, 260, 261, 262, 263, 264, 265, 266, 267, 268, 269, 270, 271, 272, 273, 274, 275, 276, 277, 278, 279, 280, 281, 282, 283, 284, 285, 286, 287, 288, 289, 290, 291, 292, 293, 294, 295, 296, 297, 298, 299, 300, 301, 302, 303, 304, 305, 306, 307, 308, 309, 310, 311, 312, 313, 314, 315, 316, 317, 318, 319, 320, 321, 322, 323, 324, 325, 326, 327, 328, 329, 330, 331, 332, 333, 334, 335, 336, 337, 338, 339, 340, 341, 342, 343, 344, 345, 346, 347, 348, 349, 350, 351, 352, 353, 354, 355, 356, 357, 358, 359, 360, 361, 362, 363, 364, 365, 366, 367, 368, 369, 370, 371, 372, 373, 374, 375, 376, 377, 378, 379, 380, 381, 382, 383, 384, 385, 386, 387, 388, 389, 390, 391, 392, 393, 394, 395, 396, 397, 398, 399, 400, 401, 402, 403, 404, 405, 406, 407, 408, 409, 410, 411, 412, 413, 414, 415, 416, 417, 418, 419, 420, 421, 422, 423, 424, 425, 426, 427, 428, 429, 430, 431, 432, 433, 434, 435, 436, 437, 438, 439, 440, 441, 442, 443, 444],
      "AcquisitionTime": ["173412.937500", "173414.427500", "173415.917500", "173417.407500", "173418.897500", "173420.387500", "173421.877500", "173423.367500", "173424.857500", "173426.347500", "173427.837500", "173429.327500", "173430.817500", "173432.307500", "173433.797500", "173435.287500", "173436.777500", "173438.267500", "173439.757500", "173441.247500", "173442.737500", "173444.227500", "173445.717500", "173447.207500", "173448.697500", "173450.187500", "173451.677500", "173453.167500", "173454.657500", "173456.147500", "173457.637500", "173459.127500", "173500.617500", "173502.107500", "173503.597500", "173505.087500", "173506.577500", "173508.067500", "173509.557500", "173511.047500", "173512.537500", "173514.027500", "173515.517500", "173517.007500", "173518.497500", "173519.987500", "173521.477500", "173522.967500", "173524.457500", "173525.947500", "173527.437500", "173528.927500", "173530.417500", "173531.907500", "173533.397500", "173534.887500", "173536.377500", "173537.867500", "173539.357500", "173540.847500", "173542.337500", "173543.827500", "173545.317500", "173546.807500", "173548.297500", "173549.787500", "173551.277500", "173552.767500", "173554.257500", "173555.747500", "173557.237500", "173558.727500", "173600.217500", "173601.707500", "173603.197500", "173604.687500", "173606.177500", "173607.667500", "173609.157500", "173610.647500", "173612.137500", "173613.627500", "173615.117500", "173616.607500", "173618.097500", "173619.587500", "173621.077500", "173622.567500", "173624.057500", "173625.547500", "173627.037500", "173628.527500", "173630.017500", "173631.507500", "173632.997500", "173634.487500", "173635.977500", "173637.467500", "173638.957500", "173640.447500", "173641.937500", "173643.427500", "173644.917500", "173646.407500", "173647.897500", "173649.387500", "173650.877500", "173652.367500", "173653.857500", "173655.347500", "173656.837500", "173658.327500", "173659.817500", "173701.307500", "173702.797500", "173704.287500", "173705.777500", "173707.267500", "173708.757500", "173710.247500", "173711.737500", "173713.227500", "173714.717500", "173716.207500", "173717.697500", "173719.187500", "173720.677500", "173722.167500", "173723.657500", "173725.147500", "173726.637500", "173728.127500", "173729.617500", "173731.107500", "173732.597500", "173734.087500", "173735.577500", "173737.067500", "173738.557500", "173740.047500", "173741.537500", "173743.027500", "173744.517500", "173746.007500", "173747.497500", "173748.987500", "173750.477500", "173751.967500", "173753.457500", "173754.947500", "173756.437500", "173757.927500", "173759.417500", "173800.907500", "173802.397500", "173803.887500", "173805.377500", "173806.867500", "173808.357500", "173809.847500", "173811.337500", "173812.827500", "173814.317500", "173815.807500", "173817.297500", "173818.787500", "173820.277500", "173821.767500", "173823.257500", "173824.747500", "173826.237500", "173827.727500", "173829.217500", "173830.707500", "173832.197500", "173833.687500", "173835.177500", "173836.667500", "173838.157500", "173839.647500", "173841.137500", "173842.627500", "173844.117500", "173845.607500", "173847.097500", "173848.587500", "173850.077500", "173851.567500", "173853.057500", "173854.547500", "173856.037500", "173857.527500", "173859.017500", "173900.507500", "173901.997500", "173903.487500", "173904.977500", "173906.467500", "173907.957500", "173909.447500", "173910.937500", "173912.427500", "173913.917500", "173915.407500", "173916.897500", "173918.387500", "173919.877500", "173921.367500", "173922.857500", "173924.347500", "173925.837500", "173927.327500", "173928.817500", "173930.307500", "173931.797500", "173933.287500", "173934.777500", "173936.267500", "173937.757500", "173939.247500", "173940.737500", "173942.227500", "173943.717500", "173945.207500", "173946.697500", "173948.187500", "173949.677500", "173951.167500", "173952.657500", "173954.147500", "173955.637500", "173957.127500", "173958.617500", "174000.107500", "174001.597500", "174003.087500", "174004.577500", "174006.067500", "174007.557500", "174009.047500", "174010.537500", "174012.027500", "174013.517500", "174015.007500", "174016.497500", "174017.987500", "174019.477500", "174020.967500", "174022.457500", "174023.947500", "174025.437500", "174026.927500", "174028.417500", "174029.907500", "174031.397500", "174032.887500", "174034.377500", "174035.867500", "174037.357500", "174038.847500", "174040.337500", "174041.827500", "174043.317500", "174044.807500", "174046.297500", "174047.787500", "174049.277500", "174050.767500", "174052.257500", "174053.747500", "174055.237500", "174056.727500", "174058.217500", "174059.707500", "174101.197500", "174102.687500", "174104.177500", "174105.667500", "174107.157500", "174108.647500", "174110.137500", "174111.627500", "174113.117500", "174114.607500", "174116.097500", "174117.587500", "174119.077500", "174120.567500", "174122.057500", "174123.547500", "174125.037500", "174126.527500", "174128.017500", "174129.507500", "174130.997500", "174132.487500", "174133.977500", "174135.467500", "174136.957500", "174138.447500", "174139.937500", "174141.427500", "174142.917500", "174144.407500", "174145.897500", "174147.387500", "174148.877500", "174150.367500", "174151.857500", "174153.347500", "174154.837500", "174156.327500", "174157.817500", "174159.307500", "174200.797500", "174202.287500", "174203.777500", "174205.267500", "174206.757500", "174208.247500", "174209.737500", "174211.227500", "174212.717500", "174214.207500", "174215.697500", "174217.187500", "174218.677500", "174220.167500", "174221.657500", "174223.147500", "174224.637500", "174226.127500", "174227.617500", "174229.107500", "174230.597500", "174232.087500", "174233.577500", "174235.067500", "174236.557500", "174238.047500", "174239.537500", "174241.027500", "174242.517500", "174244.007500", "174245.497500", "174246.987500", "174248.477500", "174249.967500", "174251.457500", "174252.947500", "174254.437500", "174255.927500", "174257.417500", "174258.907500", "174300.397500", "174301.887500", "174303.377500", "174304.867500", "174306.357500", "174307.847500", "174309.337500", "174310.827500", "174312.317500", "174313.807500", "174315.297500", "174316.787500", "174318.277500", "174319.767500", "174321.257500", "174322.747500", "174324.237500", "174325.727500", "174327.217500", "174328.707500", "174330.197500", "174331.687500", "174333.177500", "174334.667500", "174336.157500", "174337.647500", "174339.137500", "174340.627500", "174342.117500", "174343.607500", "174345.097500", "174346.587500", "174348.077500", "174349.567500", "174351.057500", "174352.547500", "174354.037500", "174355.527500", "174357.017500", "174358.507500", "174359.997500", "174401.487500", "174402.977500", "174404.467500", "174405.957500", "174407.447500", "174408.937500", "174410.427500", "174411.917500", "174413.407500", "174414.897500", "174416.387500", "174417.877500", "174419.367500", "174420.857500", "174422.347500", "174423.837500", "174425.327500", "174426.817500", "174428.307500", "174429.797500", "174431.287500", "174432.777500", "174434.267500", "174435.757500", "174437.247500", "174438.737500", "174440.227500", "174441.717500", "174443.207500", "174444.697500", "174446.187500", "174447.677500", "174449.167500", "174450.657500", "174452.147500", "174453.637500", "174455.127500", "174456.617500", "174458.107500", "174459.597500", "174501.087500", "174502.577500", "174504.067500", "174505.557500", "174507.047500", "174508.537500", "174510.027500", "174511.517500", "174513.007500"],
      "ContentTime": ["173541.528000", "173541.531000", "173541.534000", "173541.543000", "173541.546000", "173541.549000", "173541.551000", "173541.554000", "173541.557000", "173541.560000", "173541.563000", "173541.566000", "173541.569000", "173541.572000", "173541.574000", "173541.577000", "173541.580000", "173541.583000", "173541.586000", "173541.589000", "173541.592000", "173541.594000", "173541.597000", "173541.600000", "173541.603000", "173541.637000", "173541.640000", "173541.643000", "173541.646000", "173541.649000", "173541.652000", "173541.655000", "173541.658000", "173541.661000", "173601.498000", "173601.501000", "173601.503000", "173601.506000", "173601.509000", "173601.512000", "173601.521000", "173601.523000", "173601.526000", "173601.529000", "173601.532000", "173601.535000", "173601.538000", "173601.541000", "173601.543000", "173601.546000", "173601.549000", "173601.552000", "173601.555000", "173601.558000", "173621.498000", "173621.501000", "173621.504000", "173621.506000", "173621.509000", "173621.512000", "173621.515000", "173621.518000", "173621.521000", "173621.524000", "173621.526000", "173621.529000", "173621.532000", "173621.535000", "173621.538000", "173621.541000", "173621.544000", "173621.546000", "173621.549000", "173621.552000", "173641.498000", "173641.501000", "173641.504000", "173641.506000", "173641.509000", "173641.512000", "173641.515000", "173641.518000", "173641.521000", "173641.524000", "173641.527000", "173641.529000", "173641.532000", "173641.535000", "173641.538000", "173641.541000", "173641.544000", "173641.547000", "173641.550000", "173641.552000", "173721.499000", "173721.502000", "173721.505000", "173721.507000", "173721.510000", "173721.513000", "173721.516000", "173721.519000", "173721.522000", "173721.525000", "173721.527000", "173721.530000", "173721.533000", "173721.536000", "173721.539000", "173721.542000", "173721.545000", "173721.548000", "173721.550000", "173721.553000", "173721.556000", "173721.559000", "173721.562000", "173721.565000", "173721.568000", "173721.571000", "173721.574000", "173721.577000", "173721.580000", "173721.583000", "173721.585000", "173801.498000", "173801.501000", "173801.504000", "173801.507000", "173801.510000", "173801.512000", "173801.515000", "173801.518000", "173801.521000", "173801.524000", "173801.527000", "173801.530000", "173801.533000", "173801.535000", "173801.538000", "173801.541000", "173801.544000", "173801.547000", "173801.550000", "173801.552000", "173801.555000", "173801.558000", "173801.561000", "173801.564000", "173801.567000", "173801.570000", "173801.573000", "173841.498000", "173841.501000", "173841.504000", "173841.507000", "173841.509000", "173841.512000", "173841.515000", "173841.518000", "173841.521000", "173841.524000", "173841.527000", "173841.529000", "173841.532000", "173841.535000", "173841.538000", "173841.541000", "173841.544000", "173841.546000", "173841.549000", "173841.552000", "173841.555000", "173841.558000", "173841.561000", "173841.564000", "173841.574000", "173841.577000", "173841.580000", "173921.499000", "173921.502000", "173921.505000", "173921.508000", "173921.511000", "173921.513000", "173921.516000", "173921.519000", "173921.522000", "173921.525000", "173921.528000", "173921.531000", "173921.534000", "173921.536000", "173921.539000", "173921.542000", "173921.545000", "173921.548000", "173921.551000", "173921.554000", "173921.556000", "173921.560000", "173921.562000", "173921.565000", "173921.568000", "173921.571000", "173921.574000", "174001.499000", "174001.502000", "174001.505000", "174001.508000", "174001.511000", "174001.513000", "174001.524000", "174001.537000", "174001.540000", "174001.542000", "174001.545000", "174001.548000", "174001.551000", "174001.554000", "174001.557000", "174001.560000", "174001.563000", "174001.565000", "174001.568000", "174001.571000", "174001.574000", "174001.577000", "174001.580000", "174001.583000", "174001.586000", "174001.588000", "174001.591000", "174041.498000", "174041.501000", "174041.504000", "174041.507000", "174041.510000", "174041.520000", "174041.522000", "174041.525000", "174041.528000", "174041.531000", "174041.534000", "174041.537000", "174041.540000", "174041.542000", "174041.545000", "174041.548000", "174041.551000", "174041.554000", "174041.557000", "174041.560000", "174041.563000", "174041.566000", "174041.568000", "174041.571000", "174041.574000", "174041.583000", "174041.586000", "174121.498000", "174121.501000", "174121.504000", "174121.506000", "174121.509000", "174121.512000", "174121.515000", "174121.518000", "174121.521000", "174121.524000", "174121.526000", "174121.529000", "174121.532000", "174121.535000", "174121.538000", "174121.541000", "174121.544000", "174121.547000", "174121.549000", "174121.552000", "174121.555000", "174121.558000", "174121.561000", "174121.564000", "174121.567000", "174121.570000", "174121.573000", "174201.499000", "174201.502000", "174201.505000", "174201.508000", "174201.510000", "174201.513000", "174201.516000", "174201.519000", "174201.522000", "174201.525000", "174201.528000", "174201.530000", "174201.533000", "174201.536000", "174201.539000", "174201.542000", "174201.545000", "174201.548000", "174201.551000", "174201.554000", "174201.557000", "174201.560000", "174201.563000", "174201.566000", "174201.569000", "174201.572000", "174241.498000", "174241.501000", "174241.504000", "174241.507000", "174241.509000", "174241.512000", "174241.515000", "174241.518000", "174241.521000", "174241.524000", "174241.527000", "174241.530000", "174241.532000", "174241.535000", "174241.538000", "174241.541000", "174241.544000", "174241.547000", "174241.550000", "174241.552000", "174241.555000", "174241.558000", "174241.561000", "174241.564000", "174241.567000", "174241.570000", "174241.573000", "174321.498000", "174321.501000", "174321.504000", "174321.507000", "174321.509000", "174321.512000", "174321.515000", "174321.518000", "174321.521000", "174321.524000", "174321.527000", "174321.530000", "174321.532000", "174321.535000", "174321.538000", "174321.541000", "174321.544000", "174321.547000", "174321.549000", "174321.552000", "174321.555000", "174321.558000", "174321.561000", "174321.564000", "174321.567000", "174321.569000", "174321.572000", "174401.499000", "174401.502000", "174401.505000", "174401.508000", "174401.510000", "174401.513000", "174401.516000", "174401.519000", "174401.522000", "174401.525000", "174401.528000", "174401.531000", "174401.534000", "174401.537000", "174401.539000", "174401.542000", "174401.545000", "174401.548000", "174401.551000", "174401.554000", "174401.557000", "174401.560000", "174401.562000", "174401.565000", "174401.568000", "174401.571000", "174401.574000", "174441.499000", "174441.502000", "174441.505000", "174441.508000", "174441.511000", "174441.514000", "174441.516000", "174441.519000", "174441.537000", "174441.540000", "174441.543000", "174441.546000", "174441.549000", "174441.552000", "174441.555000", "174441.557000", "174441.560000", "174441.563000", "174441.566000", "174441.569000", "174441.572000", "174441.575000", "174441.578000", "174441.580000", "174441.583000", "174441.586000", "174441.589000", "174515.450000", "174515.453000", "174515.456000", "174515.459000", "174515.461000", "174515.465000", "174515.468000", "174515.471000", "174515.474000", "174515.477000", "174515.479000", "174515.482000", "174515.485000", "174515.488000", "174515.491000", "174515.494000", "174515.497000", "174515.500000", "174515.502000", "174515.505000", "174515.508000", "174515.511000", "174515.514000"],
