{
  "AcquisitionMatrixPE": 104,
  "AcquisitionNumber": 1,
  "AcquisitionTime": "15:40:26.422500",
  "BandwidthPerPixelPhaseEncode": 17.17,
  "BaseResolution": 104,
  "BodyPartExamined": "BRAIN",
  "CoilString": "HC1-7;NC1_2",
  "ConsistencyInfo": "N4_VE11C_LATEST_20160120",
  "ConversionSoftware": "dcm2niix",
  "ConversionSoftwareVersion": "v1.0.20190720  (JP2:OpenJPEG) GCC7.3.0",
  "DerivedVendorReportedEchoSpacing": 0.000560011,
  "DeviceSerialNumber": "167006",
  "DwellTime": 2.1e-06,
  "EchoTime": 0.037,
  "EchoTrainLength": 104,
  "EffectiveEchoSpacing": 0.000560011,
  "FlipAngle": 52,
  "ImageComments": "Unaliased_MB4_PE3_LB",
  "ImageOrientationPatientDICOM": [0.998804, -0.0467168, -0.0144354, 0.0374973, 0.921292, -0.38706],
  "ImageType": [
    "ORIGINAL",
    "PRIMARY",
    "M",
    "MB",
    "ND",
    "MOSAIC"
],
  "ImagingFrequency": 123.259,
  "InPlanePhaseEncodingDirectionDICOM": "COL",
  "InstitutionAddress": "Chemin_Queen-Mary_4565_Montreal_District_CA_H3W_1W5",
  "InstitutionName": "IUGM",
  "InstitutionalDepartmentName": "Department",
  "MRAcquisitionType": "2D",
  "MagneticFieldStrength": 3,
  "Manufacturer": "Siemens",
  "ManufacturersModelName": "Prisma_fit",
  "Modality": "MR",
  "MultibandAccelerationFactor": 4,
  "PartialFourier": 1,
  "PatientPosition": "HFS",
  "PercentPhaseFOV": 100,
  "PhaseEncodingDirection": "j",
  "PhaseEncodingSteps": 104,
  "PhaseResolution": 1,
  "PixelBandwidth": 2290,
  "ProcedureStepDescription": "video_friends",
  "ProtocolName": "func_task-s02e12b",
  "PulseSequenceDetails": "%CustomerSeq%_cmrr_mbep2d_bold",
  "ReceiveCoilActiveElements": "HC1-7;NC1,2",
  "ReceiveCoilName": "HeadNeck_64",
  "ReconMatrixPE": 104,
  "RepetitionTime": 1.49,
  "SAR": 0.0272263,
  "ScanOptions": "FS",
  "ScanningSequence": "EP",
  "SequenceName": "epfid2d1_104",
  "SequenceVariant": "SK_SS",
  "SeriesDescription": "func_task-s02e12b",
  "SeriesNumber": 14,
  "ShimSetting": [632, -7243, -8892, 645, 12, -255, -106, -22],
  "SliceThickness": 2,
  "SliceTiming": [0, 0.785, 0.1, 0.8825, 0.1975, 0.98, 0.295, 1.08, 0.3925, 1.1775, 0.49, 1.275, 0.59, 1.3725, 0.6875, 0, 0.785, 0.1, 0.8825, 0.1975, 0.98, 0.295, 1.08, 0.3925, 1.1775, 0.49, 1.275, 0.59, 1.3725, 0.6875, 0, 0.785, 0.1, 0.8825, 0.1975, 0.98, 0.295, 1.08, 0.3925, 1.1775, 0.49, 1.275, 0.59, 1.3725, 0.6875, 0, 0.785, 0.1, 0.8825, 0.1975, 0.98, 0.295, 1.08, 0.3925, 1.1775, 0.49, 1.275, 0.59, 1.3725, 0.6875],
  "SoftwareVersions": "syngo_MR_E11",
  "SpacingBetweenSlices": 2,
  "StationName": "MRC35049",
  "TaskName": "friends",
  "TotalReadoutTime": 0.0576811,
  "TxRefAmp": 218.404,
  "WipMemBlock": "42841587-6686-404b-9ab2-c2096f604af9||Sequence: R016 ve11c/master r/e634e98; Dec 19 2017 11:00:25 by eja",
  "dcmmeta_affine": [
    [-1.997607707977295, 0.0749945417046547, -0.06276276707649231, 99.49044799804688],
    [0.09343355149030685, 1.842583179473877, -0.7721123099327087, -74.59468841552734],
    [-0.028870707377791405, 0.7741208076477051, 1.84388267993927, -86.9605941772461],
    [0.0, 0.0, 0.0, 1.0]
],
  "dcmmeta_reorient_transform": [
    [0.0, -1.0, 0.0, 103.0],
    [1.0, 0.0, 0.0, 0.0],
    [0.0, 0.0, 1.0, 0.0],
    [0.0, 0.0, 0.0, 1.0]
],
  "dcmmeta_shape": [104, 104, 60, 488],
  "dcmmeta_slice_dim": 2,
  "dcmmeta_version": 0.6,
  "global": {
    "const": {
      "AcquisitionMatrix": [104, 0, 0, 104],
      "AngioFlag": "N",
      "BitsAllocated": 16,
      "BitsStored": 16,
      "BodyPartExamined": "BRAIN",
      "Columns": 832,
      "EchoNumbers": 1,
      "EchoTime": 37.0,
      "EchoTrainLength": 104,
      "FlipAngle": 52.0,
      "HighBit": 15,
      "ImageOrientationPatient": [0.99880386635578, -0.0467167754546, -0.0144353539569, 0.03749727033992, 0.92129159338777, -0.3870604018368],
      "ImagePositionPatient": [-861.64211597895, -751.88184994555, 285.0627602938],
      "ImageType": [
        "ORIGINAL",
        "PRIMARY",
        "M",
        "MB",
        "ND",
        "MOSAIC"
],
      "ImagedNucleus": "1H",
      "ImagingFrequency": 123.25916,
      "InPlanePhaseEncodingDirection": "COL",
      "MRAcquisitionType": "2D",
      "MagneticFieldStrength": 3.0,
      "Manufacturer": "SIEMENS",
      "ManufacturerModelName": "Prisma_fit",
      "Modality": "MR",
      "NumberOfAverages": 1.0,
      "NumberOfPhaseEncodingSteps": 104,
      "PercentPhaseFieldOfView": 100.0,
      "PercentSampling": 100.0,
      "PerformedProcedureStepStartTime": "144540.082000",
      "PhotometricInterpretation": "MONOCHROME2",
      "PixelBandwidth": 2290.0,
      "PixelRepresentation": 0,
      "PixelSpacing": [2.0, 2.0],
      "ProtocolName": "func_task-s02e12b",
      "RepetitionTime": 1490.0,
      "Rows": 832,
      "SAR": 0.02722627132702,
      "SamplesPerPixel": 1,
      "ScanOptions": "FS",
      "ScanningSequence": "EP",
      "SequenceName": "epfid2d1_104",
      "SequenceVariant": [
        "SK",
        "SS"
],
      "SeriesDescription": "func_task-s02e12b",
      "SeriesNumber": 14,
      "SeriesTime": "154139.316000",
      "SliceLocation": -54.496978494191,
      "SliceThickness": 2.0,
      "SmallestImagePixelValue": 0,
      "SoftwareVersions": "syngo MR E11",
      "SpacingBetweenSlices": 2.0000000230596,
      "SpecificCharacterSet": "ISO_IR 100",
      "StudyID": "1",
      "StudyTime": "144540.017000",
      "TransmitCoilName": "Body",
      "VariableFlipAngleFlag": "N",
      "WindowCenterWidthExplanation": "Algo1",
      "dBdt": 0.0},
    "slices": {}
  },
  "time": {
    "samples": {
      "AcquisitionNumber": [1, 2, 3, 4, 5, 6, 7, 8, 9, 10, 11, 12, 13, 14, 15, 16, 17, 18, 19, 20, 21, 22, 23, 24, 25, 26, 27, 28, 29, 30, 31, 32, 33, 34, 35, 36, 37, 38, 39, 40, 41, 42, 43, 44, 45, 46, 47, 48, 49, 50, 51, 52, 53, 54, 55, 56, 57, 58, 59, 60, 61, 62, 63, 64, 65, 66, 67, 68, 69, 70, 71, 72, 73, 74, 75, 76, 77, 78, 79, 80, 81, 82, 83, 84, 85, 86, 87, 88, 89, 90, 91, 92, 93, 94, 95, 96, 97, 98, 99, 100, 101, 102, 103, 104, 105, 106, 107, 108, 109, 110, 111, 112, 113, 114, 115, 116, 117, 118, 119, 120, 121, 122, 123, 124, 125, 126, 127, 128, 129, 130, 131, 132, 133, 134, 135, 136, 137, 138, 139, 140, 141, 142, 143, 144, 145, 146, 147, 148, 149, 150, 151, 152, 153, 154, 155, 156, 157, 158, 159, 160, 161, 162, 163, 164, 165, 166, 167, 168, 169, 170, 171, 172, 173, 174, 175, 176, 177, 178, 179, 180, 181, 182, 183, 184, 185, 186, 187, 188, 189, 190, 191, 192, 193, 194, 195, 196, 197, 198, 199, 200, 201, 202, 203, 204, 205, 206, 207, 208, 209, 210, 211, 212, 213, 214, 215, 216, 217, 218, 219, 220, 221, 222, 223, 224, 225, 226, 227, 228, 229, 230, 231, 232, 233, 234, 235, 236, 237, 238, 239, 240, 241, 242, 243, 244, 245, 246, 247, 248, 249, 250, 251, 252, 253, 254, 255, 256, 257, 258, 259, 260, 261, 262, 263, 264, 265, 266, 267, 268, 269, 270, 271, 272, 273, 274, 275, 276, 277, 278, 279, 280, 281, 282, 283, 284, 285, 286, 287, 288, 289, 290, 291, 292, 293, 294, 295, 296, 297, 298, 299, 300, 301, 302, 303, 304, 305, 306, 307, 308, 309, 310, 311, 312, 313, 314, 315, 316, 317, 318, 319, 320, 321, 322, 323, 324, 325, 326, 327, 328, 329, 330, 331, 332, 333, 334, 335, 336, 337, 338, 339, 340, 341, 342, 343, 344, 345, 346, 347, 348, 349, 350, 351, 352, 353, 354, 355, 356, 357, 358, 359, 360, 361, 362, 363, 364, 365, 366, 367, 368, 369, 370, 371, 372, 373, 374, 375, 376, 377, 378, 379, 380, 381, 382, 383, 384, 385, 386, 387, 388, 389, 390, 391, 392, 393, 394, 395, 396, 397, 398, 399, 400, 401, 402, 403, 404, 405, 406, 407, 408, 409, 410, 411, 412, 413, 414, 415, 416, 417, 418, 419, 420, 421, 422, 423, 424, 425, 426, 427, 428, 429, 430, 431, 432, 433, 434, 435, 436, 437, 438, 439, 440, 441, 442, 443, 444, 445, 446, 447, 448, 449, 450, 451, 452, 453, 454, 455, 456, 457, 458, 459, 460, 461, 462, 463, 464, 465, 466, 467, 468, 469, 470, 471, 472, 473, 474, 475, 476, 477, 478, 479, 480, 481, 482, 483, 484, 485, 486, 487, 488],
      "AcquisitionTime": ["154026.422500", "154027.912500", "154029.402500", "154030.892500", "154032.382500", "154033.872500", "154035.362500", "154036.852500", "154038.342500", "154039.832500", "154041.322500", "154042.812500", "154044.302500", "154045.792500", "154047.282500", "154048.772500", "154050.262500", "154051.752500", "154053.242500", "154054.732500", "154056.222500", "154057.712500", "154059.202500", "154100.692500", "154102.182500", "154103.672500", "154105.162500", "154106.652500", "154108.142500", "154109.632500", "154111.122500", "154112.612500", "154114.102500", "154115.592500", "154117.082500", "154118.572500", "154120.062500", "154121.552500", "154123.042500", "154124.532500", "154126.022500", "154127.512500", "154129.002500", "154130.492500", "154131.982500", "154133.472500", "154134.962500", "154136.452500", "154137.942500", "154139.432500", "154140.922500", "154142.412500", "154143.902500", "154145.392500", "154146.882500", "154148.372500", "154149.862500", "154151.352500", "154152.842500", "154154.332500", "154155.822500", "154157.312500", "154158.802500", "154200.292500", "154201.782500", "154203.272500", "154204.762500", "154206.252500", "154207.742500", "154209.232500", "154210.722500", "154212.212500", "154213.702500", "154215.192500", "154216.682500", "154218.172500", "154219.662500", "154221.152500", "154222.642500", "154224.132500", "154225.622500", "154227.112500", "154228.602500", "154230.092500", "154231.582500", "154233.072500", "154234.562500", "154236.052500", "154237.542500", "154239.032500", "154240.522500", "154242.012500", "154243.502500", "154244.992500", "154246.482500", "154247.972500", "154249.462500", "154250.952500", "154252.442500", "154253.932500", "154255.422500", "154256.912500", "154258.402500", "154259.892500", "154301.382500", "154302.872500", "154304.362500", "154305.852500", "154307.342500", "154308.832500", "154310.322500", "154311.812500", "154313.302500", "154314.792500", "154316.282500", "154317.772500", "154319.262500", "154320.752500", "154322.242500", "154323.732500", "154325.222500", "154326.712500", "154328.202500", "154329.692500", "154331.182500", "154332.672500", "154334.162500", "154335.652500", "154337.142500", "154338.632500", "154340.122500", "154341.612500", "154343.102500", "154344.592500", "154346.082500", "154347.572500", "154349.062500", "154350.552500", "154352.042500", "154353.532500", "154355.022500", "154356.512500", "154358.002500", "154359.492500", "154400.982500", "154402.472500", "154403.962500", "154405.452500", "154406.942500", "154408.432500", "154409.922500", "154411.412500", "154412.902500", "154414.392500", "154415.882500", "154417.372500", "154418.862500", "154420.352500", "154421.842500", "154423.332500", "154424.822500", "154426.312500", "154427.802500", "154429.292500", "154430.782500", "154432.272500", "154433.762500", "154435.252500", "154436.742500", "154438.232500", "154439.722500", "154441.212500", "154442.702500", "154444.192500", "154445.682500", "154447.172500", "154448.662500", "154450.152500", "154451.642500", "154453.132500", "154454.622500", "154456.112500", "154457.602500", "154459.092500", "154500.582500", "154502.072500", "154503.562500", "154505.052500", "154506.542500", "154508.032500", "154509.522500", "154511.012500", "154512.502500", "154513.992500", "154515.482500", "154516.972500", "154518.462500", "154519.952500", "154521.442500", "154522.932500", "154524.422500", "154525.912500", "154527.402500", "154528.892500", "154530.382500", "154531.872500", "154533.362500", "154534.852500", "154536.342500", "154537.832500", "154539.322500", "154540.812500", "154542.302500", "154543.792500", "154545.282500", "154546.772500", "154548.262500", "154549.752500", "154551.242500", "154552.732500", "154554.222500", "154555.712500", "154557.202500", "154558.692500", "154600.182500", "154601.672500", "154603.162500", "154604.652500", "154606.142500", "154607.632500", "154609.122500", "154610.612500", "154612.102500", "154613.592500", "154615.082500", "154616.572500", "154618.062500", "154619.552500", "154621.042500", "154622.532500", "154624.022500", "154625.512500", "154627.002500", "154628.492500", "154629.982500", "154631.472500", "154632.962500", "154634.452500", "154635.942500", "154637.432500", "154638.922500", "154640.412500", "154641.902500", "154643.392500", "154644.882500", "154646.372500", "154647.862500", "154649.352500", "154650.842500", "154652.332500", "154653.822500", "154655.312500", "154656.802500", "154658.292500", "154659.782500", "154701.272500", "154702.762500", "154704.252500", "154705.742500", "154707.232500", "154708.722500", "154710.212500", "154711.702500", "154713.192500", "154714.682500", "154716.172500", "154717.662500", "154719.152500", "154720.642500", "154722.132500", "154723.622500", "154725.112500", "154726.602500", "154728.092500", "154729.582500", "154731.072500", "154732.562500", "154734.052500", "154735.542500", "154737.032500", "154738.522500", "154740.012500", "154741.502500", "154742.992500", "154744.482500", "154745.972500", "154747.462500", "154748.952500", "154750.442500", "154751.932500", "154753.422500", "154754.912500", "154756.402500", "154757.892500", "154759.382500", "154800.872500", "154802.362500", "154803.852500", "154805.342500", "154806.832500", "154808.322500", "154809.812500", "154811.302500", "154812.792500", "154814.282500", "154815.772500", "154817.262500", "154818.752500", "154820.242500", "154821.732500", "154823.222500", "154824.712500", "154826.202500", "154827.692500", "154829.182500", "154830.672500", "154832.162500", "154833.652500", "154835.142500", "154836.632500", "154838.122500", "154839.612500", "154841.102500", "154842.592500", "154844.082500", "154845.572500", "154847.062500", "154848.552500", "154850.042500", "154851.532500", "154853.022500", "154854.512500", "154856.002500", "154857.492500", "154858.982500", "154900.472500", "154901.962500", "154903.452500", "154904.942500", "154906.432500", "154907.922500", "154909.412500", "154910.902500", "154912.392500", "154913.882500", "154915.372500", "154916.862500", "154918.352500", "154919.842500", "154921.332500", "154922.822500", "154924.312500", "154925.802500", "154927.292500", "154928.782500", "154930.272500", "154931.762500", "154933.252500", "154934.742500", "154936.232500", "154937.722500", "154939.212500", "154940.702500", "154942.192500", "154943.682500", "154945.172500", "154946.662500", "154948.152500", "154949.642500", "154951.132500", "154952.622500", "154954.112500", "154955.602500", "154957.092500", "154958.582500", "155000.072500", "155001.562500", "155003.052500", "155004.542500", "155006.032500", "155007.522500", "155009.012500", "155010.502500", "155011.992500", "155013.482500", "155014.972500", "155016.462500", "155017.952500", "155019.442500", "155020.932500", "155022.422500", "155023.912500", "155025.402500", "155026.892500", "155028.382500", "155029.872500", "155031.362500", "155032.852500", "155034.342500", "155035.832500", "155037.322500", "155038.812500", "155040.302500", "155041.792500", "155043.282500", "155044.772500", "155046.262500", "155047.752500", "155049.242500", "155050.732500", "155052.222500", "155053.712500", "155055.202500", "155056.692500", "155058.182500", "155059.672500", "155101.162500", "155102.652500", "155104.142500", "155105.632500", "155107.122500", "155108.612500", "155110.102500", "155111.592500", "155113.082500", "155114.572500", "155116.062500", "155117.552500", "155119.042500", "155120.532500", "155122.022500", "155123.512500", "155125.002500", "155126.492500", "155127.982500", "155129.472500", "155130.962500", "155132.452500", "155133.942500", "155135.432500", "155136.922500", "155138.412500", "155139.902500", "155141.392500", "155142.882500", "155144.372500", "155145.862500", "155147.352500", "155148.842500", "155150.332500", "155151.822500", "155153.312500", "155154.802500", "155156.292500", "155157.782500", "155159.272500", "155200.762500", "155202.252500", "155203.742500", "155205.232500", "155206.722500", "155208.212500", "155209.702500", "155211.192500", "155212.682500", "155214.172500", "155215.662500", "155217.152500", "155218.642500", "155220.132500", "155221.622500", "155223.112500", "155224.602500", "155226.092500", "155227.582500", "155229.072500", "155230.562500", "155232.052500"],
      "ContentTime": ["154139.319000", "154139.323000", "154139.325000", "154139.328000", "154139.331000", "154139.334000", "154139.337000", "154139.339000", "154139.342000", "154139.345000", "154139.348000", "154139.351000", "154139.354000", "154139.356000", "154139.359000", "154139.362000", "154139.365000", "154139.368000", "154139.377000", "154159.292000", "154159.295000", "154159.304000", "154159.307000", "154159.310000", "154159.313000", "154159.316000", "154159.327000", "154159.329000", "154159.332000", "154159.335000", "154159.338000", "154159.341000", "154159.348000", "154159.351000", "154159.354000", "154159.357000", "154159.360000", "154159.363000", "154159.365000", "154219.292000", "154219.295000", "154219.298000", "154219.300000", "154219.303000", "154219.306000", "154219.309000", "154219.312000", "154219.314000", "154219.322000", "154219.325000", "154219.327000", "154219.330000", "154219.333000", "154219.336000", "154219.339000", "154219.341000", "154219.344000", "154219.347000", "154219.350000", "154239.292000", "154239.295000", "154239.298000", "154239.300000", "154239.303000", "154239.306000", "154239.309000", "154239.312000", "154239.315000", "154239.318000", "154239.320000", "154239.323000", "154239.326000", "154239.329000", "154239.332000", "154239.334000", "154239.337000", "154239.348000", "154239.351000", "154239.354000", "154259.291000", "154259.294000", "154259.297000", "154259.300000", "154259.302000", "154259.305000", "154259.308000", "154259.311000", "154259.314000", "154259.316000", "154259.319000", "154259.322000", "154259.325000", "154259.327000", "154259.330000", "154259.333000", "154259.336000", "154259.339000", "154259.341000", "154259.344000", "154259.347000", "154339.291000", "154339.294000", "154339.297000", "154339.300000", "154339.302000", "154339.305000", "154339.308000", "154339.312000", "154339.314000", "154339.317000", "154339.320000", "154339.323000", "154339.326000", "154339.328000", "154339.331000", "154339.334000", "154339.337000", "154339.340000", "154339.350000", "154339.353000", "154339.356000", "154339.358000", "154339.361000", "154339.364000", "154339.367000", "154339.370000", "154339.373000", "154339.377000", "154419.292000", "154419.295000", "154419.298000", "154419.301000", "154419.303000", "154419.306000", "154419.309000", "154419.312000", "154419.315000", "154419.318000", "154419.321000", "154419.323000", "154419.326000", "154419.329000", "154419.332000", "154419.335000", "154419.338000", "154419.340000", "154419.343000", "154419.346000", "154419.349000", "154419.352000", "154419.355000", "154419.358000", "154419.360000", "154419.363000", "154419.366000", "154459.292000", "154459.295000", "154459.298000", "154459.308000", "154459.311000", "154459.314000", "154459.316000", "154459.319000", "154459.322000", "154459.325000", "154459.328000", "154459.331000", "154459.334000", "154459.336000", "154459.339000", "154459.342000", "154459.345000", "154459.348000", "154459.351000", "154459.353000", "154459.356000", "154459.359000", "154459.362000", "154459.365000", "154459.368000", "154459.370000", "154459.373000", "154539.291000", "154539.294000", "154539.297000", "154539.299000", "154539.302000", "154539.305000", "154539.308000", "154539.311000", "154539.314000", "154539.316000", "154539.319000", "154539.322000", "154539.325000", "154539.328000", "154539.330000", "154539.333000", "154539.336000", "154539.339000", "154539.342000", "154539.345000", "154539.347000", "154539.350000", "154539.353000", "154539.356000", "154539.359000", "154539.361000", "154539.364000", "154619.291000", "154619.294000", "154619.297000", "154619.300000", "154619.302000", "154619.305000", "154619.308000", "154619.311000", "154619.314000", "154619.316000", "154619.319000", "154619.322000", "154619.325000", "154619.328000", "154619.331000", "154619.333000", "154619.336000", "154619.339000", "154619.342000", "154619.345000", "154619.348000", "154619.350000", "154619.353000", "154619.356000", "154619.359000", "154619.361000", "154619.364000", "154659.292000", "154659.295000", "154659.298000", "154659.301000", "154659.304000", "154659.311000", "154659.314000", "154659.317000", "154659.320000", "154659.323000", "154659.325000", "154659.328000", "154659.331000", "154659.334000", "154659.337000", "154659.340000", "154659.343000", "154659.345000", "154659.348000", "154659.351000", "154659.354000", "154659.357000", "154659.360000", "154659.363000", "154659.366000", "154659.368000", "154659.376000", "154739.291000", "154739.294000", "154739.297000", "154739.300000", "154739.303000", "154739.306000", "154739.308000", "154739.311000", "154739.314000", "154739.317000", "154739.320000", "154739.323000", "154739.326000", "154739.329000", "154739.331000", "154739.334000", "154739.337000", "154739.340000", "154739.343000", "154739.346000", "154739.349000", "154739.352000", "154739.354000", "154739.357000", "154739.360000", "154739.363000", "154739.366000", "154819.291000", "154819.294000", "154819.297000", "154819.300000", "154819.303000", "154819.305000", "154819.308000", "154819.311000", "154819.314000", "154819.317000", "154819.320000", "154819.323000", "154819.325000", "154819.328000", "154819.331000", "154819.334000", "154819.337000", "154819.340000", "154819.343000", "154819.345000", "154819.348000", "154819.351000", "154819.354000", "154819.357000", "154819.360000", "154819.363000", "154859.292000", "154859.295000", "154859.298000", "154859.301000", "154859.303000", "154859.306000", "154859.309000", "154859.312000", "154859.315000", "154859.318000", "154859.320000", "154859.323000", "154859.326000", "154859.329000", "154859.332000", "154859.335000", "154859.337000", "154859.340000", "154859.343000", "154859.346000", "154859.349000", "154859.352000", "154859.355000", "154859.358000", "154859.360000", "154859.363000", "154859.366000", "154939.292000", "154939.295000", "154939.298000", "154939.301000", "154939.304000", "154939.307000", "154939.309000", "154939.312000", "154939.315000", "154939.318000", "154939.321000", "154939.324000", "154939.331000", "154939.334000", "154939.337000", "154939.340000", "154939.342000", "154939.345000", "154939.348000", "154939.351000", "154939.354000", "154939.357000", "154939.360000", "154939.363000", "154939.365000", "154939.368000", "154939.371000", "155019.291000", "155019.294000", "155019.297000", "155019.300000", "155019.302000", "155019.305000", "155019.308000", "155019.311000", "155019.314000", "155019.317000", "155019.319000", "155019.322000", "155019.336000", "155019.338000", "155019.341000", "155019.344000", "155019.347000", "155019.350000", "155019.353000", "155019.356000", "155019.359000", "155019.361000", "155019.364000", "155019.367000", "155019.370000", "155019.373000", "155019.376000", "155059.291000", "155059.294000", "155059.297000", "155059.300000", "155059.303000", "155059.306000", "155059.308000", "155059.311000", "155059.314000", "155059.317000", "155059.320000", "155059.323000", "155059.326000", "155059.329000", "155059.331000", "155059.334000", "155059.337000", "155059.340000", "155059.343000", "155059.346000", "155059.349000", "155059.351000", "155059.354000", "155059.357000", "155059.360000", "155059.363000", "155059.366000", "155139.292000", "155139.295000", "155139.298000", "155139.300000", "155139.303000", "155139.306000", "155139.309000", "155139.312000", "155139.315000", "155139.318000", "155139.320000", "155139.323000", "155139.326000", "155139.329000", "155139.332000", "155139.335000", "155139.337000", "155139.340000", "155139.343000", "155139.346000", "155139.349000", "155139.352000", "155139.354000", "155139.357000", "155139.360000", "155139.363000", "155139.366000", "155219.291000", "155219.294000", "155219.297000", "155219.300000", "155219.303000", "155219.305000", "155219.308000", "155219.311000", "155219.314000", "155219.317000", "155219.320000", "155219.323000", "155219.326000", "155219.329000", "155219.332000", "155219.334000", "155219.337000", "155219.340000", "155219.343000", "155219.346000", "155219.349000", "155219.352000", "155219.354000", "155219.357000", "155219.360000", "155219.363000", "155234.330000", "155234.333000", "155234.336000", "155234.339000", "155234.342000", "155234.345000", "155234.348000", "155234.355000", "155234.358000", "155234.361000", "155234.363000"],
