{
  "AcquisitionMatrixPE": 104,
  "AcquisitionNumber": 1,
  "AcquisitionTime": "11:22:40.337500",
  "BandwidthPerPixelPhaseEncode": 17.17,
  "BaseResolution": 104,
  "BodyPartExamined": "BRAIN",
  "CoilString": "HC1-7;NC1_2",
  "ConsistencyInfo": "N4_VE11C_LATEST_20160120",
  "ConversionSoftware": "dcm2niix",
  "ConversionSoftwareVersion": "v1.0.20190902",
  "DerivedVendorReportedEchoSpacing": 0.000560011,
  "DeviceSerialNumber": "167006",
  "DwellTime": 2.1e-06,
  "EchoTime": 0.037,
  "EchoTrainLength": 104,
  "EffectiveEchoSpacing": 0.000560011,
  "FlipAngle": 52,
  "HeudiconvVersion": "0.10.0",
  "ImageComments": "Unaliased_MB4_PE3_LB",
  "ImageOrientationPatientDICOM": [0.997276, 0.0584999, 0.0449184, -0.0395318, 0.93811, -0.344073],
  "ImageType": [
    "ORIGINAL",
    "PRIMARY",
    "M",
    "MB",
    "ND",
    "MOSAIC"
],
  "ImagingFrequency": 123.259,
  "InPlanePhaseEncodingDirectionDICOM": "COL",
  "InstitutionAddress": "Chemin_Queen-Mary_4565_Montreal_District_CA_H3W_1W5",
  "InstitutionName": "IUGM",
  "InstitutionalDepartmentName": "Department",
  "MRAcquisitionType": "2D",
  "MagneticFieldStrength": 3,
  "Manufacturer": "Siemens",
  "ManufacturersModelName": "Prisma_fit",
  "Modality": "MR",
  "MultibandAccelerationFactor": 4,
  "PartialFourier": 1,
  "PatientPosition": "HFS",
  "PercentPhaseFOV": 100,
  "PhaseEncodingDirection": "j",
  "PhaseEncodingSteps": 104,
  "PhaseResolution": 1,
  "PixelBandwidth": 2290,
  "ProcedureStepDescription": "video_friends",
  "ProtocolName": "func_task-friends-s05e07b",
  "PulseSequenceDetails": "%CustomerSeq%_cmrr_mbep2d_bold",
  "ReceiveCoilActiveElements": "HC1-7;NC1,2",
  "ReceiveCoilName": "HeadNeck_64",
  "ReconMatrixPE": 104,
  "RepetitionTime": 1.49,
  "SAR": 0.0479969,
  "ScanOptions": "FS",
  "ScanningSequence": "EP",
  "SequenceName": "epfid2d1_104",
  "SequenceVariant": "SK_SS",
  "SeriesDescription": "func_task-friends-s05e07b",
  "SeriesNumber": 13,
  "ShimSetting": [636, -7186, -8828, 664, 77, -7, 6, 1],
  "SliceThickness": 2,
  "SliceTiming": [0, 0.785, 0.1, 0.8825, 0.1975, 0.98, 0.295, 1.0775, 0.3925, 1.1775, 0.49, 1.275, 0.59, 1.3725, 0.6875, 0, 0.785, 0.1, 0.8825, 0.1975, 0.98, 0.295, 1.0775, 0.3925, 1.1775, 0.49, 1.275, 0.59, 1.3725, 0.6875, 0, 0.785, 0.1, 0.8825, 0.1975, 0.98, 0.295, 1.0775, 0.3925, 1.1775, 0.49, 1.275, 0.59, 1.3725, 0.6875, 0, 0.785, 0.1, 0.8825, 0.1975, 0.98, 0.295, 1.0775, 0.3925, 1.1775, 0.49, 1.275, 0.59, 1.3725, 0.6875],
  "SoftwareVersions": "syngo_MR_E11",
  "SpacingBetweenSlices": 2,
  "StationName": "MRC35049",
  "TaskName": "s05e07b",
  "TotalReadoutTime": 0.0576811,
  "TxRefAmp": 273.209,
  "WipMemBlock": "4459bf01-962d-4c16-abb0-c0c2633caa6c||Sequence: R016 ve11c/master r/e634e98; Dec 19 2017 11:00:25 by eja",
  "dcmmeta_affine": [
    [-1.994552731513977, -0.07906355708837509, 0.12453320622444153, 104.23880004882812],
    [-0.11699970066547394, 1.8762205839157104, -0.6827206015586853, -63.57984161376953],
    [0.0898367166519165, 0.6881462931632996, 1.8757355213165283, -70.14031982421875],
    [0.0, 0.0, 0.0, 1.0]
],
  "dcmmeta_reorient_transform": [
    [0.0, -1.0, 0.0, 103.0],
    [1.0, 0.0, 0.0, 0.0],
    [0.0, 0.0, 1.0, 0.0],
    [0.0, 0.0, 0.0, 1.0]
],
  "dcmmeta_shape": [104, 104, 60, 493],
  "dcmmeta_slice_dim": 2,
  "dcmmeta_version": 0.6,
  "global": {
    "const": {
      "AcquisitionMatrix": [104, 0, 0, 104],
      "AngioFlag": "N",
      "BitsAllocated": 16,
      "BitsStored": 16,
      "BodyPartExamined": "BRAIN",
      "Columns": 832,
      "EchoNumbers": 1,
      "EchoTime": 37.0,
      "EchoTrainLength": 104,
      "FlipAngle": 52.0,
      "HighBit": 15,
      "ImageOrientationPatient": [0.99727634518522, 0.05849984851124, 0.04491835992302, -0.0395317785147, 0.93811028262483, -0.344073155188],
      "ImagePositionPatient": [-793.33330138074, -855.20305134642, 218.52344333173],
      "ImageType": [
        "ORIGINAL",
        "PRIMARY",
        "M",
        "MB",
        "ND",
        "MOSAIC"
],
      "ImagedNucleus": "1H",
      "ImagingFrequency": 123.258864,
      "InPlanePhaseEncodingDirection": "COL",
      "MRAcquisitionType": "2D",
      "MagneticFieldStrength": 3.0,
      "Manufacturer": "SIEMENS",
      "ManufacturerModelName": "Prisma_fit",
      "Modality": "MR",
      "NumberOfAverages": 1.0,
      "NumberOfPhaseEncodingSteps": 104,
      "PercentPhaseFieldOfView": 100.0,
      "PercentSampling": 100.0,
      "PerformedProcedureStepStartTime": "101616.399000",
      "PhotometricInterpretation": "MONOCHROME2",
      "PixelBandwidth": 2290.0,
      "PixelRepresentation": 0,
      "PixelSpacing": [2.0, 2.0],
      "ProtocolName": "func_task-friends-s05e07b",
      "RepetitionTime": 1490.0,
      "Rows": 832,
      "SAR": 0.04799694762905,
      "SamplesPerPixel": 1,
      "ScanOptions": "FS",
      "ScanningSequence": "EP",
      "SequenceName": "epfid2d1_104",
      "SequenceVariant": [
        "SK",
        "SS"
],
      "SeriesDescription": "func_task-friends-s05e07b",
      "SeriesNumber": 13,
      "SeriesTime": "112356.298000",
      "SliceLocation": -37.588113916728,
      "SliceThickness": 2.0,
      "SmallestImagePixelValue": 0,
      "SoftwareVersions": "syngo MR E11",
      "SpacingBetweenSlices": 1.999999973651,
      "SpecificCharacterSet": "ISO_IR 100",
      "StudyID": "2",
      "StudyTime": "101616.342000",
      "TransmitCoilName": "Body",
      "VariableFlipAngleFlag": "N",
      "WindowCenterWidthExplanation": "Algo1",
      "dBdt": 0.0},
    "slices": {}
  },
  "time": {
    "samples": {
      "AcquisitionNumber": [1, 2, 3, 4, 5, 6, 7, 8, 9, 10, 11, 12, 13, 14, 15, 16, 17, 18, 19, 20, 21, 22, 23, 24, 25, 26, 27, 28, 29, 30, 31, 32, 33, 34, 35, 36, 37, 38, 39, 40, 41, 42, 43, 44, 45, 46, 47, 48, 49, 50, 51, 52, 53, 54, 55, 56, 57, 58, 59, 60, 61, 62, 63, 64, 65, 66, 67, 68, 69, 70, 71, 72, 73, 74, 75, 76, 77, 78, 79, 80, 81, 82, 83, 84, 85, 86, 87, 88, 89, 90, 91, 92, 93, 94, 95, 96, 97, 98, 99, 100, 101, 102, 103, 104, 105, 106, 107, 108, 109, 110, 111, 112, 113, 114, 115, 116, 117, 118, 119, 120, 121, 122, 123, 124, 125, 126, 127, 128, 129, 130, 131, 132, 133, 134, 135, 136, 137, 138, 139, 140, 141, 142, 143, 144, 145, 146, 147, 148, 149, 150, 151, 152, 153, 154, 155, 156, 157, 158, 159, 160, 161, 162, 163, 164, 165, 166, 167, 168, 169, 170, 171, 172, 173, 174, 175, 176, 177, 178, 179, 180, 181, 182, 183, 184, 185, 186, 187, 188, 189, 190, 191, 192, 193, 194, 195, 196, 197, 198, 199, 200, 201, 202, 203, 204, 205, 206, 207, 208, 209, 210, 211, 212, 213, 214, 215, 216, 217, 218, 219, 220, 221, 222, 223, 224, 225, 226, 227, 228, 229, 230, 231, 232, 233, 234, 235, 236, 237, 238, 239, 240, 241, 242, 243, 244, 245, 246, 247, 248, 249, 250, 251, 252, 253, 254, 255, 256, 257, 258, 259, 260, 261, 262, 263, 264, 265, 266, 267, 268, 269, 270, 271, 272, 273, 274, 275, 276, 277, 278, 279, 280, 281, 282, 283, 284, 285, 286, 287, 288, 289, 290, 291, 292, 293, 294, 295, 296, 297, 298, 299, 300, 301, 302, 303, 304, 305, 306, 307, 308, 309, 310, 311, 312, 313, 314, 315, 316, 317, 318, 319, 320, 321, 322, 323, 324, 325, 326, 327, 328, 329, 330, 331, 332, 333, 334, 335, 336, 337, 338, 339, 340, 341, 342, 343, 344, 345, 346, 347, 348, 349, 350, 351, 352, 353, 354, 355, 356, 357, 358, 359, 360, 361, 362, 363, 364, 365, 366, 367, 368, 369, 370, 371, 372, 373, 374, 375, 376, 377, 378, 379, 380, 381, 382, 383, 384, 385, 386, 387, 388, 389, 390, 391, 392, 393, 394, 395, 396, 397, 398, 399, 400, 401, 402, 403, 404, 405, 406, 407, 408, 409, 410, 411, 412, 413, 414, 415, 416, 417, 418, 419, 420, 421, 422, 423, 424, 425, 426, 427, 428, 429, 430, 431, 432, 433, 434, 435, 436, 437, 438, 439, 440, 441, 442, 443, 444, 445, 446, 447, 448, 449, 450, 451, 452, 453, 454, 455, 456, 457, 458, 459, 460, 461, 462, 463, 464, 465, 466, 467, 468, 469, 470, 471, 472, 473, 474, 475, 476, 477, 478, 479, 480, 481, 482, 483, 484, 485, 486, 487, 488, 489, 490, 491, 492, 493],
      "AcquisitionTime": ["112240.337500", "112241.827500", "112243.317500", "112244.807500", "112246.297500", "112247.787500", "112249.277500", "112250.767500", "112252.257500", "112253.747500", "112255.237500", "112256.727500", "112258.217500", "112259.707500", "112301.197500", "112302.687500", "112304.177500", "112305.667500", "112307.157500", "112308.647500", "112310.137500", "112311.627500", "112313.117500", "112314.607500", "112316.097500", "112317.587500", "112319.077500", "112320.567500", "112322.057500", "112323.547500", "112325.037500", "112326.527500", "112328.017500", "112329.507500", "112330.997500", "112332.487500", "112333.977500", "112335.467500", "112336.957500", "112338.447500", "112339.937500", "112341.427500", "112342.917500", "112344.407500", "112345.897500", "112347.387500", "112348.877500", "112350.367500", "112351.857500", "112353.347500", "112354.837500", "112356.327500", "112357.817500", "112359.307500", "112400.797500", "112402.287500", "112403.777500", "112405.267500", "112406.757500", "112408.247500", "112409.737500", "112411.227500", "112412.717500", "112414.207500", "112415.697500", "112417.187500", "112418.677500", "112420.167500", "112421.657500", "112423.147500", "112424.637500", "112426.127500", "112427.617500", "112429.107500", "112430.597500", "112432.087500", "112433.577500", "112435.067500", "112436.557500", "112438.047500", "112439.537500", "112441.027500", "112442.517500", "112444.007500", "112445.497500", "112446.987500", "112448.477500", "112449.967500", "112451.457500", "112452.947500", "112454.437500", "112455.927500", "112457.417500", "112458.907500", "112500.397500", "112501.887500", "112503.377500", "112504.867500", "112506.357500", "112507.847500", "112509.337500", "112510.827500", "112512.317500", "112513.807500", "112515.297500", "112516.787500", "112518.277500", "112519.767500", "112521.257500", "112522.747500", "112524.237500", "112525.727500", "112527.217500", "112528.707500", "112530.197500", "112531.687500", "112533.177500", "112534.667500", "112536.157500", "112537.647500", "112539.137500", "112540.627500", "112542.117500", "112543.607500", "112545.097500", "112546.587500", "112548.077500", "112549.567500", "112551.057500", "112552.547500", "112554.037500", "112555.527500", "112557.017500", "112558.507500", "112559.997500", "112601.487500", "112602.977500", "112604.467500", "112605.957500", "112607.447500", "112608.937500", "112610.427500", "112611.917500", "112613.407500", "112614.897500", "112616.387500", "112617.877500", "112619.367500", "112620.857500", "112622.347500", "112623.837500", "112625.327500", "112626.817500", "112628.307500", "112629.797500", "112631.287500", "112632.777500", "112634.267500", "112635.757500", "112637.247500", "112638.737500", "112640.227500", "112641.717500", "112643.207500", "112644.697500", "112646.187500", "112647.677500", "112649.167500", "112650.657500", "112652.147500", "112653.637500", "112655.127500", "112656.617500", "112658.107500", "112659.597500", "112701.087500", "112702.577500", "112704.067500", "112705.557500", "112707.047500", "112708.537500", "112710.027500", "112711.517500", "112713.007500", "112714.497500", "112715.987500", "112717.477500", "112718.967500", "112720.457500", "112721.947500", "112723.437500", "112724.927500", "112726.417500", "112727.907500", "112729.397500", "112730.887500", "112732.377500", "112733.867500", "112735.357500", "112736.847500", "112738.337500", "112739.827500", "112741.317500", "112742.807500", "112744.297500", "112745.787500", "112747.277500", "112748.767500", "112750.257500", "112751.747500", "112753.237500", "112754.727500", "112756.217500", "112757.707500", "112759.197500", "112800.687500", "112802.177500", "112803.667500", "112805.157500", "112806.647500", "112808.137500", "112809.627500", "112811.117500", "112812.607500", "112814.097500", "112815.587500", "112817.077500", "112818.567500", "112820.057500", "112821.547500", "112823.037500", "112824.527500", "112826.017500", "112827.507500", "112828.997500", "112830.487500", "112831.977500", "112833.467500", "112834.957500", "112836.447500", "112837.937500", "112839.427500", "112840.917500", "112842.407500", "112843.897500", "112845.387500", "112846.877500", "112848.367500", "112849.857500", "112851.347500", "112852.837500", "112854.327500", "112855.817500", "112857.307500", "112858.797500", "112900.287500", "112901.777500", "112903.267500", "112904.757500", "112906.247500", "112907.737500", "112909.227500", "112910.717500", "112912.207500", "112913.697500", "112915.187500", "112916.677500", "112918.167500", "112919.657500", "112921.147500", "112922.637500", "112924.127500", "112925.617500", "112927.107500", "112928.597500", "112930.087500", "112931.577500", "112933.067500", "112934.557500", "112936.047500", "112937.537500", "112939.027500", "112940.517500", "112942.007500", "112943.497500", "112944.987500", "112946.477500", "112947.967500", "112949.457500", "112950.947500", "112952.437500", "112953.927500", "112955.417500", "112956.907500", "112958.397500", "112959.887500", "113001.377500", "113002.867500", "113004.357500", "113005.847500", "113007.337500", "113008.827500", "113010.317500", "113011.807500", "113013.297500", "113014.787500", "113016.277500", "113017.767500", "113019.257500", "113020.747500", "113022.237500", "113023.727500", "113025.217500", "113026.707500", "113028.197500", "113029.687500", "113031.177500", "113032.667500", "113034.157500", "113035.647500", "113037.137500", "113038.627500", "113040.117500", "113041.607500", "113043.097500", "113044.587500", "113046.077500", "113047.567500", "113049.057500", "113050.547500", "113052.037500", "113053.527500", "113055.017500", "113056.507500", "113057.997500", "113059.487500", "113100.977500", "113102.467500", "113103.957500", "113105.447500", "113106.937500", "113108.427500", "113109.917500", "113111.407500", "113112.897500", "113114.387500", "113115.877500", "113117.367500", "113118.857500", "113120.347500", "113121.837500", "113123.327500", "113124.817500", "113126.307500", "113127.797500", "113129.287500", "113130.777500", "113132.267500", "113133.757500", "113135.247500", "113136.737500", "113138.227500", "113139.717500", "113141.207500", "113142.697500", "113144.187500", "113145.677500", "113147.167500", "113148.657500", "113150.147500", "113151.637500", "113153.127500", "113154.617500", "113156.107500", "113157.597500", "113159.087500", "113200.577500", "113202.067500", "113203.557500", "113205.047500", "113206.537500", "113208.027500", "113209.517500", "113211.007500", "113212.497500", "113213.987500", "113215.477500", "113216.967500", "113218.457500", "113219.947500", "113221.437500", "113222.927500", "113224.417500", "113225.907500", "113227.397500", "113228.887500", "113230.377500", "113231.867500", "113233.357500", "113234.847500", "113236.337500", "113237.827500", "113239.317500", "113240.807500", "113242.297500", "113243.787500", "113245.277500", "113246.767500", "113248.257500", "113249.747500", "113251.237500", "113252.727500", "113254.217500", "113255.707500", "113257.197500", "113258.687500", "113300.177500", "113301.667500", "113303.157500", "113304.647500", "113306.137500", "113307.627500", "113309.117500", "113310.607500", "113312.097500", "113313.587500", "113315.077500", "113316.567500", "113318.057500", "113319.547500", "113321.037500", "113322.527500", "113324.017500", "113325.507500", "113326.997500", "113328.487500", "113329.977500", "113331.467500", "113332.957500", "113334.447500", "113335.937500", "113337.427500", "113338.917500", "113340.407500", "113341.897500", "113343.387500", "113344.877500", "113346.367500", "113347.857500", "113349.347500", "113350.837500", "113352.327500", "113353.817500", "113355.307500", "113356.797500", "113358.287500", "113359.777500", "113401.267500", "113402.757500", "113404.247500", "113405.737500", "113407.227500", "113408.717500", "113410.207500", "113411.697500", "113413.187500", "113414.677500", "113416.167500", "113417.657500", "113419.147500", "113420.637500", "113422.127500", "113423.617500", "113425.107500", "113426.597500", "113428.087500", "113429.577500", "113431.067500", "113432.557500", "113434.047500", "113435.537500", "113437.027500", "113438.517500", "113440.007500", "113441.497500", "113442.987500", "113444.477500", "113445.967500", "113447.457500", "113448.947500", "113450.437500", "113451.927500", "113453.417500"],
      "ContentTime": ["112356.301000", "112356.305000", "112356.308000", "112356.311000", "112356.314000", "112356.316000", "112356.319000", "112356.322000", "112356.325000", "112356.328000", "112356.340000", "112356.343000", "112356.352000", "112356.355000", "112356.358000", "112356.361000", "112356.364000", "112356.367000", "112356.370000", "112356.373000", "112416.252000", "112416.255000", "112416.258000", "112416.261000", "112416.264000", "112416.267000", "112416.270000", "112416.273000", "112416.275000", "112416.278000", "112416.281000", "112416.284000", "112416.287000", "112416.290000", "112416.293000", "112416.296000", "112416.299000", "112416.302000", "112416.305000", "112416.308000", "112436.252000", "112436.255000", "112436.258000", "112436.261000", "112436.272000", "112436.275000", "112436.278000", "112436.281000", "112436.283000", "112436.286000", "112436.289000", "112436.292000", "112436.295000", "112436.298000", "112436.301000", "112436.304000", "112436.306000", "112436.309000", "112436.312000", "112436.315000", "112456.253000", "112456.256000", "112456.259000", "112456.262000", "112456.265000", "112456.274000", "112456.277000", "112456.280000", "112456.283000", "112456.286000", "112456.289000", "112456.292000", "112456.295000", "112456.298000", "112456.301000", "112456.304000", "112456.307000", "112456.310000", "112456.313000", "112456.316000", "112456.319000", "112516.253000", "112516.256000", "112516.259000", "112516.262000", "112516.265000", "112516.268000", "112516.271000", "112516.273000", "112516.277000", "112516.279000", "112516.282000", "112516.285000", "112516.288000", "112516.291000", "112516.294000", "112516.297000", "112516.300000", "112516.303000", "112516.306000", "112516.309000", "112556.253000", "112556.256000", "112556.259000", "112556.262000", "112556.265000", "112556.268000", "112556.279000", "112556.282000", "112556.285000", "112556.288000", "112556.290000", "112556.293000", "112556.296000", "112556.299000", "112556.302000", "112556.305000", "112556.308000", "112556.311000", "112556.314000", "112556.317000", "112556.319000", "112556.322000", "112556.325000", "112556.328000", "112556.331000", "112556.334000", "112556.337000", "112556.340000", "112556.343000", "112556.346000", "112636.252000", "112636.255000", "112636.258000", "112636.261000", "112636.264000", "112636.267000", "112636.269000", "112636.272000", "112636.275000", "112636.278000", "112636.281000", "112636.284000", "112636.287000", "112636.290000", "112636.293000", "112636.296000", "112636.299000", "112636.302000", "112636.305000", "112636.307000", "112636.310000", "112636.313000", "112636.316000", "112636.319000", "112636.322000", "112636.325000", "112716.253000", "112716.256000", "112716.259000", "112716.262000", "112716.265000", "112716.267000", "112716.270000", "112716.273000", "112716.276000", "112716.279000", "112716.282000", "112716.285000", "112716.288000", "112716.291000", "112716.294000", "112716.296000", "112716.299000", "112716.302000", "112716.305000", "112716.308000", "112716.311000", "112716.314000", "112716.317000", "112716.319000", "112716.322000", "112716.325000", "112716.328000", "112756.253000", "112756.256000", "112756.259000", "112756.262000", "112756.265000", "112756.268000", "112756.271000", "112756.274000", "112756.277000", "112756.280000", "112756.282000", "112756.285000", "112756.288000", "112756.291000", "112756.294000", "112756.297000", "112756.300000", "112756.303000", "112756.306000", "112756.309000", "112756.312000", "112756.314000", "112756.317000", "112756.320000", "112756.337000", "112756.340000", "112756.342000", "112816.253000", "112816.256000", "112816.259000", "112816.262000", "112816.265000", "112816.268000", "112816.271000", "112816.274000", "112816.277000", "112816.290000", "112816.293000", "112816.296000", "112816.299000", "112816.312000", "112856.252000", "112856.255000", "112856.258000", "112856.261000", "112856.264000", "112856.267000", "112856.269000", "112856.272000", "112856.275000", "112856.278000", "112856.281000", "112856.284000", "112856.288000", "112856.291000", "112856.294000", "112856.297000", "112856.300000", "112856.302000", "112856.305000", "112856.308000", "112856.311000", "112856.314000", "112856.317000", "112856.320000", "112856.323000", "112856.326000", "112936.253000", "112936.256000", "112936.259000", "112936.262000", "112936.265000", "112936.268000", "112936.271000", "112936.274000", "112936.277000", "112936.280000", "112936.283000", "112936.285000", "112936.288000", "112936.291000", "112936.294000", "112936.297000", "112936.300000", "112936.303000", "112936.306000", "112936.309000", "112936.312000", "112936.321000", "112936.324000", "112936.327000", "112936.330000", "112936.332000", "112936.335000", "113016.253000", "113016.256000", "113016.259000", "113016.262000", "113016.265000", "113016.268000", "113016.271000", "113016.274000", "113016.277000", "113016.280000", "113016.283000", "113016.286000", "113016.288000", "113016.291000", "113016.294000", "113016.297000", "113016.300000", "113016.303000", "113016.306000", "113016.309000", "113016.312000", "113016.315000", "113016.318000", "113016.321000", "113016.324000", "113016.327000", "113016.329000", "113056.253000", "113056.256000", "113056.259000", "113056.262000", "113056.265000", "113056.268000", "113056.271000", "113056.273000", "113056.276000", "113056.279000", "113056.282000", "113056.285000", "113056.288000", "113056.291000", "113056.294000", "113056.297000", "113056.300000", "113056.303000", "113056.306000", "113056.309000", "113056.312000", "113056.314000", "113056.325000", "113056.328000", "113056.331000", "113056.334000", "113056.337000", "113136.252000", "113136.255000", "113136.258000", "113136.261000", "113136.264000", "113136.267000", "113136.270000", "113136.273000", "113136.276000", "113136.279000", "113136.281000", "113136.284000", "113136.287000", "113136.290000", "113136.293000", "113136.296000", "113136.299000", "113136.302000", "113136.305000", "113136.308000", "113136.311000", "113136.313000", "113136.316000", "113136.319000", "113136.322000", "113136.325000", "113136.328000", "113216.253000", "113216.256000", "113216.259000", "113216.262000", "113216.265000", "113216.268000", "113216.271000", "113216.274000", "113216.277000", "113216.280000", "113216.283000", "113216.286000", "113216.289000", "113216.291000", "113216.294000", "113216.297000", "113216.300000", "113216.303000", "113216.306000", "113216.327000", "113216.330000", "113216.333000", "113216.336000", "113216.339000", "113216.342000", "113216.345000", "113216.348000", "113256.253000", "113256.256000", "113256.259000", "113256.262000", "113256.265000", "113256.268000", "113256.271000", "113256.274000", "113256.277000", "113256.280000", "113256.283000", "113256.286000", "113256.289000", "113256.292000", "113256.295000", "113256.298000", "113256.301000", "113256.304000", "113256.307000", "113256.310000", "113256.313000", "113256.316000", "113256.319000", "113256.322000", "113256.325000", "113256.328000", "113336.252000", "113336.255000", "113336.258000", "113336.261000", "113336.264000", "113336.267000", "113336.270000", "113336.273000", "113336.276000", "113336.279000", "113336.282000", "113336.285000", "113336.288000", "113336.291000", "113336.294000", "113336.297000", "113336.300000", "113336.303000", "113336.306000", "113336.309000", "113336.312000", "113336.315000", "113336.318000", "113336.321000", "113336.324000", "113336.327000", "113336.330000", "113416.253000", "113416.256000", "113416.260000", "113416.262000", "113416.265000", "113416.268000", "113416.271000", "113416.274000", "113416.277000", "113416.280000", "113416.283000", "113416.286000", "113416.289000", "113416.292000", "113416.295000", "113416.298000", "113416.301000", "113416.304000", "113416.307000", "113416.310000", "113416.313000", "113416.316000", "113416.319000", "113416.322000", "113416.325000", "113416.328000", "113416.331000", "113455.561000", "113455.565000", "113455.568000", "113455.571000", "113455.574000", "113455.578000", "113455.581000", "113455.584000", "113455.587000", "113455.590000", "113455.593000", "113455.596000", "113455.599000", "113455.602000", "113455.605000", "113455.608000", "113455.610000", "113455.614000", "113455.617000", "113455.619000", "113455.622000", "113455.625000", "113455.628000", "113455.631000", "113455.634000", "113455.637000", "113455.640000"],
