{
  "AcquisitionMatrixPE": 104,
  "AcquisitionNumber": 1,
  "AcquisitionTime": "18:49:11.577500",
  "BandwidthPerPixelPhaseEncode": 17.17,
  "BaseResolution": 104,
  "BodyPartExamined": "BRAIN",
  "CoilCombinationMethod": "Sum of Squares",
  "ConsistencyInfo": "N4_VE11C_LATEST_20160120",
  "ConversionSoftware": "dcm2niix",
  "ConversionSoftwareVersion": "v1.0.20230411",
  "DerivedVendorReportedEchoSpacing": 0.000560011,
  "DeviceSerialNumber": "167006",
  "DwellTime": 2.1e-06,
  "EchoTime": 0.037,
  "EchoTrainLength": 104,
  "EffectiveEchoSpacing": 0.000560011,
  "FlipAngle": 52,
  "HeudiconvVersion": "0.5.3.post861+ge7d3c7f",
  "ImageComments": "Unaliased MB4/PE3/LB",
  "ImageOrientationPatientDICOM": [0.999549, -0.0295639, -0.00519253, 0.0251267, 0.918741, -0.394061],
  "ImageOrientationText": "Tra>Cor(-23.2)>Sag(-0.9)",
  "ImageType": [
    "ORIGINAL",
    "PRIMARY",
    "M",
    "MB",
    "ND",
    "MOSAIC"
],
  "ImagingFrequency": 123.249482,
  "InPlanePhaseEncodingDirectionDICOM": "COL",
  "InstitutionAddress": "Chemin Queen-Mary 4565,Montreal,District,CA,H3W 1W5",
  "InstitutionName": "IUGM",
  "InstitutionalDepartmentName": "Department",
  "MRAcquisitionType": "2D",
  "MagneticFieldStrength": 3,
  "Manufacturer": "Siemens",
  "ManufacturersModelName": "Prisma_fit",
  "MatrixCoilMode": "SENSE",
  "Modality": "MR",
  "MultibandAccelerationFactor": 4,
  "NonlinearGradientCorrection": false,
  "PartialFourier": 1,
  "PatientPosition": "HFS",
  "PercentPhaseFOV": 100,
  "PercentSampling": 100,
  "PhaseEncodingDirection": "j",
  "PhaseEncodingSteps": 104,
  "PhaseResolution": 1,
  "PixelBandwidth": 2290,
  "ProcedureStepDescription": "video^friends",
  "ProtocolName": "func_task-friends-s07e23a",
  "PulseSequenceDetails": "%CustomerSeq%\\cmrr_mbep2d_bold",
  "ReceiveCoilActiveElements": "HC1-7;NC1,2",
  "ReceiveCoilName": "HeadNeck_64",
  "ReconMatrixPE": 104,
  "RepetitionTime": 1.49,
  "SAR": 0.0574146,
  "ScanOptions": "FS",
  "ScanningSequence": "EP",
  "SequenceName": "epfid2d1_104",
  "SequenceVariant": "SK\\SS",
  "SeriesDescription": "func_task-friends-s07e23a",
  "SeriesNumber": 22,
  "ShimSetting": [590, -7278, -8812, 409, 20, -390, -8, 69],
  "SliceThickness": 2,
  "SliceTiming": [0, 0.785, 0.0975, 0.8825, 0.1975, 0.98, 0.295, 1.0775, 0.3925, 1.1775, 0.49, 1.275, 0.5875, 1.3725, 0.6875, 0, 0.785, 0.0975, 0.8825, 0.1975, 0.98, 0.295, 1.0775, 0.3925, 1.1775, 0.49, 1.275, 0.5875, 1.3725, 0.6875, 0, 0.785, 0.0975, 0.8825, 0.1975, 0.98, 0.295, 1.0775, 0.3925, 1.1775, 0.49, 1.275, 0.5875, 1.3725, 0.6875, 0, 0.785, 0.0975, 0.8825, 0.1975, 0.98, 0.295, 1.0775, 0.3925, 1.1775, 0.49, 1.275, 0.5875, 1.3725, 0.6875],
  "SoftwareVersions": "syngo MR E11",
  "SpacingBetweenSlices": 2,
  "StationName": "MRC35049",
  "TaskName": "s07e23a",
  "TotalReadoutTime": 0.0576811,
  "TxRefAmp": 262.833,
  "WipMemBlock": "2a4e6ac7-98ca-4fc3-a79a-aeed7131ecc7||Sequence: R017 ve11c/master r/75a17815+; Jun 28 2022 16:32:11 by eja",
  "dcmmeta_affine": [
    [-1.999098777770996, 0.05025334283709526, -0.03284112736582756, 98.33622741699219],
    [0.05912772938609123, 1.8374812602996826, -0.7875064015388489, -71.4083251953125],
    [-0.010385065339505672, 0.7881224751472473, 1.8381390571594238, -67.22215270996094],
    [0.0, 0.0, 0.0, 1.0]
],
  "dcmmeta_reorient_transform": [
    [0.0, -1.0, 0.0, 103.0],
    [1.0, 0.0, 0.0, 0.0],
    [0.0, 0.0, 1.0, 0.0],
    [0.0, 0.0, 0.0, 1.0]
],
  "dcmmeta_shape": [104, 104, 60, 480],
  "dcmmeta_slice_dim": 2,
  "dcmmeta_version": 0.6,
  "global": {
    "const": {
      "AcquisitionMatrix": [104, 0, 0, 104],
      "AngioFlag": "N",
      "BitsAllocated": 16,
      "BitsStored": 16,
      "BodyPartExamined": "BRAIN",
      "Columns": 832,
      "EchoNumbers": 1,
      "EchoTime": 37.0,
      "EchoTrainLength": 104,
      "FlipAngle": 52.0,
      "HighBit": 15,
      "ImageOrientationPatient": [0.99954940622672, -0.0295638650464, -0.0051925326516, 0.02512667079117, 0.91874065446146, -0.3940612392188],
      "ImagePositionPatient": [-849.47650523797, -765.17294981626, 304.61120606731],
      "ImageType": [
        "ORIGINAL",
        "PRIMARY",
        "M",
        "MB",
        "ND",
        "MOSAIC"
],
      "ImagedNucleus": "1H",
      "ImagingFrequency": 123.249482,
      "InPlanePhaseEncodingDirection": "COL",
      "MRAcquisitionType": "2D",
      "MagneticFieldStrength": 3.0,
      "Manufacturer": "SIEMENS",
      "ManufacturerModelName": "Prisma_fit",
      "Modality": "MR",
      "NumberOfAverages": 1.0,
      "NumberOfPhaseEncodingSteps": 104,
      "PercentPhaseFieldOfView": 100.0,
      "PercentSampling": 100.0,
      "PerformedProcedureStepStartTime": "164945.855000",
      "PhotometricInterpretation": "MONOCHROME2",
      "PixelBandwidth": 2290.0,
      "PixelRepresentation": 0,
      "PixelSpacing": [2.0, 2.0],
      "ProtocolName": "func_task-friends-s07e23a",
      "RepetitionTime": 1490.0,
      "Rows": 832,
      "SAR": 0.05741458621895,
      "SamplesPerPixel": 1,
      "ScanOptions": "FS",
      "ScanningSequence": "EP",
      "SequenceName": "epfid2d1_104",
      "SequenceVariant": [
        "SK",
        "SS"
],
      "SeriesDescription": "func_task-friends-s07e23a",
      "SeriesNumber": 22,
      "SeriesTime": "185039.475000",
      "SliceLocation": -35.279311972911,
      "SliceThickness": 2.0,
      "SmallestImagePixelValue": 0,
      "SoftwareVersions": "syngo MR E11",
      "SpacingBetweenSlices": 1.9999999912808,
      "SpecificCharacterSet": "ISO_IR 100",
      "StudyID": "1",
      "StudyTime": "164945.784000",
      "TransmitCoilName": "Body",
      "VariableFlipAngleFlag": "N",
      "WindowCenterWidthExplanation": "Algo1",
      "dBdt": 0.0},
    "slices": {}
  },
  "time": {
    "samples": {
      "AcquisitionNumber": [1, 2, 3, 4, 5, 6, 7, 8, 9, 10, 11, 12, 13, 14, 15, 16, 17, 18, 19, 20, 21, 22, 23, 24, 25, 26, 27, 28, 29, 30, 31, 32, 33, 34, 35, 36, 37, 38, 39, 40, 41, 42, 43, 44, 45, 46, 47, 48, 49, 50, 51, 52, 53, 54, 55, 56, 57, 58, 59, 60, 61, 62, 63, 64, 65, 66, 67, 68, 69, 70, 71, 72, 73, 74, 75, 76, 77, 78, 79, 80, 81, 82, 83, 84, 85, 86, 87, 88, 89, 90, 91, 92, 93, 94, 95, 96, 97, 98, 99, 100, 101, 102, 103, 104, 105, 106, 107, 108, 109, 110, 111, 112, 113, 114, 115, 116, 117, 118, 119, 120, 121, 122, 123, 124, 125, 126, 127, 128, 129, 130, 131, 132, 133, 134, 135, 136, 137, 138, 139, 140, 141, 142, 143, 144, 145, 146, 147, 148, 149, 150, 151, 152, 153, 154, 155, 156, 157, 158, 159, 160, 161, 162, 163, 164, 165, 166, 167, 168, 169, 170, 171, 172, 173, 174, 175, 176, 177, 178, 179, 180, 181, 182, 183, 184, 185, 186, 187, 188, 189, 190, 191, 192, 193, 194, 195, 196, 197, 198, 199, 200, 201, 202, 203, 204, 205, 206, 207, 208, 209, 210, 211, 212, 213, 214, 215, 216, 217, 218, 219, 220, 221, 222, 223, 224, 225, 226, 227, 228, 229, 230, 231, 232, 233, 234, 235, 236, 237, 238, 239, 240, 241, 242, 243, 244, 245, 246, 247, 248, 249, 250, 251, 252, 253, 254, 255, 256, 257, 258, 259, 260, 261, 262, 263, 264, 265, 266, 267, 268, 269, 270, 271, 272, 273, 274, 275, 276, 277, 278, 279, 280, 281, 282, 283, 284, 285, 286, 287, 288, 289, 290, 291, 292, 293, 294, 295, 296, 297, 298, 299, 300, 301, 302, 303, 304, 305, 306, 307, 308, 309, 310, 311, 312, 313, 314, 315, 316, 317, 318, 319, 320, 321, 322, 323, 324, 325, 326, 327, 328, 329, 330, 331, 332, 333, 334, 335, 336, 337, 338, 339, 340, 341, 342, 343, 344, 345, 346, 347, 348, 349, 350, 351, 352, 353, 354, 355, 356, 357, 358, 359, 360, 361, 362, 363, 364, 365, 366, 367, 368, 369, 370, 371, 372, 373, 374, 375, 376, 377, 378, 379, 380, 381, 382, 383, 384, 385, 386, 387, 388, 389, 390, 391, 392, 393, 394, 395, 396, 397, 398, 399, 400, 401, 402, 403, 404, 405, 406, 407, 408, 409, 410, 411, 412, 413, 414, 415, 416, 417, 418, 419, 420, 421, 422, 423, 424, 425, 426, 427, 428, 429, 430, 431, 432, 433, 434, 435, 436, 437, 438, 439, 440, 441, 442, 443, 444, 445, 446, 447, 448, 449, 450, 451, 452, 453, 454, 455, 456, 457, 458, 459, 460, 461, 462, 463, 464, 465, 466, 467, 468, 469, 470, 471, 472, 473, 474, 475, 476, 477, 478, 479, 480],
      "AcquisitionTime": ["184911.577500", "184913.067500", "184914.557500", "184916.047500", "184917.537500", "184919.027500", "184920.517500", "184922.007500", "184923.497500", "184924.987500", "184926.477500", "184927.967500", "184929.457500", "184930.947500", "184932.437500", "184933.927500", "184935.417500", "184936.907500", "184938.397500", "184939.887500", "184941.377500", "184942.867500", "184944.357500", "184945.847500", "184947.337500", "184948.827500", "184950.317500", "184951.807500", "184953.297500", "184954.787500", "184956.277500", "184957.767500", "184959.257500", "185000.747500", "185002.237500", "185003.727500", "185005.217500", "185006.707500", "185008.197500", "185009.687500", "185011.177500", "185012.667500", "185014.157500", "185015.647500", "185017.137500", "185018.627500", "185020.117500", "185021.607500", "185023.097500", "185024.587500", "185026.077500", "185027.567500", "185029.057500", "185030.547500", "185032.037500", "185033.527500", "185035.017500", "185036.507500", "185037.997500", "185039.487500", "185040.977500", "185042.467500", "185043.957500", "185045.447500", "185046.937500", "185048.427500", "185049.917500", "185051.407500", "185052.897500", "185054.387500", "185055.877500", "185057.367500", "185058.857500", "185100.347500", "185101.837500", "185103.327500", "185104.817500", "185106.307500", "185107.797500", "185109.287500", "185110.777500", "185112.267500", "185113.757500", "185115.247500", "185116.737500", "185118.227500", "185119.717500", "185121.207500", "185122.697500", "185124.187500", "185125.677500", "185127.167500", "185128.657500", "185130.147500", "185131.637500", "185133.127500", "185134.617500", "185136.107500", "185137.597500", "185139.087500", "185140.577500", "185142.067500", "185143.557500", "185145.047500", "185146.537500", "185148.027500", "185149.517500", "185151.007500", "185152.497500", "185153.987500", "185155.477500", "185156.967500", "185158.457500", "185159.947500", "185201.437500", "185202.927500", "185204.417500", "185205.907500", "185207.397500", "185208.887500", "185210.377500", "185211.867500", "185213.357500", "185214.847500", "185216.337500", "185217.827500", "185219.317500", "185220.807500", "185222.297500", "185223.787500", "185225.277500", "185226.767500", "185228.257500", "185229.747500", "185231.237500", "185232.727500", "185234.217500", "185235.707500", "185237.197500", "185238.687500", "185240.177500", "185241.667500", "185243.157500", "185244.647500", "185246.137500", "185247.627500", "185249.117500", "185250.607500", "185252.097500", "185253.587500", "185255.077500", "185256.567500", "185258.057500", "185259.547500", "185301.037500", "185302.527500", "185304.017500", "185305.507500", "185306.997500", "185308.487500", "185309.977500", "185311.467500", "185312.957500", "185314.447500", "185315.937500", "185317.427500", "185318.917500", "185320.407500", "185321.897500", "185323.387500", "185324.877500", "185326.367500", "185327.857500", "185329.347500", "185330.837500", "185332.327500", "185333.817500", "185335.307500", "185336.797500", "185338.287500", "185339.777500", "185341.267500", "185342.757500", "185344.247500", "185345.737500", "185347.227500", "185348.717500", "185350.207500", "185351.697500", "185353.187500", "185354.677500", "185356.167500", "185357.657500", "185359.147500", "185400.637500", "185402.127500", "185403.617500", "185405.107500", "185406.597500", "185408.087500", "185409.577500", "185411.067500", "185412.557500", "185414.047500", "185415.537500", "185417.027500", "185418.517500", "185420.007500", "185421.497500", "185422.987500", "185424.477500", "185425.967500", "185427.457500", "185428.947500", "185430.437500", "185431.927500", "185433.417500", "185434.907500", "185436.397500", "185437.887500", "185439.377500", "185440.867500", "185442.357500", "185443.847500", "185445.337500", "185446.827500", "185448.317500", "185449.807500", "185451.297500", "185452.787500", "185454.277500", "185455.767500", "185457.257500", "185458.747500", "185500.237500", "185501.727500", "185503.217500", "185504.707500", "185506.197500", "185507.687500", "185509.177500", "185510.667500", "185512.157500", "185513.647500", "185515.137500", "185516.627500", "185518.117500", "185519.607500", "185521.097500", "185522.587500", "185524.077500", "185525.567500", "185527.057500", "185528.547500", "185530.037500", "185531.527500", "185533.017500", "185534.507500", "185535.997500", "185537.487500", "185538.977500", "185540.467500", "185541.957500", "185543.447500", "185544.937500", "185546.427500", "185547.917500", "185549.407500", "185550.897500", "185552.387500", "185553.877500", "185555.367500", "185556.857500", "185558.347500", "185559.837500", "185601.327500", "185602.817500", "185604.307500", "185605.797500", "185607.287500", "185608.777500", "185610.267500", "185611.757500", "185613.247500", "185614.737500", "185616.227500", "185617.717500", "185619.207500", "185620.697500", "185622.187500", "185623.677500", "185625.167500", "185626.657500", "185628.147500", "185629.637500", "185631.127500", "185632.617500", "185634.107500", "185635.597500", "185637.087500", "185638.577500", "185640.067500", "185641.557500", "185643.047500", "185644.537500", "185646.027500", "185647.517500", "185649.007500", "185650.497500", "185651.987500", "185653.477500", "185654.967500", "185656.457500", "185657.947500", "185659.437500", "185700.927500", "185702.417500", "185703.907500", "185705.397500", "185706.887500", "185708.377500", "185709.867500", "185711.357500", "185712.847500", "185714.337500", "185715.827500", "185717.317500", "185718.807500", "185720.297500", "185721.787500", "185723.277500", "185724.767500", "185726.257500", "185727.747500", "185729.237500", "185730.727500", "185732.217500", "185733.707500", "185735.197500", "185736.687500", "185738.177500", "185739.667500", "185741.157500", "185742.647500", "185744.137500", "185745.627500", "185747.117500", "185748.607500", "185750.097500", "185751.587500", "185753.077500", "185754.567500", "185756.057500", "185757.547500", "185759.037500", "185800.527500", "185802.017500", "185803.507500", "185804.997500", "185806.487500", "185807.977500", "185809.467500", "185810.957500", "185812.447500", "185813.937500", "185815.427500", "185816.917500", "185818.407500", "185819.897500", "185821.387500", "185822.877500", "185824.367500", "185825.857500", "185827.347500", "185828.837500", "185830.327500", "185831.817500", "185833.307500", "185834.797500", "185836.287500", "185837.777500", "185839.267500", "185840.757500", "185842.247500", "185843.737500", "185845.227500", "185846.717500", "185848.207500", "185849.697500", "185851.187500", "185852.677500", "185854.167500", "185855.657500", "185857.147500", "185858.637500", "185900.127500", "185901.617500", "185903.107500", "185904.597500", "185906.087500", "185907.577500", "185909.067500", "185910.557500", "185912.047500", "185913.537500", "185915.027500", "185916.517500", "185918.007500", "185919.497500", "185920.987500", "185922.477500", "185923.967500", "185925.457500", "185926.947500", "185928.437500", "185929.927500", "185931.417500", "185932.907500", "185934.397500", "185935.887500", "185937.377500", "185938.867500", "185940.357500", "185941.847500", "185943.337500", "185944.827500", "185946.317500", "185947.807500", "185949.297500", "185950.787500", "185952.277500", "185953.767500", "185955.257500", "185956.747500", "185958.237500", "185959.727500", "190001.217500", "190002.707500", "190004.197500", "190005.687500", "190007.177500", "190008.667500", "190010.157500", "190011.647500", "190013.137500", "190014.627500", "190016.117500", "190017.607500", "190019.097500", "190020.587500", "190022.077500", "190023.567500", "190025.057500", "190026.547500", "190028.037500", "190029.527500", "190031.017500", "190032.507500", "190033.997500", "190035.487500", "190036.977500", "190038.467500", "190039.957500", "190041.447500", "190042.937500", "190044.427500", "190045.917500", "190047.407500", "190048.897500", "190050.387500", "190051.877500", "190053.367500", "190054.857500", "190056.347500", "190057.837500", "190059.327500", "190100.817500", "190102.307500", "190103.797500", "190105.287500"],
      "ContentTime": ["185039.478000", "185039.481000", "185039.484000", "185039.487000", "185039.490000", "185039.493000", "185039.504000", "185039.507000", "185039.509000", "185039.512000", "185039.515000", "185039.518000", "185039.527000", "185039.530000", "185039.533000", "185039.536000", "185039.539000", "185039.542000", "185039.545000", "185039.548000", "185039.551000", "185039.553000", "185039.556000", "185039.559000", "185039.562000", "185039.565000", "185039.568000", "185039.571000", "185039.574000", "185039.577000", "185039.580000", "185039.583000", "185039.586000", "185039.588000", "185039.591000", "185039.594000", "185039.597000", "185039.600000", "185039.603000", "185039.606000", "185059.442000", "185059.445000", "185059.448000", "185059.451000", "185059.455000", "185059.458000", "185059.461000", "185059.464000", "185059.467000", "185059.470000", "185059.473000", "185059.476000", "185059.478000", "185059.481000", "185059.484000", "185059.487000", "185059.490000", "185059.493000", "185059.496000", "185059.499000", "185119.442000", "185119.445000", "185119.448000", "185119.451000", "185119.454000", "185119.457000", "185119.460000", "185119.462000", "185119.465000", "185119.468000", "185119.472000", "185119.474000", "185119.477000", "185119.480000", "185119.483000", "185119.486000", "185119.489000", "185119.492000", "185119.495000", "185119.498000", "185159.442000", "185159.445000", "185159.448000", "185159.451000", "185159.454000", "185159.457000", "185159.460000", "185159.463000", "185159.465000", "185159.468000", "185159.471000", "185159.474000", "185159.477000", "185159.480000", "185159.483000", "185159.486000", "185159.489000", "185159.492000", "185159.494000", "185159.497000", "185159.500000", "185159.503000", "185159.506000", "185159.520000", "185159.523000", "185159.526000", "185159.529000", "185159.532000", "185159.535000", "185159.538000", "185159.541000", "185159.543000", "185239.442000", "185239.445000", "185239.448000", "185239.451000", "185239.461000", "185239.464000", "185239.467000", "185239.470000", "185239.473000", "185239.476000", "185239.479000", "185239.482000", "185239.485000", "185239.488000", "185239.491000", "185239.494000", "185239.496000", "185239.499000", "185239.502000", "185239.505000", "185239.508000", "185239.511000", "185239.514000", "185239.517000", "185239.520000", "185239.523000", "185239.526000", "185319.442000", "185319.445000", "185319.448000", "185319.451000", "185319.454000", "185319.457000", "185319.460000", "185319.463000", "185319.466000", "185319.469000", "185319.472000", "185319.474000", "185319.477000", "185319.480000", "185319.483000", "185319.486000", "185319.489000", "185319.492000", "185319.495000", "185319.498000", "185319.501000", "185319.504000", "185319.507000", "185319.509000", "185319.512000", "185319.515000", "185319.518000", "185359.442000", "185359.445000", "185359.448000", "185359.451000", "185359.454000", "185359.457000", "185359.460000", "185359.463000", "185359.465000", "185359.468000", "185359.471000", "185359.474000", "185359.477000", "185359.480000", "185359.483000", "185359.486000", "185359.489000", "185359.492000", "185359.495000", "185359.498000", "185359.501000", "185359.504000", "185359.507000", "185359.509000", "185359.512000", "185359.515000", "185359.518000", "185439.442000", "185439.445000", "185439.448000", "185439.451000", "185439.454000", "185439.457000", "185439.460000", "185439.463000", "185439.465000", "185439.468000", "185439.471000", "185439.474000", "185439.477000", "185439.480000", "185439.483000", "185439.486000", "185439.489000", "185439.491000", "185439.494000", "185439.497000", "185439.500000", "185439.503000", "185439.506000", "185439.509000", "185439.512000", "185439.515000", "185439.518000", "185519.442000", "185519.445000", "185519.448000", "185519.451000", "185519.454000", "185519.457000", "185519.460000", "185519.462000", "185519.465000", "185519.468000", "185519.471000", "185519.474000", "185519.477000", "185519.480000", "185519.487000", "185519.490000", "185519.493000", "185519.496000", "185519.498000", "185519.501000", "185519.504000", "185519.507000", "185519.510000", "185519.513000", "185519.516000", "185519.519000", "185519.522000", "185559.442000", "185559.445000", "185559.448000", "185559.451000", "185559.454000", "185559.457000", "185559.460000", "185559.463000", "185559.466000", "185559.469000", "185559.472000", "185559.474000", "185559.477000", "185559.480000", "185559.483000", "185559.486000", "185559.489000", "185559.492000", "185559.495000", "185559.498000", "185559.501000", "185559.504000", "185559.507000", "185559.510000", "185559.512000", "185559.517000", "185619.442000", "185619.445000", "185619.448000", "185619.451000", "185619.454000", "185619.457000", "185619.460000", "185619.463000", "185619.466000", "185619.469000", "185619.472000", "185619.474000", "185619.477000", "185619.480000", "185659.442000", "185659.445000", "185659.448000", "185659.451000", "185659.454000", "185659.457000", "185659.460000", "185659.463000", "185659.466000", "185659.469000", "185659.472000", "185659.474000", "185659.477000", "185659.494000", "185659.497000", "185659.500000", "185659.503000", "185659.506000", "185659.509000", "185659.511000", "185659.514000", "185659.517000", "185659.520000", "185659.523000", "185659.526000", "185659.529000", "185659.532000", "185739.442000", "185739.445000", "185739.448000", "185739.451000", "185739.454000", "185739.457000", "185739.460000", "185739.463000", "185739.466000", "185739.469000", "185739.472000", "185739.475000", "185739.478000", "185739.481000", "185739.484000", "185739.487000", "185739.490000", "185739.493000", "185739.495000", "185739.498000", "185739.501000", "185739.504000", "185739.507000", "185739.510000", "185739.513000", "185739.516000", "185819.442000", "185819.445000", "185819.448000", "185819.451000", "185819.454000", "185819.457000", "185819.460000", "185819.463000", "185819.466000", "185819.468000", "185819.471000", "185819.474000", "185819.477000", "185819.480000", "185819.483000", "185819.486000", "185819.489000", "185819.492000", "185819.495000", "185819.498000", "185819.501000", "185819.504000", "185819.507000", "185819.509000", "185819.512000", "185819.515000", "185819.518000", "185859.442000", "185859.445000", "185859.448000", "185859.451000", "185859.454000", "185859.457000", "185859.460000", "185859.463000", "185859.466000", "185859.469000", "185859.471000", "185859.474000", "185859.477000", "185859.480000", "185859.483000", "185859.486000", "185859.489000", "185859.492000", "185859.495000", "185859.498000", "185859.501000", "185859.504000", "185859.506000", "185859.509000", "185859.512000", "185859.515000", "185859.518000", "185939.442000", "185939.445000", "185939.448000", "185939.451000", "185939.454000", "185939.457000", "185939.460000", "185939.463000", "185939.465000", "185939.468000", "185939.471000", "185939.474000", "185939.477000", "185939.480000", "185939.483000", "185939.487000", "185939.490000", "185939.492000", "185939.495000", "185939.498000", "185939.501000", "185939.504000", "185939.507000", "185939.510000", "185939.513000", "185939.516000", "185939.519000", "190019.442000", "190019.445000", "190019.448000", "190019.451000", "190019.454000", "190019.457000", "190019.460000", "190019.463000", "190019.466000", "190019.469000", "190019.472000", "190019.475000", "190019.478000", "190019.481000", "190019.484000", "190019.486000", "190019.489000", "190019.492000", "190019.495000", "190019.498000", "190019.501000", "190019.504000", "190019.507000", "190019.510000", "190019.513000", "190019.516000", "190019.518000", "190059.442000", "190059.445000", "190059.448000", "190059.451000", "190059.454000", "190059.457000", "190059.460000", "190059.463000", "190059.475000", "190059.478000", "190059.481000", "190059.484000", "190059.487000", "190059.489000", "190059.492000", "190059.495000", "190059.498000", "190059.501000", "190059.504000", "190059.507000", "190059.510000", "190059.513000", "190059.527000", "190059.530000", "190059.533000", "190059.536000", "190059.539000", "190106.661000", "190106.664000", "190106.667000", "190106.670000", "190106.673000"],
