{
  "AcquisitionMatrixPE": 104,
  "AcquisitionNumber": 1,
  "AcquisitionTime": "17:27:51.707500",
  "BandwidthPerPixelPhaseEncode": 17.17,
  "BaseResolution": 104,
  "BodyPartExamined": "BRAIN",
  "CoilCombinationMethod": "Sum of Squares",
  "ConsistencyInfo": "N4_VE11C_LATEST_20160120",
  "ConversionSoftware": "dcm2niix",
  "ConversionSoftwareVersion": "v1.0.20230411",
  "DerivedVendorReportedEchoSpacing": 0.000560011,
  "DeviceSerialNumber": "167006",
  "DwellTime": 2.1e-06,
  "EchoTime": 0.037,
  "EchoTrainLength": 104,
  "EffectiveEchoSpacing": 0.000560011,
  "FlipAngle": 52,
  "HeudiconvVersion": "0.5.3.post861+ge7d3c7f",
  "ImageComments": "Unaliased MB4/PE3/LB",
  "ImageOrientationPatientDICOM": [0.999549, -0.0295639, -0.00519253, 0.0251267, 0.918741, -0.394061],
  "ImageOrientationText": "Tra>Cor(-23.2)>Sag(-0.9)",
  "ImageType": [
    "ORIGINAL",
    "PRIMARY",
    "M",
    "MB",
    "ND",
    "MOSAIC"
],
  "ImagingFrequency": 123.249448,
  "InPlanePhaseEncodingDirectionDICOM": "COL",
  "InstitutionAddress": "Chemin Queen-Mary 4565,Montreal,District,CA,H3W 1W5",
  "InstitutionName": "IUGM",
  "InstitutionalDepartmentName": "Department",
  "MRAcquisitionType": "2D",
  "MagneticFieldStrength": 3,
  "Manufacturer": "Siemens",
  "ManufacturersModelName": "Prisma_fit",
  "MatrixCoilMode": "SENSE",
  "Modality": "MR",
  "MultibandAccelerationFactor": 4,
  "NonlinearGradientCorrection": false,
  "PartialFourier": 1,
  "PatientPosition": "HFS",
  "PercentPhaseFOV": 100,
  "PercentSampling": 100,
  "PhaseEncodingDirection": "j",
  "PhaseEncodingSteps": 104,
  "PhaseResolution": 1,
  "PixelBandwidth": 2290,
  "ProcedureStepDescription": "video^friends",
  "ProtocolName": "func_task-friends-s07e20a",
  "PulseSequenceDetails": "%CustomerSeq%\\cmrr_mbep2d_bold",
  "ReceiveCoilActiveElements": "HC1-7;NC1,2",
  "ReceiveCoilName": "HeadNeck_64",
  "ReconMatrixPE": 104,
  "RepetitionTime": 1.49,
  "SAR": 0.0574146,
  "ScanOptions": "FS",
  "ScanningSequence": "EP",
  "SequenceName": "epfid2d1_104",
  "SequenceVariant": "SK\\SS",
  "SeriesDescription": "func_task-friends-s07e20a",
  "SeriesNumber": 10,
  "ShimSetting": [590, -7278, -8812, 409, 20, -390, -8, 69],
  "SliceThickness": 2,
  "SliceTiming": [0, 0.785, 0.0975, 0.8825, 0.195, 0.98, 0.295, 1.0775, 0.3925, 1.175, 0.49, 1.275, 0.5875, 1.3725, 0.685, 0, 0.785, 0.0975, 0.8825, 0.195, 0.98, 0.295, 1.0775, 0.3925, 1.175, 0.49, 1.275, 0.5875, 1.3725, 0.685, 0, 0.785, 0.0975, 0.8825, 0.195, 0.98, 0.295, 1.0775, 0.3925, 1.175, 0.49, 1.275, 0.5875, 1.3725, 0.685, 0, 0.785, 0.0975, 0.8825, 0.195, 0.98, 0.295, 1.0775, 0.3925, 1.175, 0.49, 1.275, 0.5875, 1.3725, 0.685],
  "SoftwareVersions": "syngo MR E11",
  "SpacingBetweenSlices": 2,
  "StationName": "MRC35049",
  "TaskName": "s07e20a",
  "TotalReadoutTime": 0.0576811,
  "TxRefAmp": 262.833,
  "WipMemBlock": "85a3e301-7b41-472e-918b-78965c6e3df8||Sequence: R017 ve11c/master r/75a17815+; Jun 28 2022 16:32:11 by eja",
  "dcmmeta_affine": [
    [-1.999098777770996, 0.05025334283709526, -0.03284112736582756, 98.33622741699219],
    [0.05912772938609123, 1.8374812602996826, -0.7875064015388489, -71.4083251953125],
    [-0.010385065339505672, 0.7881224751472473, 1.8381390571594238, -67.22215270996094],
    [0.0, 0.0, 0.0, 1.0]
],
  "dcmmeta_reorient_transform": [
    [0.0, -1.0, 0.0, 103.0],
    [1.0, 0.0, 0.0, 0.0],
    [0.0, 0.0, 1.0, 0.0],
    [0.0, 0.0, 0.0, 1.0]
],
  "dcmmeta_shape": [104, 104, 60, 454],
  "dcmmeta_slice_dim": 2,
  "dcmmeta_version": 0.6,
  "global": {
    "const": {
      "AcquisitionMatrix": [104, 0, 0, 104],
      "AngioFlag": "N",
      "BitsAllocated": 16,
      "BitsStored": 16,
      "BodyPartExamined": "BRAIN",
      "Columns": 832,
      "EchoNumbers": 1,
      "EchoTime": 37.0,
      "EchoTrainLength": 104,
      "FlipAngle": 52.0,
      "HighBit": 15,
      "ImageOrientationPatient": [0.99954940622672, -0.0295638650464, -0.0051925326516, 0.02512667079117, 0.91874065446146, -0.3940612392188],
      "ImagePositionPatient": [-849.47650523797, -765.17294981626, 304.61120606731],
      "ImageType": [
        "ORIGINAL",
        "PRIMARY",
        "M",
        "MB",
        "ND",
        "MOSAIC"
],
      "ImagedNucleus": "1H",
      "ImagingFrequency": 123.249448,
      "InPlanePhaseEncodingDirection": "COL",
      "MRAcquisitionType": "2D",
      "MagneticFieldStrength": 3.0,
      "Manufacturer": "SIEMENS",
      "ManufacturerModelName": "Prisma_fit",
      "Modality": "MR",
      "NumberOfAverages": 1.0,
      "NumberOfPhaseEncodingSteps": 104,
      "PercentPhaseFieldOfView": 100.0,
      "PercentSampling": 100.0,
      "PerformedProcedureStepStartTime": "164945.855000",
      "PhotometricInterpretation": "MONOCHROME2",
      "PixelBandwidth": 2290.0,
      "PixelRepresentation": 0,
      "PixelSpacing": [2.0, 2.0],
      "ProtocolName": "func_task-friends-s07e20a",
      "RepetitionTime": 1490.0,
      "Rows": 832,
      "SAR": 0.05741458873038,
      "SamplesPerPixel": 1,
      "ScanOptions": "FS",
      "ScanningSequence": "EP",
      "SequenceName": "epfid2d1_104",
      "SequenceVariant": [
        "SK",
        "SS"
],
      "SeriesDescription": "func_task-friends-s07e20a",
      "SeriesNumber": 10,
      "SeriesTime": "172859.483000",
      "SliceLocation": -35.279311972911,
      "SliceThickness": 2.0,
      "SmallestImagePixelValue": 0,
      "SoftwareVersions": "syngo MR E11",
      "SpacingBetweenSlices": 1.9999999912808,
      "SpecificCharacterSet": "ISO_IR 100",
      "StudyID": "1",
      "StudyTime": "164945.784000",
      "TransmitCoilName": "Body",
      "VariableFlipAngleFlag": "N",
      "WindowCenterWidthExplanation": "Algo1",
      "dBdt": 0.0},
    "slices": {}
  },
  "time": {
    "samples": {
      "AcquisitionNumber": [1, 2, 3, 4, 5, 6, 7, 8, 9, 10, 11, 12, 13, 14, 15, 16, 17, 18, 19, 20, 21, 22, 23, 24, 25, 26, 27, 28, 29, 30, 31, 32, 33, 34, 35, 36, 37, 38, 39, 40, 41, 42, 43, 44, 45, 46, 47, 48, 49, 50, 51, 52, 53, 54, 55, 56, 57, 58, 59, 60, 61, 62, 63, 64, 65, 66, 67, 68, 69, 70, 71, 72, 73, 74, 75, 76, 77, 78, 79, 80, 81, 82, 83, 84, 85, 86, 87, 88, 89, 90, 91, 92, 93, 94, 95, 96, 97, 98, 99, 100, 101, 102, 103, 104, 105, 106, 107, 108, 109, 110, 111, 112, 113, 114, 115, 116, 117, 118, 119, 120, 121, 122, 123, 124, 125, 126, 127, 128, 129, 130, 131, 132, 133, 134, 135, 136, 137, 138, 139, 140, 141, 142, 143, 144, 145, 146, 147, 148, 149, 150, 151, 152, 153, 154, 155, 156, 157, 158, 159, 160, 161, 162, 163, 164, 165, 166, 167, 168, 169, 170, 171, 172, 173, 174, 175, 176, 177, 178, 179, 180, 181, 182, 183, 184, 185, 186, 187, 188, 189, 190, 191, 192, 193, 194, 195, 196, 197, 198, 199, 200, 201, 202, 203, 204, 205, 206, 207, 208, 209, 210, 211, 212, 213, 214, 215, 216, 217, 218, 219, 220, 221, 222, 223, 224, 225, 226, 227, 228, 229, 230, 231, 232, 233, 234, 235, 236, 237, 238, 239, 240, 241, 242, 243, 244, 245, 246, 247, 248, 249, 250, 251, 252, 253, 254, 255, 256, 257, 258, 259, 260, 261, 262, 263, 264, 265, 266, 267, 268, 269, 270, 271, 272, 273, 274, 275, 276, 277, 278, 279, 280, 281, 282, 283, 284, 285, 286, 287, 288, 289, 290, 291, 292, 293, 294, 295, 296, 297, 298, 299, 300, 301, 302, 303, 304, 305, 306, 307, 308, 309, 310, 311, 312, 313, 314, 315, 316, 317, 318, 319, 320, 321, 322, 323, 324, 325, 326, 327, 328, 329, 330, 331, 332, 333, 334, 335, 336, 337, 338, 339, 340, 341, 342, 343, 344, 345, 346, 347, 348, 349, 350, 351, 352, 353, 354, 355, 356, 357, 358, 359, 360, 361, 362, 363, 364, 365, 366, 367, 368, 369, 370, 371, 372, 373, 374, 375, 376, 377, 378, 379, 380, 381, 382, 383, 384, 385, 386, 387, 388, 389, 390, 391, 392, 393, 394, 395, 396, 397, 398, 399, 400, 401, 402, 403, 404, 405, 406, 407, 408, 409, 410, 411, 412, 413, 414, 415, 416, 417, 418, 419, 420, 421, 422, 423, 424, 425, 426, 427, 428, 429, 430, 431, 432, 433, 434, 435, 436, 437, 438, 439, 440, 441, 442, 443, 444, 445, 446, 447, 448, 449, 450, 451, 452, 453, 454],
      "AcquisitionTime": ["172751.707500", "172753.197500", "172754.687500", "172756.177500", "172757.667500", "172759.157500", "172800.647500", "172802.137500", "172803.627500", "172805.117500", "172806.607500", "172808.097500", "172809.587500", "172811.077500", "172812.567500", "172814.057500", "172815.547500", "172817.037500", "172818.527500", "172820.017500", "172821.507500", "172822.997500", "172824.487500", "172825.977500", "172827.467500", "172828.957500", "172830.447500", "172831.937500", "172833.427500", "172834.917500", "172836.407500", "172837.897500", "172839.387500", "172840.877500", "172842.367500", "172843.857500", "172845.347500", "172846.837500", "172848.327500", "172849.817500", "172851.307500", "172852.797500", "172854.287500", "172855.777500", "172857.267500", "172858.757500", "172900.247500", "172901.737500", "172903.227500", "172904.717500", "172906.207500", "172907.697500", "172909.187500", "172910.677500", "172912.167500", "172913.657500", "172915.147500", "172916.637500", "172918.127500", "172919.617500", "172921.107500", "172922.597500", "172924.087500", "172925.577500", "172927.067500", "172928.557500", "172930.047500", "172931.537500", "172933.027500", "172934.517500", "172936.007500", "172937.497500", "172938.987500", "172940.477500", "172941.967500", "172943.457500", "172944.947500", "172946.437500", "172947.927500", "172949.417500", "172950.907500", "172952.397500", "172953.887500", "172955.377500", "172956.867500", "172958.357500", "172959.847500", "173001.337500", "173002.827500", "173004.317500", "173005.807500", "173007.297500", "173008.787500", "173010.277500", "173011.767500", "173013.257500", "173014.747500", "173016.237500", "173017.727500", "173019.217500", "173020.707500", "173022.197500", "173023.687500", "173025.177500", "173026.667500", "173028.157500", "173029.647500", "173031.137500", "173032.627500", "173034.117500", "173035.607500", "173037.097500", "173038.587500", "173040.077500", "173041.567500", "173043.057500", "173044.547500", "173046.037500", "173047.527500", "173049.017500", "173050.507500", "173051.997500", "173053.487500", "173054.977500", "173056.467500", "173057.957500", "173059.447500", "173100.937500", "173102.427500", "173103.917500", "173105.407500", "173106.897500", "173108.387500", "173109.877500", "173111.367500", "173112.857500", "173114.347500", "173115.837500", "173117.327500", "173118.817500", "173120.307500", "173121.797500", "173123.287500", "173124.777500", "173126.267500", "173127.757500", "173129.247500", "173130.737500", "173132.227500", "173133.717500", "173135.207500", "173136.697500", "173138.187500", "173139.677500", "173141.167500", "173142.657500", "173144.147500", "173145.637500", "173147.127500", "173148.617500", "173150.107500", "173151.597500", "173153.087500", "173154.577500", "173156.067500", "173157.557500", "173159.047500", "173200.537500", "173202.027500", "173203.517500", "173205.007500", "173206.497500", "173207.987500", "173209.477500", "173210.967500", "173212.457500", "173213.947500", "173215.437500", "173216.927500", "173218.417500", "173219.907500", "173221.397500", "173222.887500", "173224.377500", "173225.867500", "173227.357500", "173228.847500", "173230.337500", "173231.827500", "173233.317500", "173234.807500", "173236.297500", "173237.787500", "173239.277500", "173240.767500", "173242.257500", "173243.747500", "173245.237500", "173246.727500", "173248.217500", "173249.707500", "173251.197500", "173252.687500", "173254.177500", "173255.667500", "173257.157500", "173258.647500", "173300.137500", "173301.627500", "173303.117500", "173304.607500", "173306.097500", "173307.587500", "173309.077500", "173310.567500", "173312.057500", "173313.547500", "173315.037500", "173316.527500", "173318.017500", "173319.507500", "173320.997500", "173322.487500", "173323.977500", "173325.467500", "173326.957500", "173328.447500", "173329.937500", "173331.427500", "173332.917500", "173334.407500", "173335.897500", "173337.387500", "173338.877500", "173340.367500", "173341.857500", "173343.347500", "173344.837500", "173346.327500", "173347.817500", "173349.307500", "173350.797500", "173352.287500", "173353.777500", "173355.267500", "173356.757500", "173358.247500", "173359.737500", "173401.227500", "173402.717500", "173404.207500", "173405.697500", "173407.187500", "173408.677500", "173410.167500", "173411.657500", "173413.147500", "173414.637500", "173416.127500", "173417.617500", "173419.107500", "173420.597500", "173422.087500", "173423.577500", "173425.067500", "173426.557500", "173428.047500", "173429.537500", "173431.027500", "173432.517500", "173434.007500", "173435.497500", "173436.987500", "173438.477500", "173439.967500", "173441.457500", "173442.947500", "173444.437500", "173445.927500", "173447.417500", "173448.907500", "173450.397500", "173451.887500", "173453.377500", "173454.867500", "173456.357500", "173457.847500", "173459.337500", "173500.827500", "173502.317500", "173503.807500", "173505.297500", "173506.787500", "173508.277500", "173509.767500", "173511.257500", "173512.747500", "173514.237500", "173515.727500", "173517.217500", "173518.707500", "173520.197500", "173521.687500", "173523.177500", "173524.667500", "173526.157500", "173527.647500", "173529.137500", "173530.627500", "173532.117500", "173533.607500", "173535.097500", "173536.587500", "173538.077500", "173539.567500", "173541.057500", "173542.547500", "173544.037500", "173545.527500", "173547.017500", "173548.507500", "173549.997500", "173551.487500", "173552.977500", "173554.467500", "173555.957500", "173557.447500", "173558.937500", "173600.427500", "173601.917500", "173603.407500", "173604.897500", "173606.387500", "173607.877500", "173609.367500", "173610.857500", "173612.347500", "173613.837500", "173615.327500", "173616.817500", "173618.307500", "173619.797500", "173621.287500", "173622.777500", "173624.267500", "173625.757500", "173627.247500", "173628.737500", "173630.227500", "173631.717500", "173633.207500", "173634.697500", "173636.187500", "173637.677500", "173639.167500", "173640.657500", "173642.147500", "173643.637500", "173645.127500", "173646.617500", "173648.107500", "173649.597500", "173651.087500", "173652.577500", "173654.067500", "173655.557500", "173657.047500", "173658.537500", "173700.027500", "173701.517500", "173703.007500", "173704.497500", "173705.987500", "173707.477500", "173708.967500", "173710.457500", "173711.947500", "173713.437500", "173714.927500", "173716.417500", "173717.907500", "173719.397500", "173720.887500", "173722.377500", "173723.867500", "173725.357500", "173726.847500", "173728.337500", "173729.827500", "173731.317500", "173732.807500", "173734.297500", "173735.787500", "173737.277500", "173738.767500", "173740.257500", "173741.747500", "173743.237500", "173744.727500", "173746.217500", "173747.707500", "173749.197500", "173750.687500", "173752.177500", "173753.667500", "173755.157500", "173756.647500", "173758.137500", "173759.627500", "173801.117500", "173802.607500", "173804.097500", "173805.587500", "173807.077500", "173808.567500", "173810.057500", "173811.547500", "173813.037500", "173814.527500", "173816.017500", "173817.507500", "173818.997500", "173820.487500", "173821.977500", "173823.467500", "173824.957500", "173826.447500", "173827.937500", "173829.427500", "173830.917500", "173832.407500", "173833.897500", "173835.387500", "173836.877500", "173838.367500", "173839.857500", "173841.347500", "173842.837500", "173844.327500", "173845.817500", "173847.307500", "173848.797500", "173850.287500", "173851.777500", "173853.267500", "173854.757500", "173856.247500", "173857.737500", "173859.227500", "173900.717500", "173902.207500", "173903.697500", "173905.187500", "173906.677500"],
      "ContentTime": ["172859.486000", "172859.490000", "172859.492000", "172859.495000", "172859.498000", "172859.501000", "172859.504000", "172859.507000", "172859.510000", "172859.513000", "172859.516000", "172859.519000", "172859.522000", "172859.530000", "172859.533000", "172859.540000", "172859.543000", "172859.546000", "172859.549000", "172859.552000", "172919.442000", "172919.445000", "172919.449000", "172919.451000", "172919.465000", "172919.468000", "172919.471000", "172919.474000", "172919.477000", "172919.488000", "172919.491000", "172919.494000", "172919.497000", "172919.499000", "172919.502000", "172919.514000", "172919.517000", "172919.520000", "172919.523000", "172919.526000", "172939.442000", "172939.445000", "172939.448000", "172939.451000", "172939.453000", "172939.456000", "172939.459000", "172939.462000", "172939.465000", "172939.468000", "172939.471000", "172939.474000", "172939.477000", "172939.480000", "172939.483000", "172939.486000", "172939.489000", "172939.492000", "172939.494000", "172939.497000", "172939.500000", "172959.442000", "172959.445000", "172959.448000", "172959.451000", "172959.459000", "172959.462000", "172959.465000", "172959.467000", "172959.470000", "172959.473000", "172959.476000", "172959.479000", "172959.482000", "172959.485000", "172959.488000", "172959.491000", "172959.498000", "172959.500000", "172959.503000", "172959.506000", "173039.442000", "173039.445000", "173039.448000", "173039.451000", "173039.454000", "173039.457000", "173039.460000", "173039.462000", "173039.465000", "173039.468000", "173039.471000", "173039.474000", "173039.477000", "173039.480000", "173039.483000", "173039.486000", "173039.489000", "173039.492000", "173039.495000", "173039.497000", "173039.500000", "173039.503000", "173039.506000", "173039.509000", "173039.512000", "173039.515000", "173039.518000", "173039.521000", "173039.524000", "173039.527000", "173039.529000", "173119.442000", "173119.445000", "173119.448000", "173119.451000", "173119.454000", "173119.457000", "173119.460000", "173119.463000", "173119.466000", "173119.469000", "173119.472000", "173119.475000", "173119.478000", "173119.481000", "173119.484000", "173119.487000", "173119.490000", "173119.493000", "173119.496000", "173119.499000", "173119.501000", "173119.504000", "173119.517000", "173119.520000", "173119.522000", "173119.525000", "173159.442000", "173159.445000", "173159.448000", "173159.451000", "173159.454000", "173159.457000", "173159.460000", "173159.463000", "173159.466000", "173159.469000", "173159.472000", "173159.475000", "173159.478000", "173159.481000", "173159.483000", "173159.486000", "173159.489000", "173159.492000", "173159.495000", "173159.498000", "173159.501000", "173159.504000", "173159.507000", "173159.510000", "173159.513000", "173159.516000", "173159.519000", "173239.442000", "173239.445000", "173239.448000", "173239.451000", "173239.454000", "173239.457000", "173239.460000", "173239.463000", "173239.466000", "173239.468000", "173239.471000", "173239.474000", "173239.477000", "173239.480000", "173239.483000", "173239.486000", "173239.489000", "173239.492000", "173239.495000", "173239.497000", "173239.500000", "173239.503000", "173239.516000", "173239.519000", "173239.521000", "173239.524000", "173239.527000", "173319.442000", "173319.445000", "173319.448000", "173319.451000", "173319.454000", "173319.457000", "173319.460000", "173319.463000", "173319.466000", "173319.469000", "173319.472000", "173319.474000", "173319.484000", "173319.487000", "173319.490000", "173319.497000", "173319.514000", "173319.517000", "173319.520000", "173319.523000", "173319.526000", "173319.529000", "173319.532000", "173319.535000", "173319.538000", "173319.541000", "173319.544000", "173359.442000", "173359.445000", "173359.448000", "173359.451000", "173359.454000", "173359.457000", "173359.460000", "173359.463000", "173359.466000", "173359.469000", "173359.471000", "173359.474000", "173359.477000", "173359.480000", "173359.483000", "173359.486000", "173359.489000", "173359.492000", "173359.495000", "173359.498000", "173359.501000", "173359.504000", "173359.507000", "173359.510000", "173359.513000", "173359.516000", "173359.518000", "173439.442000", "173439.445000", "173439.448000", "173439.451000", "173439.454000", "173439.457000", "173439.460000", "173439.463000", "173439.466000", "173439.468000", "173439.471000", "173439.474000", "173439.477000", "173439.480000", "173439.483000", "173439.486000", "173439.489000", "173439.492000", "173439.495000", "173439.498000", "173439.501000", "173439.504000", "173439.506000", "173439.509000", "173439.512000", "173439.515000", "173439.518000", "173519.442000", "173519.445000", "173519.448000", "173519.451000", "173519.454000", "173519.457000", "173519.460000", "173519.463000", "173519.466000", "173519.469000", "173519.472000", "173519.475000", "173519.478000", "173519.480000", "173519.483000", "173519.486000", "173519.489000", "173519.492000", "173519.502000", "173519.505000", "173519.508000", "173519.511000", "173519.514000", "173519.516000", "173519.519000", "173519.522000", "173519.525000", "173559.442000", "173559.445000", "173559.448000", "173559.451000", "173559.455000", "173559.458000", "173559.461000", "173559.464000", "173559.467000", "173559.470000", "173559.473000", "173559.476000", "173559.479000", "173559.482000", "173559.485000", "173559.488000", "173559.490000", "173559.493000", "173559.503000", "173559.506000", "173559.509000", "173559.512000", "173559.515000", "173559.518000", "173559.520000", "173559.523000", "173619.442000", "173619.445000", "173619.448000", "173619.451000", "173619.454000", "173619.457000", "173619.460000", "173619.463000", "173619.466000", "173619.469000", "173619.472000", "173619.475000", "173619.477000", "173619.480000", "173659.442000", "173659.445000", "173659.448000", "173659.451000", "173659.454000", "173659.457000", "173659.459000", "173659.462000", "173659.465000", "173659.468000", "173659.472000", "173659.474000", "173659.478000", "173659.480000", "173659.483000", "173659.486000", "173659.489000", "173659.492000", "173659.495000", "173659.498000", "173659.501000", "173659.504000", "173659.507000", "173659.510000", "173659.513000", "173659.516000", "173659.519000", "173739.442000", "173739.445000", "173739.448000", "173739.451000", "173739.454000", "173739.457000", "173739.460000", "173739.471000", "173739.474000", "173739.477000", "173739.480000", "173739.483000", "173739.486000", "173739.489000", "173739.492000", "173739.496000", "173739.499000", "173739.502000", "173739.505000", "173739.508000", "173739.511000", "173739.513000", "173739.516000", "173739.519000", "173739.522000", "173739.535000", "173739.538000", "173819.442000", "173819.445000", "173819.448000", "173819.451000", "173819.454000", "173819.457000", "173819.460000", "173819.463000", "173819.466000", "173819.469000", "173819.471000", "173819.474000", "173819.477000", "173819.480000", "173819.483000", "173819.486000", "173819.489000", "173819.492000", "173819.495000", "173819.498000", "173819.501000", "173819.504000", "173819.507000", "173819.510000", "173819.513000", "173819.516000", "173859.442000", "173859.445000", "173859.448000", "173859.451000", "173859.454000", "173859.457000", "173859.460000", "173859.463000", "173859.465000", "173859.468000", "173859.471000", "173859.474000", "173859.477000", "173859.480000", "173859.483000", "173859.486000", "173859.489000", "173859.492000", "173859.495000", "173859.498000", "173859.501000", "173859.503000", "173859.506000", "173859.509000", "173859.512000", "173859.515000", "173859.526000", "173908.851000", "173908.854000", "173908.857000", "173908.860000", "173908.863000", "173908.865000", "173908.868000"],
