{
  "AcquisitionMatrixPE": 104,
  "AcquisitionNumber": 1,
  "AcquisitionTime": "18:01:48.757500",
  "BandwidthPerPixelPhaseEncode": 17.17,
  "BaseResolution": 104,
  "BodyPartExamined": "BRAIN",
  "CoilString": "HC1-7;NC1_2",
  "ConsistencyInfo": "N4_VE11C_LATEST_20160120",
  "ConversionSoftware": "dcm2niix",
  "ConversionSoftwareVersion": "v1.0.20190902",
  "DerivedVendorReportedEchoSpacing": 0.000560011,
  "DeviceSerialNumber": "167006",
  "DwellTime": 2.1e-06,
  "EchoTime": 0.037,
  "EchoTrainLength": 104,
  "EffectiveEchoSpacing": 0.000560011,
  "FlipAngle": 52,
  "ImageComments": "Unaliased_MB4_PE3_LB",
  "ImageOrientationPatientDICOM": [0.999977, -0.00572834, -0.00374457, 0.00383961, 0.922531, -0.385905],
  "ImageType": [
    "ORIGINAL",
    "PRIMARY",
    "M",
    "MB",
    "ND",
    "MOSAIC"
],
  "ImagingFrequency": 123.259,
  "InPlanePhaseEncodingDirectionDICOM": "COL",
  "InstitutionAddress": "Chemin_Queen-Mary_4565_Montreal_District_CA_H3W_1W5",
  "InstitutionName": "IUGM",
  "InstitutionalDepartmentName": "Department",
  "MRAcquisitionType": "2D",
  "MagneticFieldStrength": 3,
  "Manufacturer": "Siemens",
  "ManufacturersModelName": "Prisma_fit",
  "Modality": "MR",
  "MultibandAccelerationFactor": 4,
  "PartialFourier": 1,
  "PatientPosition": "HFS",
  "PercentPhaseFOV": 100,
  "PhaseEncodingDirection": "j",
  "PhaseEncodingSteps": 104,
  "PhaseResolution": 1,
  "PixelBandwidth": 2290,
  "ProcedureStepDescription": "video_friends",
  "ProtocolName": "func_task-friends-s04e07a",
  "PulseSequenceDetails": "%CustomerSeq%_cmrr_mbep2d_bold",
  "ReceiveCoilActiveElements": "HC1-7;NC1,2",
  "ReceiveCoilName": "HeadNeck_64",
  "ReconMatrixPE": 104,
  "RepetitionTime": 1.49,
  "SAR": 0.0374169,
  "ScanOptions": "FS",
  "ScanningSequence": "EP",
  "SequenceName": "epfid2d1_104",
  "SequenceVariant": "SK_SS",
  "SeriesDescription": "func_task-friends-s04e07a",
  "SeriesNumber": 23,
  "ShimSetting": [619, -7289, -8815, 435, 10, -442, 59, 8],
  "SliceThickness": 2,
  "SliceTiming": [0, 0.785, 0.0975, 0.8825, 0.1975, 0.98, 0.295, 1.0775, 0.3925, 1.1775, 0.49, 1.275, 0.5875, 1.3725, 0.6875, 0, 0.785, 0.0975, 0.8825, 0.1975, 0.98, 0.295, 1.0775, 0.3925, 1.1775, 0.49, 1.275, 0.5875, 1.3725, 0.6875, 0, 0.785, 0.0975, 0.8825, 0.1975, 0.98, 0.295, 1.0775, 0.3925, 1.1775, 0.49, 1.275, 0.5875, 1.3725, 0.6875, 0, 0.785, 0.0975, 0.8825, 0.1975, 0.98, 0.295, 1.0775, 0.3925, 1.1775, 0.49, 1.275, 0.5875, 1.3725, 0.6875],
  "SoftwareVersions": "syngo_MR_E11",
  "SpacingBetweenSlices": 2,
  "StationName": "MRC35049",
  "TaskName": "s04e07a",
  "TotalReadoutTime": 0.0576811,
  "TxRefAmp": 240.684,
  "WipMemBlock": "afdac9a9-d22f-4cf5-ac92-6b2d4e257360||Sequence: R016 ve11c/master r/e634e98; Dec 19 2017 11:00:25 by eja",
  "dcmmeta_affine": [
    [-1.9999531507492065, 0.007679223082959652, -0.011330150067806244, 99.9322280883789],
    [0.011456680484116077, 1.8450613021850586, -0.7717627286911011, -68.67687225341797],
    [-0.007489141542464495, 0.7718095183372498, 1.8450621366500854, -62.02777862548828],
    [0.0, 0.0, 0.0, 1.0]
],
  "dcmmeta_reorient_transform": [
    [0.0, -1.0, 0.0, 103.0],
    [1.0, 0.0, 0.0, 0.0],
    [0.0, 0.0, 1.0, 0.0],
    [0.0, 0.0, 0.0, 1.0]
],
  "dcmmeta_shape": [104, 104, 60, 497],
  "dcmmeta_slice_dim": 2,
  "dcmmeta_version": 0.6,
  "global": {
    "const": {
      "AcquisitionMatrix": [104, 0, 0, 104],
      "AngioFlag": "N",
      "BitsAllocated": 16,
      "BitsStored": 16,
      "BodyPartExamined": "BRAIN",
      "Columns": 832,
      "EchoNumbers": 1,
      "EchoTime": 37.0,
      "EchoTrainLength": 104,
      "FlipAngle": 52.0,
      "HighBit": 15,
      "ImageOrientationPatient": [0.99997658188035, -0.0057283401726, -0.0037445707037, 0.0038396115486, 0.92253063494216, -0.3859047615363],
      "ImagePositionPatient": [-831.50137355392, -788.79650944663, 301.13331469041],
      "ImageType": [
        "ORIGINAL",
        "PRIMARY",
        "M",
        "MB",
        "ND",
        "MOSAIC"
],
      "ImagedNucleus": "1H",
      "ImagingFrequency": 123.258945,
      "InPlanePhaseEncodingDirection": "COL",
      "MRAcquisitionType": "2D",
      "MagneticFieldStrength": 3.0,
      "Manufacturer": "SIEMENS",
      "ManufacturerModelName": "Prisma_fit",
      "Modality": "MR",
      "NumberOfAverages": 1.0,
      "NumberOfPhaseEncodingSteps": 104,
      "PercentPhaseFieldOfView": 100.0,
      "PercentSampling": 100.0,
      "PerformedProcedureStepStartTime": "164603.076000",
      "PhotometricInterpretation": "MONOCHROME2",
      "PixelBandwidth": 2290.0,
      "PixelRepresentation": 0,
      "PixelSpacing": [2.0, 2.0],
      "ProtocolName": "func_task-friends-s04e07a",
      "RepetitionTime": 1490.0,
      "Rows": 832,
      "SAR": 0.03741689912545,
      "SamplesPerPixel": 1,
      "ScanOptions": "FS",
      "ScanningSequence": "EP",
      "SequenceName": "epfid2d1_104",
      "SequenceVariant": [
        "SK",
        "SS"
],
      "SeriesDescription": "func_task-friends-s04e07a",
      "SeriesNumber": 23,
      "SeriesTime": "180322.593000",
      "SliceLocation": -31.287551262939,
      "SliceThickness": 2.0,
      "SmallestImagePixelValue": 0,
      "SoftwareVersions": "syngo MR E11",
      "SpacingBetweenSlices": 2.0000000370809,
      "SpecificCharacterSet": "ISO_IR 100",
      "StudyID": "1",
      "StudyTime": "164603.012000",
      "TransmitCoilName": "Body",
      "VariableFlipAngleFlag": "N",
      "WindowCenterWidthExplanation": "Algo1",
      "dBdt": 0.0},
    "slices": {}
  },
  "time": {
    "samples": {
      "AcquisitionNumber": [1, 2, 3, 4, 5, 6, 7, 8, 9, 10, 11, 12, 13, 14, 15, 16, 17, 18, 19, 20, 21, 22, 23, 24, 25, 26, 27, 28, 29, 30, 31, 32, 33, 34, 35, 36, 37, 38, 39, 40, 41, 42, 43, 44, 45, 46, 47, 48, 49, 50, 51, 52, 53, 54, 55, 56, 57, 58, 59, 60, 61, 62, 63, 64, 65, 66, 67, 68, 69, 70, 71, 72, 73, 74, 75, 76, 77, 78, 79, 80, 81, 82, 83, 84, 85, 86, 87, 88, 89, 90, 91, 92, 93, 94, 95, 96, 97, 98, 99, 100, 101, 102, 103, 104, 105, 106, 107, 108, 109, 110, 111, 112, 113, 114, 115, 116, 117, 118, 119, 120, 121, 122, 123, 124, 125, 126, 127, 128, 129, 130, 131, 132, 133, 134, 135, 136, 137, 138, 139, 140, 141, 142, 143, 144, 145, 146, 147, 148, 149, 150, 151, 152, 153, 154, 155, 156, 157, 158, 159, 160, 161, 162, 163, 164, 165, 166, 167, 168, 169, 170, 171, 172, 173, 174, 175, 176, 177, 178, 179, 180, 181, 182, 183, 184, 185, 186, 187, 188, 189, 190, 191, 192, 193, 194, 195, 196, 197, 198, 199, 200, 201, 202, 203, 204, 205, 206, 207, 208, 209, 210, 211, 212, 213, 214, 215, 216, 217, 218, 219, 220, 221, 222, 223, 224, 225, 226, 227, 228, 229, 230, 231, 232, 233, 234, 235, 236, 237, 238, 239, 240, 241, 242, 243, 244, 245, 246, 247, 248, 249, 250, 251, 252, 253, 254, 255, 256, 257, 258, 259, 260, 261, 262, 263, 264, 265, 266, 267, 268, 269, 270, 271, 272, 273, 274, 275, 276, 277, 278, 279, 280, 281, 282, 283, 284, 285, 286, 287, 288, 289, 290, 291, 292, 293, 294, 295, 296, 297, 298, 299, 300, 301, 302, 303, 304, 305, 306, 307, 308, 309, 310, 311, 312, 313, 314, 315, 316, 317, 318, 319, 320, 321, 322, 323, 324, 325, 326, 327, 328, 329, 330, 331, 332, 333, 334, 335, 336, 337, 338, 339, 340, 341, 342, 343, 344, 345, 346, 347, 348, 349, 350, 351, 352, 353, 354, 355, 356, 357, 358, 359, 360, 361, 362, 363, 364, 365, 366, 367, 368, 369, 370, 371, 372, 373, 374, 375, 376, 377, 378, 379, 380, 381, 382, 383, 384, 385, 386, 387, 388, 389, 390, 391, 392, 393, 394, 395, 396, 397, 398, 399, 400, 401, 402, 403, 404, 405, 406, 407, 408, 409, 410, 411, 412, 413, 414, 415, 416, 417, 418, 419, 420, 421, 422, 423, 424, 425, 426, 427, 428, 429, 430, 431, 432, 433, 434, 435, 436, 437, 438, 439, 440, 441, 442, 443, 444, 445, 446, 447, 448, 449, 450, 451, 452, 453, 454, 455, 456, 457, 458, 459, 460, 461, 462, 463, 464, 465, 466, 467, 468, 469, 470, 471, 472, 473, 474, 475, 476, 477, 478, 479, 480, 481, 482, 483, 484, 485, 486, 487, 488, 489, 490, 491, 492, 493, 494, 495, 496, 497],
      "AcquisitionTime": ["180148.757500", "180150.247500", "180151.737500", "180153.227500", "180154.717500", "180156.207500", "180157.697500", "180159.187500", "180200.677500", "180202.167500", "180203.657500", "180205.147500", "180206.637500", "180208.127500", "180209.617500", "180211.107500", "180212.597500", "180214.087500", "180215.577500", "180217.067500", "180218.557500", "180220.047500", "180221.537500", "180223.027500", "180224.517500", "180226.007500", "180227.497500", "180228.987500", "180230.477500", "180231.967500", "180233.457500", "180234.947500", "180236.437500", "180237.927500", "180239.417500", "180240.907500", "180242.397500", "180243.887500", "180245.377500", "180246.867500", "180248.357500", "180249.847500", "180251.337500", "180252.827500", "180254.317500", "180255.807500", "180257.297500", "180258.787500", "180300.277500", "180301.767500", "180303.257500", "180304.747500", "180306.237500", "180307.727500", "180309.217500", "180310.707500", "180312.197500", "180313.687500", "180315.177500", "180316.667500", "180318.157500", "180319.647500", "180321.137500", "180322.627500", "180324.117500", "180325.607500", "180327.097500", "180328.587500", "180330.077500", "180331.567500", "180333.057500", "180334.547500", "180336.037500", "180337.527500", "180339.017500", "180340.507500", "180341.997500", "180343.487500", "180344.977500", "180346.467500", "180347.957500", "180349.447500", "180350.937500", "180352.427500", "180353.917500", "180355.407500", "180356.897500", "180358.387500", "180359.877500", "180401.367500", "180402.857500", "180404.347500", "180405.837500", "180407.327500", "180408.817500", "180410.307500", "180411.797500", "180413.287500", "180414.777500", "180416.267500", "180417.757500", "180419.247500", "180420.737500", "180422.227500", "180423.717500", "180425.207500", "180426.697500", "180428.187500", "180429.677500", "180431.167500", "180432.657500", "180434.147500", "180435.637500", "180437.127500", "180438.617500", "180440.107500", "180441.597500", "180443.087500", "180444.577500", "180446.067500", "180447.557500", "180449.047500", "180450.537500", "180452.027500", "180453.517500", "180455.007500", "180456.497500", "180457.987500", "180459.477500", "180500.967500", "180502.457500", "180503.947500", "180505.437500", "180506.927500", "180508.417500", "180509.907500", "180511.397500", "180512.887500", "180514.377500", "180515.867500", "180517.357500", "180518.847500", "180520.337500", "180521.827500", "180523.317500", "180524.807500", "180526.297500", "180527.787500", "180529.277500", "180530.767500", "180532.257500", "180533.747500", "180535.237500", "180536.727500", "180538.217500", "180539.707500", "180541.197500", "180542.687500", "180544.177500", "180545.667500", "180547.157500", "180548.647500", "180550.137500", "180551.627500", "180553.117500", "180554.607500", "180556.097500", "180557.587500", "180559.077500", "180600.567500", "180602.057500", "180603.547500", "180605.037500", "180606.527500", "180608.017500", "180609.507500", "180610.997500", "180612.487500", "180613.977500", "180615.467500", "180616.957500", "180618.447500", "180619.937500", "180621.427500", "180622.917500", "180624.407500", "180625.897500", "180627.387500", "180628.877500", "180630.367500", "180631.857500", "180633.347500", "180634.837500", "180636.327500", "180637.817500", "180639.307500", "180640.797500", "180642.287500", "180643.777500", "180645.267500", "180646.757500", "180648.247500", "180649.737500", "180651.227500", "180652.717500", "180654.207500", "180655.697500", "180657.187500", "180658.677500", "180700.167500", "180701.657500", "180703.147500", "180704.637500", "180706.127500", "180707.617500", "180709.107500", "180710.597500", "180712.087500", "180713.577500", "180715.067500", "180716.557500", "180718.047500", "180719.537500", "180721.027500", "180722.517500", "180724.007500", "180725.497500", "180726.987500", "180728.477500", "180729.967500", "180731.457500", "180732.947500", "180734.437500", "180735.927500", "180737.417500", "180738.907500", "180740.397500", "180741.887500", "180743.377500", "180744.867500", "180746.357500", "180747.847500", "180749.337500", "180750.827500", "180752.317500", "180753.807500", "180755.297500", "180756.787500", "180758.277500", "180759.767500", "180801.257500", "180802.747500", "180804.237500", "180805.727500", "180807.217500", "180808.707500", "180810.197500", "180811.687500", "180813.177500", "180814.667500", "180816.157500", "180817.647500", "180819.137500", "180820.627500", "180822.117500", "180823.607500", "180825.097500", "180826.587500", "180828.077500", "180829.567500", "180831.057500", "180832.547500", "180834.037500", "180835.527500", "180837.017500", "180838.507500", "180839.997500", "180841.487500", "180842.977500", "180844.467500", "180845.957500", "180847.447500", "180848.937500", "180850.427500", "180851.917500", "180853.407500", "180854.897500", "180856.387500", "180857.877500", "180859.367500", "180900.857500", "180902.347500", "180903.837500", "180905.327500", "180906.817500", "180908.307500", "180909.797500", "180911.287500", "180912.777500", "180914.267500", "180915.757500", "180917.247500", "180918.737500", "180920.227500", "180921.717500", "180923.207500", "180924.697500", "180926.187500", "180927.677500", "180929.167500", "180930.657500", "180932.147500", "180933.637500", "180935.127500", "180936.617500", "180938.107500", "180939.597500", "180941.087500", "180942.577500", "180944.067500", "180945.557500", "180947.047500", "180948.537500", "180950.027500", "180951.517500", "180953.007500", "180954.497500", "180955.987500", "180957.477500", "180958.967500", "181000.457500", "181001.947500", "181003.437500", "181004.927500", "181006.417500", "181007.907500", "181009.397500", "181010.887500", "181012.377500", "181013.867500", "181015.357500", "181016.847500", "181018.337500", "181019.827500", "181021.317500", "181022.807500", "181024.297500", "181025.787500", "181027.277500", "181028.767500", "181030.257500", "181031.747500", "181033.237500", "181034.727500", "181036.217500", "181037.707500", "181039.197500", "181040.687500", "181042.177500", "181043.667500", "181045.157500", "181046.647500", "181048.137500", "181049.627500", "181051.117500", "181052.607500", "181054.097500", "181055.587500", "181057.077500", "181058.567500", "181100.057500", "181101.547500", "181103.037500", "181104.527500", "181106.017500", "181107.507500", "181108.997500", "181110.487500", "181111.977500", "181113.467500", "181114.957500", "181116.447500", "181117.937500", "181119.427500", "181120.917500", "181122.407500", "181123.897500", "181125.387500", "181126.877500", "181128.367500", "181129.857500", "181131.347500", "181132.837500", "181134.327500", "181135.817500", "181137.307500", "181138.797500", "181140.287500", "181141.777500", "181143.267500", "181144.757500", "181146.247500", "181147.737500", "181149.227500", "181150.717500", "181152.207500", "181153.697500", "181155.187500", "181156.677500", "181158.167500", "181159.657500", "181201.147500", "181202.637500", "181204.127500", "181205.617500", "181207.107500", "181208.597500", "181210.087500", "181211.577500", "181213.067500", "181214.557500", "181216.047500", "181217.537500", "181219.027500", "181220.517500", "181222.007500", "181223.497500", "181224.987500", "181226.477500", "181227.967500", "181229.457500", "181230.947500", "181232.437500", "181233.927500", "181235.417500", "181236.907500", "181238.397500", "181239.887500", "181241.377500", "181242.867500", "181244.357500", "181245.847500", "181247.337500", "181248.827500", "181250.317500", "181251.807500", "181253.297500", "181254.787500", "181256.277500", "181257.767500", "181259.257500", "181300.747500", "181302.237500", "181303.727500", "181305.217500", "181306.707500", "181308.197500", "181309.687500", "181311.177500", "181312.667500", "181314.157500", "181315.647500", "181317.137500", "181318.627500", "181320.117500", "181321.607500", "181323.097500", "181324.587500", "181326.077500", "181327.567500", "181329.057500", "181330.547500", "181332.037500", "181333.527500", "181335.017500", "181336.507500", "181337.997500", "181339.487500", "181340.977500", "181342.467500", "181343.957500", "181345.447500", "181346.937500", "181348.427500", "181349.917500", "181351.407500", "181352.897500", "181354.387500", "181355.877500", "181357.367500", "181358.857500", "181400.347500", "181401.837500", "181403.327500", "181404.817500", "181406.307500", "181407.797500"],
      "ContentTime": ["180322.597000", "180322.600000", "180322.603000", "180322.606000", "180322.609000", "180322.612000", "180322.615000", "180322.618000", "180322.621000", "180322.632000", "180322.635000", "180322.638000", "180322.641000", "180322.644000", "180322.647000", "180322.650000", "180322.653000", "180322.657000", "180322.660000", "180322.663000", "180322.666000", "180322.673000", "180322.676000", "180322.679000", "180322.682000", "180322.685000", "180322.688000", "180322.691000", "180322.694000", "180322.697000", "180322.700000", "180322.703000", "180322.706000", "180322.708000", "180322.711000", "180322.714000", "180322.717000", "180322.720000", "180342.559000", "180342.562000", "180342.565000", "180342.568000", "180342.571000", "180342.574000", "180342.577000", "180342.580000", "180342.582000", "180342.585000", "180342.588000", "180342.597000", "180342.600000", "180342.603000", "180342.606000", "180342.609000", "180342.612000", "180342.615000", "180342.617000", "180342.620000", "180342.627000", "180402.559000", "180402.562000", "180402.565000", "180402.568000", "180402.571000", "180402.574000", "180402.576000", "180402.580000", "180402.582000", "180402.585000", "180402.588000", "180402.591000", "180402.594000", "180402.597000", "180402.600000", "180402.603000", "180402.606000", "180402.609000", "180402.612000", "180402.614000", "180422.559000", "180422.562000", "180422.565000", "180422.568000", "180422.571000", "180422.573000", "180422.576000", "180422.579000", "180422.582000", "180422.585000", "180422.588000", "180422.591000", "180422.594000", "180422.597000", "180422.600000", "180422.603000", "180422.606000", "180422.609000", "180422.611000", "180422.614000", "180502.559000", "180502.562000", "180502.565000", "180502.568000", "180502.571000", "180502.574000", "180502.576000", "180502.579000", "180502.582000", "180502.585000", "180502.588000", "180502.591000", "180502.594000", "180502.597000", "180502.600000", "180502.603000", "180502.606000", "180502.609000", "180502.612000", "180502.614000", "180502.617000", "180502.620000", "180502.623000", "180502.626000", "180502.629000", "180502.632000", "180502.635000", "180502.638000", "180502.641000", "180502.643000", "180542.559000", "180542.562000", "180542.565000", "180542.568000", "180542.571000", "180542.574000", "180542.577000", "180542.580000", "180542.583000", "180542.586000", "180542.588000", "180542.591000", "180542.594000", "180542.597000", "180542.600000", "180542.603000", "180542.606000", "180542.609000", "180542.612000", "180542.615000", "180542.618000", "180542.621000", "180542.623000", "180542.626000", "180542.629000", "180542.632000", "180542.635000", "180602.559000", "180602.562000", "180602.565000", "180602.568000", "180602.571000", "180602.574000", "180602.577000", "180602.580000", "180602.583000", "180602.585000", "180602.588000", "180602.591000", "180602.594000", "180642.559000", "180642.562000", "180642.565000", "180642.568000", "180642.571000", "180642.574000", "180642.577000", "180642.580000", "180642.583000", "180642.586000", "180642.589000", "180642.592000", "180642.595000", "180642.597000", "180642.600000", "180642.603000", "180642.606000", "180642.609000", "180642.612000", "180642.615000", "180642.618000", "180642.621000", "180642.624000", "180642.627000", "180642.630000", "180642.633000", "180642.636000", "180722.559000", "180722.562000", "180722.565000", "180722.568000", "180722.584000", "180722.587000", "180722.590000", "180722.593000", "180722.596000", "180722.598000", "180722.601000", "180722.604000", "180722.607000", "180722.610000", "180722.613000", "180722.616000", "180722.619000", "180722.622000", "180722.625000", "180722.628000", "180722.631000", "180722.634000", "180722.637000", "180722.640000", "180722.642000", "180722.645000", "180722.648000", "180802.559000", "180802.562000", "180802.565000", "180802.568000", "180802.571000", "180802.574000", "180802.577000", "180802.580000", "180802.583000", "180802.585000", "180802.588000", "180802.591000", "180802.612000", "180802.615000", "180802.618000", "180802.621000", "180802.624000", "180802.627000", "180802.630000", "180802.633000", "180802.636000", "180802.639000", "180802.641000", "180802.644000", "180802.647000", "180802.650000", "180802.653000", "180842.559000", "180842.562000", "180842.565000", "180842.568000", "180842.571000", "180842.574000", "180842.577000", "180842.580000", "180842.583000", "180842.586000", "180842.589000", "180842.591000", "180842.594000", "180842.597000", "180842.600000", "180842.603000", "180842.606000", "180842.609000", "180842.612000", "180842.615000", "180842.618000", "180842.621000", "180842.624000", "180842.627000", "180842.630000", "180842.632000", "180842.635000", "180922.559000", "180922.562000", "180922.565000", "180922.568000", "180922.571000", "180922.574000", "180922.577000", "180922.580000", "180922.583000", "180922.586000", "180922.588000", "180922.591000", "180922.594000", "180922.597000", "180922.600000", "180922.603000", "180922.606000", "180922.609000", "180922.612000", "180922.615000", "180922.618000", "180922.621000", "180922.624000", "180922.627000", "180922.630000", "180922.633000", "180922.635000", "181002.559000", "181002.562000", "181002.565000", "181002.568000", "181002.571000", "181002.574000", "181002.577000", "181002.580000", "181002.583000", "181002.586000", "181002.589000", "181002.592000", "181002.594000", "181002.597000", "181002.600000", "181002.603000", "181002.606000", "181002.609000", "181002.612000", "181002.615000", "181002.618000", "181002.621000", "181002.624000", "181002.627000", "181002.630000", "181002.633000", "181002.636000", "181042.559000", "181042.562000", "181042.565000", "181042.568000", "181042.571000", "181042.574000", "181042.577000", "181042.580000", "181042.583000", "181042.585000", "181042.588000", "181042.591000", "181042.594000", "181042.597000", "181042.600000", "181042.603000", "181042.606000", "181042.609000", "181042.612000", "181042.616000", "181042.620000", "181042.623000", "181042.625000", "181042.628000", "181042.631000", "181042.634000", "181122.559000", "181122.562000", "181122.565000", "181122.568000", "181122.571000", "181122.574000", "181122.577000", "181122.580000", "181122.583000", "181122.586000", "181122.589000", "181122.592000", "181122.595000", "181122.598000", "181122.600000", "181122.603000", "181122.606000", "181122.609000", "181122.612000", "181122.615000", "181122.618000", "181122.621000", "181122.624000", "181122.627000", "181122.630000", "181122.633000", "181122.636000", "181202.559000", "181202.562000", "181202.565000", "181202.568000", "181202.571000", "181202.574000", "181202.577000", "181202.580000", "181202.583000", "181202.586000", "181202.589000", "181202.591000", "181202.594000", "181202.597000", "181202.600000", "181202.603000", "181202.606000", "181202.609000", "181202.612000", "181202.615000", "181202.618000", "181202.621000", "181202.624000", "181202.626000", "181202.633000", "181202.636000", "181202.639000", "181242.559000", "181242.562000", "181242.565000", "181242.568000", "181242.571000", "181242.574000", "181242.577000", "181242.579000", "181242.582000", "181242.585000", "181242.588000", "181242.591000", "181242.594000", "181242.597000", "181242.600000", "181242.603000", "181242.606000", "181242.609000", "181242.612000", "181242.615000", "181242.618000", "181242.621000", "181242.624000", "181242.627000", "181242.629000", "181242.632000", "181242.635000", "181322.559000", "181322.562000", "181322.565000", "181322.568000", "181322.571000", "181322.574000", "181322.577000", "181322.580000", "181322.583000", "181322.586000", "181322.589000", "181322.592000", "181322.595000", "181322.598000", "181322.600000", "181322.603000", "181322.606000", "181322.609000", "181322.612000", "181322.615000", "181322.618000", "181322.621000", "181322.624000", "181322.627000", "181322.630000", "181322.633000", "181322.636000", "181402.559000", "181402.562000", "181402.565000", "181402.568000", "181402.571000", "181402.574000", "181402.577000", "181402.580000", "181402.583000", "181402.586000", "181402.589000", "181402.591000", "181402.594000", "181402.597000", "181402.600000", "181402.603000", "181402.606000", "181402.610000", "181402.613000", "181402.615000", "181402.618000", "181402.621000", "181402.624000", "181402.627000", "181402.630000", "181402.633000", "181402.636000", "181409.913000", "181409.916000", "181409.919000", "181409.922000", "181409.925000"],
