{
  "AcquisitionMatrixPE": 104,
  "AcquisitionNumber": 1,
  "AcquisitionTime": "17:37:51.877500",
  "BandwidthPerPixelPhaseEncode": 17.17,
  "BaseResolution": 104,
  "BodyPartExamined": "BRAIN",
  "CoilString": "HC1-7;NC1_2",
  "ConsistencyInfo": "N4_VE11C_LATEST_20160120",
  "ConversionSoftware": "dcm2niix",
  "ConversionSoftwareVersion": "v1.0.20190902",
  "DerivedVendorReportedEchoSpacing": 0.000560011,
  "DeviceSerialNumber": "167006",
  "DwellTime": 2.1e-06,
  "EchoTime": 0.037,
  "EchoTrainLength": 104,
  "EffectiveEchoSpacing": 0.000560011,
  "FlipAngle": 52,
  "ImageComments": "Unaliased_MB4_PE3_LB",
  "ImageOrientationPatientDICOM": [0.999977, -0.00572834, -0.00374457, 0.00383961, 0.922531, -0.385905],
  "ImageType": [
    "ORIGINAL",
    "PRIMARY",
    "M",
    "MB",
    "ND",
    "MOSAIC"
],
  "ImagingFrequency": 123.259,
  "InPlanePhaseEncodingDirectionDICOM": "COL",
  "InstitutionAddress": "Chemin_Queen-Mary_4565_Montreal_District_CA_H3W_1W5",
  "InstitutionName": "IUGM",
  "InstitutionalDepartmentName": "Department",
  "MRAcquisitionType": "2D",
  "MagneticFieldStrength": 3,
  "Manufacturer": "Siemens",
  "ManufacturersModelName": "Prisma_fit",
  "Modality": "MR",
  "MultibandAccelerationFactor": 4,
  "PartialFourier": 1,
  "PatientPosition": "HFS",
  "PercentPhaseFOV": 100,
  "PhaseEncodingDirection": "j",
  "PhaseEncodingSteps": 104,
  "PhaseResolution": 1,
  "PixelBandwidth": 2290,
  "ProcedureStepDescription": "video_friends",
  "ProtocolName": "func_task-friends-s04e06a",
  "PulseSequenceDetails": "%CustomerSeq%_cmrr_mbep2d_bold",
  "ReceiveCoilActiveElements": "HC1-7;NC1,2",
  "ReceiveCoilName": "HeadNeck_64",
  "ReconMatrixPE": 104,
  "RepetitionTime": 1.49,
  "SAR": 0.0374067,
  "ScanOptions": "FS",
  "ScanningSequence": "EP",
  "SequenceName": "epfid2d1_104",
  "SequenceVariant": "SK_SS",
  "SeriesDescription": "func_task-friends-s04e06a",
  "SeriesNumber": 19,
  "ShimSetting": [619, -7289, -8815, 435, 10, -442, 59, 8],
  "SliceThickness": 2,
  "SliceTiming": [0, 0.785, 0.0975, 0.8825, 0.1975, 0.98, 0.295, 1.0775, 0.3925, 1.175, 0.49, 1.275, 0.5875, 1.3725, 0.685, 0, 0.785, 0.0975, 0.8825, 0.1975, 0.98, 0.295, 1.0775, 0.3925, 1.175, 0.49, 1.275, 0.5875, 1.3725, 0.685, 0, 0.785, 0.0975, 0.8825, 0.1975, 0.98, 0.295, 1.0775, 0.3925, 1.175, 0.49, 1.275, 0.5875, 1.3725, 0.685, 0, 0.785, 0.0975, 0.8825, 0.1975, 0.98, 0.295, 1.0775, 0.3925, 1.175, 0.49, 1.275, 0.5875, 1.3725, 0.685],
  "SoftwareVersions": "syngo_MR_E11",
  "SpacingBetweenSlices": 2,
  "StationName": "MRC35049",
  "TaskName": "s04e06a",
  "TotalReadoutTime": 0.0576811,
  "TxRefAmp": 240.684,
  "WipMemBlock": "635ea485-4352-4c14-9e71-3bd345c4d33a||Sequence: R016 ve11c/master r/e634e98; Dec 19 2017 11:00:25 by eja",
  "dcmmeta_affine": [
    [-1.9999531507492065, 0.007679223082959652, -0.011330150067806244, 99.9322280883789],
    [0.011456680484116077, 1.8450613021850586, -0.7717627286911011, -68.67687225341797],
    [-0.007489141542464495, 0.7718095183372498, 1.8450621366500854, -62.02777862548828],
    [0.0, 0.0, 0.0, 1.0]
],
  "dcmmeta_reorient_transform": [
    [0.0, -1.0, 0.0, 103.0],
    [1.0, 0.0, 0.0, 0.0],
    [0.0, 0.0, 1.0, 0.0],
    [0.0, 0.0, 0.0, 1.0]
],
  "dcmmeta_shape": [104, 104, 60, 465],
  "dcmmeta_slice_dim": 2,
  "dcmmeta_version": 0.6,
  "global": {
    "const": {
      "AcquisitionMatrix": [104, 0, 0, 104],
      "AngioFlag": "N",
      "BitsAllocated": 16,
      "BitsStored": 16,
      "BodyPartExamined": "BRAIN",
      "Columns": 832,
      "EchoNumbers": 1,
      "EchoTime": 37.0,
      "EchoTrainLength": 104,
      "FlipAngle": 52.0,
      "HighBit": 15,
      "ImageOrientationPatient": [0.99997658188035, -0.0057283401726, -0.0037445707037, 0.0038396115486, 0.92253063494216, -0.3859047615363],
      "ImagePositionPatient": [-831.50137355392, -788.79650944663, 301.13331469041],
      "ImageType": [
        "ORIGINAL",
        "PRIMARY",
        "M",
        "MB",
        "ND",
        "MOSAIC"
],
      "ImagedNucleus": "1H",
      "ImagingFrequency": 123.258942,
      "InPlanePhaseEncodingDirection": "COL",
      "MRAcquisitionType": "2D",
      "MagneticFieldStrength": 3.0,
      "Manufacturer": "SIEMENS",
      "ManufacturerModelName": "Prisma_fit",
      "Modality": "MR",
      "NumberOfAverages": 1.0,
      "NumberOfPhaseEncodingSteps": 104,
      "PercentPhaseFieldOfView": 100.0,
      "PercentSampling": 100.0,
      "PerformedProcedureStepStartTime": "164603.076000",
      "PhotometricInterpretation": "MONOCHROME2",
      "PixelBandwidth": 2290.0,
      "PixelRepresentation": 0,
      "PixelSpacing": [2.0, 2.0],
      "ProtocolName": "func_task-friends-s04e06a",
      "RepetitionTime": 1490.0,
      "Rows": 832,
      "SAR": 0.03740665642164,
      "SamplesPerPixel": 1,
      "ScanOptions": "FS",
      "ScanningSequence": "EP",
      "SequenceName": "epfid2d1_104",
      "SequenceVariant": [
        "SK",
        "SS"
],
      "SeriesDescription": "func_task-friends-s04e06a",
      "SeriesNumber": 19,
      "SeriesTime": "173910.627000",
      "SliceLocation": -31.287551262939,
      "SliceThickness": 2.0,
      "SmallestImagePixelValue": 0,
      "SoftwareVersions": "syngo MR E11",
      "SpacingBetweenSlices": 2.0000000370809,
      "SpecificCharacterSet": "ISO_IR 100",
      "StudyID": "1",
      "StudyTime": "164603.012000",
      "TransmitCoilName": "Body",
      "VariableFlipAngleFlag": "N",
      "WindowCenterWidthExplanation": "Algo1",
      "dBdt": 0.0},
    "slices": {}
  },
  "time": {
    "samples": {
      "AcquisitionNumber": [1, 2, 3, 4, 5, 6, 7, 8, 9, 10, 11, 12, 13, 14, 15, 16, 17, 18, 19, 20, 21, 22, 23, 24, 25, 26, 27, 28, 29, 30, 31, 32, 33, 34, 35, 36, 37, 38, 39, 40, 41, 42, 43, 44, 45, 46, 47, 48, 49, 50, 51, 52, 53, 54, 55, 56, 57, 58, 59, 60, 61, 62, 63, 64, 65, 66, 67, 68, 69, 70, 71, 72, 73, 74, 75, 76, 77, 78, 79, 80, 81, 82, 83, 84, 85, 86, 87, 88, 89, 90, 91, 92, 93, 94, 95, 96, 97, 98, 99, 100, 101, 102, 103, 104, 105, 106, 107, 108, 109, 110, 111, 112, 113, 114, 115, 116, 117, 118, 119, 120, 121, 122, 123, 124, 125, 126, 127, 128, 129, 130, 131, 132, 133, 134, 135, 136, 137, 138, 139, 140, 141, 142, 143, 144, 145, 146, 147, 148, 149, 150, 151, 152, 153, 154, 155, 156, 157, 158, 159, 160, 161, 162, 163, 164, 165, 166, 167, 168, 169, 170, 171, 172, 173, 174, 175, 176, 177, 178, 179, 180, 181, 182, 183, 184, 185, 186, 187, 188, 189, 190, 191, 192, 193, 194, 195, 196, 197, 198, 199, 200, 201, 202, 203, 204, 205, 206, 207, 208, 209, 210, 211, 212, 213, 214, 215, 216, 217, 218, 219, 220, 221, 222, 223, 224, 225, 226, 227, 228, 229, 230, 231, 232, 233, 234, 235, 236, 237, 238, 239, 240, 241, 242, 243, 244, 245, 246, 247, 248, 249, 250, 251, 252, 253, 254, 255, 256, 257, 258, 259, 260, 261, 262, 263, 264, 265, 266, 267, 268, 269, 270, 271, 272, 273, 274, 275, 276, 277, 278, 279, 280, 281, 282, 283, 284, 285, 286, 287, 288, 289, 290, 291, 292, 293, 294, 295, 296, 297, 298, 299, 300, 301, 302, 303, 304, 305, 306, 307, 308, 309, 310, 311, 312, 313, 314, 315, 316, 317, 318, 319, 320, 321, 322, 323, 324, 325, 326, 327, 328, 329, 330, 331, 332, 333, 334, 335, 336, 337, 338, 339, 340, 341, 342, 343, 344, 345, 346, 347, 348, 349, 350, 351, 352, 353, 354, 355, 356, 357, 358, 359, 360, 361, 362, 363, 364, 365, 366, 367, 368, 369, 370, 371, 372, 373, 374, 375, 376, 377, 378, 379, 380, 381, 382, 383, 384, 385, 386, 387, 388, 389, 390, 391, 392, 393, 394, 395, 396, 397, 398, 399, 400, 401, 402, 403, 404, 405, 406, 407, 408, 409, 410, 411, 412, 413, 414, 415, 416, 417, 418, 419, 420, 421, 422, 423, 424, 425, 426, 427, 428, 429, 430, 431, 432, 433, 434, 435, 436, 437, 438, 439, 440, 441, 442, 443, 444, 445, 446, 447, 448, 449, 450, 451, 452, 453, 454, 455, 456, 457, 458, 459, 460, 461, 462, 463, 464, 465],
      "AcquisitionTime": ["173751.877500", "173753.367500", "173754.857500", "173756.347500", "173757.837500", "173759.327500", "173800.817500", "173802.307500", "173803.797500", "173805.287500", "173806.777500", "173808.267500", "173809.757500", "173811.247500", "173812.737500", "173814.227500", "173815.717500", "173817.207500", "173818.697500", "173820.187500", "173821.677500", "173823.167500", "173824.657500", "173826.147500", "173827.637500", "173829.127500", "173830.617500", "173832.107500", "173833.597500", "173835.087500", "173836.577500", "173838.067500", "173839.557500", "173841.047500", "173842.537500", "173844.027500", "173845.517500", "173847.007500", "173848.497500", "173849.987500", "173851.477500", "173852.967500", "173854.457500", "173855.947500", "173857.437500", "173858.927500", "173900.417500", "173901.907500", "173903.397500", "173904.887500", "173906.377500", "173907.867500", "173909.357500", "173910.847500", "173912.337500", "173913.827500", "173915.317500", "173916.807500", "173918.297500", "173919.787500", "173921.277500", "173922.767500", "173924.257500", "173925.747500", "173927.237500", "173928.727500", "173930.217500", "173931.707500", "173933.197500", "173934.687500", "173936.177500", "173937.667500", "173939.157500", "173940.647500", "173942.137500", "173943.627500", "173945.117500", "173946.607500", "173948.097500", "173949.587500", "173951.077500", "173952.567500", "173954.057500", "173955.547500", "173957.037500", "173958.527500", "174000.017500", "174001.507500", "174002.997500", "174004.487500", "174005.977500", "174007.467500", "174008.957500", "174010.447500", "174011.937500", "174013.427500", "174014.917500", "174016.407500", "174017.897500", "174019.387500", "174020.877500", "174022.367500", "174023.857500", "174025.347500", "174026.837500", "174028.327500", "174029.817500", "174031.307500", "174032.797500", "174034.287500", "174035.777500", "174037.267500", "174038.757500", "174040.247500", "174041.737500", "174043.227500", "174044.717500", "174046.207500", "174047.697500", "174049.187500", "174050.677500", "174052.167500", "174053.657500", "174055.147500", "174056.637500", "174058.127500", "174059.617500", "174101.107500", "174102.597500", "174104.087500", "174105.577500", "174107.067500", "174108.557500", "174110.047500", "174111.537500", "174113.027500", "174114.517500", "174116.007500", "174117.497500", "174118.987500", "174120.477500", "174121.967500", "174123.457500", "174124.947500", "174126.437500", "174127.927500", "174129.417500", "174130.907500", "174132.397500", "174133.887500", "174135.377500", "174136.867500", "174138.357500", "174139.847500", "174141.337500", "174142.827500", "174144.317500", "174145.807500", "174147.297500", "174148.787500", "174150.277500", "174151.767500", "174153.257500", "174154.747500", "174156.237500", "174157.727500", "174159.217500", "174200.707500", "174202.197500", "174203.687500", "174205.177500", "174206.667500", "174208.157500", "174209.647500", "174211.137500", "174212.627500", "174214.117500", "174215.607500", "174217.097500", "174218.587500", "174220.077500", "174221.567500", "174223.057500", "174224.547500", "174226.037500", "174227.527500", "174229.017500", "174230.507500", "174231.997500", "174233.487500", "174234.977500", "174236.467500", "174237.957500", "174239.447500", "174240.937500", "174242.427500", "174243.917500", "174245.407500", "174246.897500", "174248.387500", "174249.877500", "174251.367500", "174252.857500", "174254.347500", "174255.837500", "174257.327500", "174258.817500", "174300.307500", "174301.797500", "174303.287500", "174304.777500", "174306.267500", "174307.757500", "174309.247500", "174310.737500", "174312.227500", "174313.717500", "174315.207500", "174316.697500", "174318.187500", "174319.677500", "174321.167500", "174322.657500", "174324.147500", "174325.637500", "174327.127500", "174328.617500", "174330.107500", "174331.597500", "174333.087500", "174334.577500", "174336.067500", "174337.557500", "174339.047500", "174340.537500", "174342.027500", "174343.517500", "174345.007500", "174346.497500", "174347.987500", "174349.477500", "174350.967500", "174352.457500", "174353.947500", "174355.437500", "174356.927500", "174358.417500", "174359.907500", "174401.397500", "174402.887500", "174404.377500", "174405.867500", "174407.357500", "174408.847500", "174410.337500", "174411.827500", "174413.317500", "174414.807500", "174416.297500", "174417.787500", "174419.277500", "174420.767500", "174422.257500", "174423.747500", "174425.237500", "174426.727500", "174428.217500", "174429.707500", "174431.197500", "174432.687500", "174434.177500", "174435.667500", "174437.157500", "174438.647500", "174440.137500", "174441.627500", "174443.117500", "174444.607500", "174446.097500", "174447.587500", "174449.077500", "174450.567500", "174452.057500", "174453.547500", "174455.037500", "174456.527500", "174458.017500", "174459.507500", "174500.997500", "174502.487500", "174503.977500", "174505.467500", "174506.957500", "174508.447500", "174509.937500", "174511.427500", "174512.917500", "174514.407500", "174515.897500", "174517.387500", "174518.877500", "174520.367500", "174521.857500", "174523.347500", "174524.837500", "174526.327500", "174527.817500", "174529.307500", "174530.797500", "174532.287500", "174533.777500", "174535.267500", "174536.757500", "174538.247500", "174539.737500", "174541.227500", "174542.717500", "174544.207500", "174545.697500", "174547.187500", "174548.677500", "174550.167500", "174551.657500", "174553.147500", "174554.637500", "174556.127500", "174557.617500", "174559.107500", "174600.597500", "174602.087500", "174603.577500", "174605.067500", "174606.557500", "174608.047500", "174609.537500", "174611.027500", "174612.517500", "174614.007500", "174615.497500", "174616.987500", "174618.477500", "174619.967500", "174621.457500", "174622.947500", "174624.437500", "174625.927500", "174627.417500", "174628.907500", "174630.397500", "174631.887500", "174633.377500", "174634.867500", "174636.357500", "174637.847500", "174639.337500", "174640.827500", "174642.317500", "174643.807500", "174645.297500", "174646.787500", "174648.277500", "174649.767500", "174651.257500", "174652.747500", "174654.237500", "174655.727500", "174657.217500", "174658.707500", "174700.197500", "174701.687500", "174703.177500", "174704.667500", "174706.157500", "174707.647500", "174709.137500", "174710.627500", "174712.117500", "174713.607500", "174715.097500", "174716.587500", "174718.077500", "174719.567500", "174721.057500", "174722.547500", "174724.037500", "174725.527500", "174727.017500", "174728.507500", "174729.997500", "174731.487500", "174732.977500", "174734.467500", "174735.957500", "174737.447500", "174738.937500", "174740.427500", "174741.917500", "174743.407500", "174744.897500", "174746.387500", "174747.877500", "174749.367500", "174750.857500", "174752.347500", "174753.837500", "174755.327500", "174756.817500", "174758.307500", "174759.797500", "174801.287500", "174802.777500", "174804.267500", "174805.757500", "174807.247500", "174808.737500", "174810.227500", "174811.717500", "174813.207500", "174814.697500", "174816.187500", "174817.677500", "174819.167500", "174820.657500", "174822.147500", "174823.637500", "174825.127500", "174826.617500", "174828.107500", "174829.597500", "174831.087500", "174832.577500", "174834.067500", "174835.557500", "174837.047500", "174838.537500", "174840.027500", "174841.517500", "174843.007500", "174844.497500", "174845.987500", "174847.477500", "174848.967500", "174850.457500", "174851.947500", "174853.437500", "174854.927500", "174856.417500", "174857.907500", "174859.397500", "174900.887500", "174902.377500", "174903.867500", "174905.357500", "174906.847500", "174908.337500", "174909.827500", "174911.317500", "174912.807500", "174914.297500", "174915.787500", "174917.277500", "174918.767500", "174920.257500", "174921.747500", "174923.237500"],
      "ContentTime": ["173910.630000", "173910.634000", "173910.637000", "173910.640000", "173910.642000", "173910.645000", "173910.648000", "173910.651000", "173910.654000", "173910.657000", "173910.660000", "173910.663000", "173910.666000", "173910.669000", "173910.672000", "173910.674000", "173910.677000", "173910.680000", "173910.683000", "173910.686000", "173910.689000", "173910.692000", "173910.695000", "173910.704000", "173910.707000", "173930.597000", "173930.600000", "173930.603000", "173930.606000", "173930.609000", "173930.612000", "173930.614000", "173930.617000", "173930.622000", "173930.625000", "173930.628000", "173930.631000", "173930.634000", "173930.637000", "173930.639000", "173930.642000", "173930.645000", "173930.648000", "173930.651000", "173930.654000", "173950.598000", "173950.601000", "173950.604000", "173950.607000", "173950.610000", "173950.613000", "173950.615000", "173950.618000", "173950.621000", "173950.624000", "173950.627000", "173950.630000", "173950.633000", "173950.636000", "173950.639000", "173950.642000", "173950.645000", "173950.647000", "173950.650000", "173950.653000", "174010.598000", "174010.601000", "174010.604000", "174010.607000", "174010.610000", "174010.613000", "174010.616000", "174010.619000", "174010.622000", "174010.625000", "174010.628000", "174010.630000", "174010.633000", "174010.636000", "174010.639000", "174010.642000", "174010.645000", "174010.648000", "174010.651000", "174010.664000", "174030.598000", "174030.601000", "174030.604000", "174030.607000", "174030.610000", "174030.613000", "174030.615000", "174030.618000", "174030.621000", "174030.624000", "174030.627000", "174030.630000", "174030.633000", "174030.636000", "174030.639000", "174030.642000", "174030.645000", "174030.648000", "174030.651000", "174030.654000", "174030.657000", "174110.598000", "174110.601000", "174110.604000", "174110.607000", "174110.610000", "174110.613000", "174110.616000", "174110.619000", "174110.621000", "174110.624000", "174110.627000", "174110.630000", "174110.633000", "174110.636000", "174110.639000", "174110.642000", "174110.645000", "174110.648000", "174110.651000", "174110.653000", "174110.656000", "174110.659000", "174110.662000", "174110.665000", "174110.668000", "174110.671000", "174110.674000", "174150.597000", "174150.600000", "174150.603000", "174150.606000", "174150.609000", "174150.612000", "174150.615000", "174150.617000", "174150.620000", "174150.623000", "174150.626000", "174150.629000", "174150.632000", "174150.635000", "174150.638000", "174150.641000", "174150.644000", "174150.647000", "174150.650000", "174150.653000", "174150.655000", "174150.658000", "174150.661000", "174150.664000", "174150.667000", "174150.670000", "174150.673000", "174230.598000", "174230.601000", "174230.604000", "174230.607000", "174230.610000", "174230.613000", "174230.616000", "174230.619000", "174230.622000", "174230.625000", "174230.628000", "174230.631000", "174230.634000", "174230.637000", "174230.640000", "174230.643000", "174230.646000", "174230.649000", "174230.652000", "174230.655000", "174230.658000", "174230.661000", "174230.664000", "174230.667000", "174230.669000", "174230.672000", "174310.598000", "174310.610000", "174310.613000", "174310.616000", "174310.619000", "174310.622000", "174310.625000", "174310.628000", "174310.631000", "174310.633000", "174310.636000", "174310.639000", "174310.642000", "174310.645000", "174310.648000", "174310.651000", "174310.654000", "174310.657000", "174310.660000", "174310.663000", "174310.666000", "174310.669000", "174310.671000", "174310.674000", "174310.677000", "174310.680000", "174310.683000", "174350.598000", "174350.601000", "174350.604000", "174350.607000", "174350.610000", "174350.613000", "174350.616000", "174350.619000", "174350.622000", "174350.624000", "174350.627000", "174350.630000", "174350.633000", "174350.636000", "174350.639000", "174350.642000", "174350.646000", "174350.649000", "174350.652000", "174350.655000", "174350.658000", "174350.661000", "174350.664000", "174350.666000", "174350.669000", "174350.672000", "174350.675000", "174430.598000", "174430.610000", "174430.613000", "174430.616000", "174430.618000", "174430.621000", "174430.624000", "174430.627000", "174430.630000", "174430.633000", "174430.636000", "174430.639000", "174430.642000", "174430.645000", "174430.648000", "174430.651000", "174430.654000", "174430.657000", "174430.659000", "174430.662000", "174430.665000", "174430.668000", "174430.671000", "174430.674000", "174430.677000", "174430.680000", "174430.683000", "174510.598000", "174510.601000", "174510.604000", "174510.607000", "174510.610000", "174510.613000", "174510.616000", "174510.619000", "174510.622000", "174510.625000", "174510.628000", "174510.631000", "174510.633000", "174510.636000", "174510.639000", "174510.642000", "174510.645000", "174510.648000", "174510.651000", "174510.654000", "174510.657000", "174510.660000", "174510.663000", "174510.666000", "174510.669000", "174510.672000", "174510.675000", "174550.598000", "174550.601000", "174550.604000", "174550.607000", "174550.610000", "174550.613000", "174550.616000", "174550.619000", "174550.622000", "174550.625000", "174550.627000", "174550.630000", "174550.633000", "174550.636000", "174550.639000", "174550.642000", "174550.645000", "174550.648000", "174550.651000", "174550.654000", "174550.657000", "174550.660000", "174550.663000", "174550.666000", "174550.669000", "174550.671000", "174550.674000", "174630.597000", "174630.600000", "174630.603000", "174630.606000", "174630.609000", "174630.612000", "174630.615000", "174630.618000", "174630.621000", "174630.624000", "174630.627000", "174630.630000", "174630.633000", "174630.636000", "174630.639000", "174630.642000", "174630.645000", "174630.649000", "174630.651000", "174630.654000", "174630.657000", "174630.660000", "174630.663000", "174630.666000", "174630.669000", "174630.672000", "174710.598000", "174710.601000", "174710.604000", "174710.607000", "174710.610000", "174710.613000", "174710.616000", "174710.619000", "174710.622000", "174710.625000", "174710.627000", "174710.630000", "174710.633000", "174710.636000", "174710.639000", "174710.642000", "174710.645000", "174710.648000", "174710.651000", "174710.654000", "174710.657000", "174710.659000", "174710.662000", "174710.665000", "174710.668000", "174710.671000", "174710.674000", "174750.598000", "174750.612000", "174750.615000", "174750.618000", "174750.621000", "174750.624000", "174750.627000", "174750.630000", "174750.633000", "174750.636000", "174750.639000", "174750.642000", "174750.645000", "174750.647000", "174750.650000", "174750.653000", "174750.656000", "174750.659000", "174750.662000", "174750.665000", "174750.668000", "174750.671000", "174750.674000", "174750.677000", "174750.680000", "174750.683000", "174750.685000", "174830.598000", "174830.601000", "174830.604000", "174830.607000", "174830.610000", "174830.613000", "174830.616000", "174830.619000", "174830.622000", "174830.625000", "174830.627000", "174830.630000", "174830.633000", "174830.636000", "174830.639000", "174830.642000", "174830.645000", "174830.648000", "174830.651000", "174830.654000", "174830.657000", "174830.660000", "174830.663000", "174830.666000", "174830.669000", "174830.671000", "174830.674000", "174910.598000", "174910.601000", "174910.604000", "174910.607000", "174910.610000", "174910.613000", "174910.616000", "174910.619000", "174910.622000", "174910.625000", "174910.628000", "174910.630000", "174910.633000", "174910.636000", "174910.639000", "174910.642000", "174910.645000", "174910.648000", "174910.651000", "174910.654000", "174910.657000", "174910.660000", "174910.663000", "174910.666000", "174910.669000", "174910.671000", "174910.674000", "174925.025000", "174925.028000", "174925.031000", "174925.034000", "174925.037000", "174925.040000", "174925.043000", "174925.046000", "174925.049000", "174925.052000"],
