{
  "AcquisitionMatrixPE": 104,
  "AcquisitionNumber": 1,
  "AcquisitionTime": "17:25:38.465000",
  "BandwidthPerPixelPhaseEncode": 17.17,
  "BaseResolution": 104,
  "BodyPartExamined": "BRAIN",
  "CoilString": "HC1-7;NC1_2",
  "ConsistencyInfo": "N4_VE11C_LATEST_20160120",
  "ConversionSoftware": "dcm2niix",
  "ConversionSoftwareVersion": "v1.0.20190902",
  "DerivedVendorReportedEchoSpacing": 0.000560011,
  "DeviceSerialNumber": "167006",
  "DwellTime": 2.1e-06,
  "EchoTime": 0.037,
  "EchoTrainLength": 104,
  "EffectiveEchoSpacing": 0.000560011,
  "FlipAngle": 52,
  "ImageComments": "Unaliased_MB4_PE3_LB",
  "ImageOrientationPatientDICOM": [0.999977, -0.00572834, -0.00374457, 0.00383961, 0.922531, -0.385905],
  "ImageType": [
    "ORIGINAL",
    "PRIMARY",
    "M",
    "MB",
    "ND",
    "MOSAIC"
],
  "ImagingFrequency": 123.259,
  "InPlanePhaseEncodingDirectionDICOM": "COL",
  "InstitutionAddress": "Chemin_Queen-Mary_4565_Montreal_District_CA_H3W_1W5",
  "InstitutionName": "IUGM",
  "InstitutionalDepartmentName": "Department",
  "MRAcquisitionType": "2D",
  "MagneticFieldStrength": 3,
  "Manufacturer": "Siemens",
  "ManufacturersModelName": "Prisma_fit",
  "Modality": "MR",
  "MultibandAccelerationFactor": 4,
  "PartialFourier": 1,
  "PatientPosition": "HFS",
  "PercentPhaseFOV": 100,
  "PhaseEncodingDirection": "j",
  "PhaseEncodingSteps": 104,
  "PhaseResolution": 1,
  "PixelBandwidth": 2290,
  "ProcedureStepDescription": "video_friends",
  "ProtocolName": "func_task-friends-s04e05b",
  "PulseSequenceDetails": "%CustomerSeq%_cmrr_mbep2d_bold",
  "ReceiveCoilActiveElements": "HC1-7;NC1,2",
  "ReceiveCoilName": "HeadNeck_64",
  "ReconMatrixPE": 104,
  "RepetitionTime": 1.49,
  "SAR": 0.0374087,
  "ScanOptions": "FS",
  "ScanningSequence": "EP",
  "SequenceName": "epfid2d1_104",
  "SequenceVariant": "SK_SS",
  "SeriesDescription": "func_task-friends-s04e05b",
  "SeriesNumber": 17,
  "ShimSetting": [619, -7289, -8815, 435, 10, -442, 59, 8],
  "SliceThickness": 2,
  "SliceTiming": [0, 0.785, 0.0975, 0.8825, 0.195, 0.98, 0.295, 1.0775, 0.3925, 1.175, 0.49, 1.275, 0.5875, 1.3725, 0.685, 0, 0.785, 0.0975, 0.8825, 0.195, 0.98, 0.295, 1.0775, 0.3925, 1.175, 0.49, 1.275, 0.5875, 1.3725, 0.685, 0, 0.785, 0.0975, 0.8825, 0.195, 0.98, 0.295, 1.0775, 0.3925, 1.175, 0.49, 1.275, 0.5875, 1.3725, 0.685, 0, 0.785, 0.0975, 0.8825, 0.195, 0.98, 0.295, 1.0775, 0.3925, 1.175, 0.49, 1.275, 0.5875, 1.3725, 0.685],
  "SoftwareVersions": "syngo_MR_E11",
  "SpacingBetweenSlices": 2,
  "StationName": "MRC35049",
  "TaskName": "s04e05b",
  "TotalReadoutTime": 0.0576811,
  "TxRefAmp": 240.684,
  "WipMemBlock": "d572de1d-b751-4cfe-a1f4-8e1c0f4a2bd0||Sequence: R016 ve11c/master r/e634e98; Dec 19 2017 11:00:25 by eja",
  "dcmmeta_affine": [
    [-1.9999531507492065, 0.007679223082959652, -0.011330150067806244, 99.9322280883789],
    [0.011456680484116077, 1.8450613021850586, -0.7717627286911011, -68.67687225341797],
    [-0.007489141542464495, 0.7718095183372498, 1.8450621366500854, -62.02777862548828],
    [0.0, 0.0, 0.0, 1.0]
],
  "dcmmeta_reorient_transform": [
    [0.0, -1.0, 0.0, 103.0],
    [1.0, 0.0, 0.0, 0.0],
    [0.0, 0.0, 1.0, 0.0],
    [0.0, 0.0, 0.0, 1.0]
],
  "dcmmeta_shape": [104, 104, 60, 471],
  "dcmmeta_slice_dim": 2,
  "dcmmeta_version": 0.6,
  "global": {
    "const": {
      "AcquisitionMatrix": [104, 0, 0, 104],
      "AngioFlag": "N",
      "BitsAllocated": 16,
      "BitsStored": 16,
      "BodyPartExamined": "BRAIN",
      "Columns": 832,
      "EchoNumbers": 1,
      "EchoTime": 37.0,
      "EchoTrainLength": 104,
      "FlipAngle": 52.0,
      "HighBit": 15,
      "ImageOrientationPatient": [0.99997658188035, -0.0057283401726, -0.0037445707037, 0.0038396115486, 0.92253063494216, -0.3859047615363],
      "ImagePositionPatient": [-831.50137355392, -788.79650944663, 301.13331469041],
      "ImageType": [
        "ORIGINAL",
        "PRIMARY",
        "M",
        "MB",
        "ND",
        "MOSAIC"
],
      "ImagedNucleus": "1H",
      "ImagingFrequency": 123.258939,
      "InPlanePhaseEncodingDirection": "COL",
      "MRAcquisitionType": "2D",
      "MagneticFieldStrength": 3.0,
      "Manufacturer": "SIEMENS",
      "ManufacturerModelName": "Prisma_fit",
      "Modality": "MR",
      "NumberOfAverages": 1.0,
      "NumberOfPhaseEncodingSteps": 104,
      "PercentPhaseFieldOfView": 100.0,
      "PercentSampling": 100.0,
      "PerformedProcedureStepStartTime": "164603.076000",
      "PhotometricInterpretation": "MONOCHROME2",
      "PixelBandwidth": 2290.0,
      "PixelRepresentation": 0,
      "PixelSpacing": [2.0, 2.0],
      "ProtocolName": "func_task-friends-s04e05b",
      "RepetitionTime": 1490.0,
      "Rows": 832,
      "SAR": 0.03740868322638,
      "SamplesPerPixel": 1,
      "ScanOptions": "FS",
      "ScanningSequence": "EP",
      "SequenceName": "epfid2d1_104",
      "SequenceVariant": [
        "SK",
        "SS"
],
      "SeriesDescription": "func_task-friends-s04e05b",
      "SeriesNumber": 17,
      "SeriesTime": "172642.621000",
      "SliceLocation": -31.287551262939,
      "SliceThickness": 2.0,
      "SmallestImagePixelValue": 0,
      "SoftwareVersions": "syngo MR E11",
      "SpacingBetweenSlices": 2.0000000370809,
      "SpecificCharacterSet": "ISO_IR 100",
      "StudyID": "1",
      "StudyTime": "164603.012000",
      "TransmitCoilName": "Body",
      "VariableFlipAngleFlag": "N",
      "WindowCenterWidthExplanation": "Algo1",
      "dBdt": 0.0},
    "slices": {}
  },
  "time": {
    "samples": {
      "AcquisitionNumber": [1, 2, 3, 4, 5, 6, 7, 8, 9, 10, 11, 12, 13, 14, 15, 16, 17, 18, 19, 20, 21, 22, 23, 24, 25, 26, 27, 28, 29, 30, 31, 32, 33, 34, 35, 36, 37, 38, 39, 40, 41, 42, 43, 44, 45, 46, 47, 48, 49, 50, 51, 52, 53, 54, 55, 56, 57, 58, 59, 60, 61, 62, 63, 64, 65, 66, 67, 68, 69, 70, 71, 72, 73, 74, 75, 76, 77, 78, 79, 80, 81, 82, 83, 84, 85, 86, 87, 88, 89, 90, 91, 92, 93, 94, 95, 96, 97, 98, 99, 100, 101, 102, 103, 104, 105, 106, 107, 108, 109, 110, 111, 112, 113, 114, 115, 116, 117, 118, 119, 120, 121, 122, 123, 124, 125, 126, 127, 128, 129, 130, 131, 132, 133, 134, 135, 136, 137, 138, 139, 140, 141, 142, 143, 144, 145, 146, 147, 148, 149, 150, 151, 152, 153, 154, 155, 156, 157, 158, 159, 160, 161, 162, 163, 164, 165, 166, 167, 168, 169, 170, 171, 172, 173, 174, 175, 176, 177, 178, 179, 180, 181, 182, 183, 184, 185, 186, 187, 188, 189, 190, 191, 192, 193, 194, 195, 196, 197, 198, 199, 200, 201, 202, 203, 204, 205, 206, 207, 208, 209, 210, 211, 212, 213, 214, 215, 216, 217, 218, 219, 220, 221, 222, 223, 224, 225, 226, 227, 228, 229, 230, 231, 232, 233, 234, 235, 236, 237, 238, 239, 240, 241, 242, 243, 244, 245, 246, 247, 248, 249, 250, 251, 252, 253, 254, 255, 256, 257, 258, 259, 260, 261, 262, 263, 264, 265, 266, 267, 268, 269, 270, 271, 272, 273, 274, 275, 276, 277, 278, 279, 280, 281, 282, 283, 284, 285, 286, 287, 288, 289, 290, 291, 292, 293, 294, 295, 296, 297, 298, 299, 300, 301, 302, 303, 304, 305, 306, 307, 308, 309, 310, 311, 312, 313, 314, 315, 316, 317, 318, 319, 320, 321, 322, 323, 324, 325, 326, 327, 328, 329, 330, 331, 332, 333, 334, 335, 336, 337, 338, 339, 340, 341, 342, 343, 344, 345, 346, 347, 348, 349, 350, 351, 352, 353, 354, 355, 356, 357, 358, 359, 360, 361, 362, 363, 364, 365, 366, 367, 368, 369, 370, 371, 372, 373, 374, 375, 376, 377, 378, 379, 380, 381, 382, 383, 384, 385, 386, 387, 388, 389, 390, 391, 392, 393, 394, 395, 396, 397, 398, 399, 400, 401, 402, 403, 404, 405, 406, 407, 408, 409, 410, 411, 412, 413, 414, 415, 416, 417, 418, 419, 420, 421, 422, 423, 424, 425, 426, 427, 428, 429, 430, 431, 432, 433, 434, 435, 436, 437, 438, 439, 440, 441, 442, 443, 444, 445, 446, 447, 448, 449, 450, 451, 452, 453, 454, 455, 456, 457, 458, 459, 460, 461, 462, 463, 464, 465, 466, 467, 468, 469, 470, 471],
      "AcquisitionTime": ["172538.465000", "172539.955000", "172541.445000", "172542.935000", "172544.425000", "172545.915000", "172547.405000", "172548.895000", "172550.385000", "172551.875000", "172553.365000", "172554.855000", "172556.345000", "172557.835000", "172559.325000", "172600.815000", "172602.305000", "172603.795000", "172605.285000", "172606.775000", "172608.265000", "172609.755000", "172611.245000", "172612.735000", "172614.225000", "172615.715000", "172617.205000", "172618.695000", "172620.185000", "172621.675000", "172623.165000", "172624.655000", "172626.145000", "172627.635000", "172629.125000", "172630.615000", "172632.105000", "172633.595000", "172635.085000", "172636.575000", "172638.065000", "172639.555000", "172641.045000", "172642.535000", "172644.025000", "172645.515000", "172647.005000", "172648.495000", "172649.985000", "172651.475000", "172652.965000", "172654.455000", "172655.945000", "172657.435000", "172658.925000", "172700.415000", "172701.905000", "172703.395000", "172704.885000", "172706.375000", "172707.865000", "172709.355000", "172710.845000", "172712.335000", "172713.825000", "172715.315000", "172716.805000", "172718.295000", "172719.785000", "172721.275000", "172722.765000", "172724.255000", "172725.745000", "172727.235000", "172728.725000", "172730.215000", "172731.705000", "172733.195000", "172734.685000", "172736.175000", "172737.665000", "172739.155000", "172740.645000", "172742.135000", "172743.625000", "172745.115000", "172746.605000", "172748.095000", "172749.585000", "172751.075000", "172752.565000", "172754.055000", "172755.545000", "172757.035000", "172758.525000", "172800.015000", "172801.505000", "172802.995000", "172804.485000", "172805.975000", "172807.465000", "172808.955000", "172810.445000", "172811.935000", "172813.425000", "172814.915000", "172816.405000", "172817.895000", "172819.385000", "172820.875000", "172822.365000", "172823.855000", "172825.345000", "172826.835000", "172828.325000", "172829.815000", "172831.305000", "172832.795000", "172834.285000", "172835.775000", "172837.265000", "172838.755000", "172840.245000", "172841.735000", "172843.225000", "172844.715000", "172846.205000", "172847.695000", "172849.185000", "172850.675000", "172852.165000", "172853.655000", "172855.145000", "172856.635000", "172858.125000", "172859.615000", "172901.105000", "172902.595000", "172904.085000", "172905.575000", "172907.065000", "172908.555000", "172910.045000", "172911.535000", "172913.025000", "172914.515000", "172916.005000", "172917.495000", "172918.985000", "172920.475000", "172921.965000", "172923.455000", "172924.945000", "172926.435000", "172927.925000", "172929.415000", "172930.905000", "172932.395000", "172933.885000", "172935.375000", "172936.865000", "172938.355000", "172939.845000", "172941.335000", "172942.825000", "172944.315000", "172945.805000", "172947.295000", "172948.785000", "172950.275000", "172951.765000", "172953.255000", "172954.745000", "172956.235000", "172957.725000", "172959.215000", "173000.705000", "173002.195000", "173003.685000", "173005.175000", "173006.665000", "173008.155000", "173009.645000", "173011.135000", "173012.625000", "173014.115000", "173015.605000", "173017.095000", "173018.585000", "173020.075000", "173021.565000", "173023.055000", "173024.545000", "173026.035000", "173027.525000", "173029.015000", "173030.505000", "173031.995000", "173033.485000", "173034.975000", "173036.465000", "173037.955000", "173039.445000", "173040.935000", "173042.425000", "173043.915000", "173045.405000", "173046.895000", "173048.385000", "173049.875000", "173051.365000", "173052.855000", "173054.345000", "173055.835000", "173057.325000", "173058.815000", "173100.305000", "173101.795000", "173103.285000", "173104.775000", "173106.265000", "173107.755000", "173109.245000", "173110.735000", "173112.225000", "173113.715000", "173115.205000", "173116.695000", "173118.185000", "173119.675000", "173121.165000", "173122.655000", "173124.145000", "173125.635000", "173127.125000", "173128.615000", "173130.105000", "173131.595000", "173133.085000", "173134.575000", "173136.065000", "173137.555000", "173139.045000", "173140.535000", "173142.025000", "173143.515000", "173145.005000", "173146.495000", "173147.985000", "173149.475000", "173150.965000", "173152.455000", "173153.945000", "173155.435000", "173156.925000", "173158.415000", "173159.905000", "173201.395000", "173202.885000", "173204.375000", "173205.865000", "173207.355000", "173208.845000", "173210.335000", "173211.825000", "173213.315000", "173214.805000", "173216.295000", "173217.785000", "173219.275000", "173220.765000", "173222.255000", "173223.745000", "173225.235000", "173226.725000", "173228.215000", "173229.705000", "173231.195000", "173232.685000", "173234.175000", "173235.665000", "173237.155000", "173238.645000", "173240.135000", "173241.625000", "173243.115000", "173244.605000", "173246.095000", "173247.585000", "173249.075000", "173250.565000", "173252.055000", "173253.545000", "173255.035000", "173256.525000", "173258.015000", "173259.505000", "173300.995000", "173302.485000", "173303.975000", "173305.465000", "173306.955000", "173308.445000", "173309.935000", "173311.425000", "173312.915000", "173314.405000", "173315.895000", "173317.385000", "173318.875000", "173320.365000", "173321.855000", "173323.345000", "173324.835000", "173326.325000", "173327.815000", "173329.305000", "173330.795000", "173332.285000", "173333.775000", "173335.265000", "173336.755000", "173338.245000", "173339.735000", "173341.225000", "173342.715000", "173344.205000", "173345.695000", "173347.185000", "173348.675000", "173350.165000", "173351.655000", "173353.145000", "173354.635000", "173356.125000", "173357.615000", "173359.105000", "173400.595000", "173402.085000", "173403.575000", "173405.065000", "173406.555000", "173408.045000", "173409.535000", "173411.025000", "173412.515000", "173414.005000", "173415.495000", "173416.985000", "173418.475000", "173419.965000", "173421.455000", "173422.945000", "173424.435000", "173425.925000", "173427.415000", "173428.905000", "173430.395000", "173431.885000", "173433.375000", "173434.865000", "173436.355000", "173437.845000", "173439.335000", "173440.825000", "173442.315000", "173443.805000", "173445.295000", "173446.785000", "173448.275000", "173449.765000", "173451.255000", "173452.745000", "173454.235000", "173455.725000", "173457.215000", "173458.705000", "173500.195000", "173501.685000", "173503.175000", "173504.665000", "173506.155000", "173507.645000", "173509.135000", "173510.625000", "173512.115000", "173513.605000", "173515.095000", "173516.585000", "173518.075000", "173519.565000", "173521.055000", "173522.545000", "173524.035000", "173525.525000", "173527.015000", "173528.505000", "173529.995000", "173531.485000", "173532.975000", "173534.465000", "173535.955000", "173537.445000", "173538.935000", "173540.425000", "173541.915000", "173543.405000", "173544.895000", "173546.385000", "173547.875000", "173549.365000", "173550.855000", "173552.345000", "173553.835000", "173555.325000", "173556.815000", "173558.305000", "173559.795000", "173601.285000", "173602.775000", "173604.265000", "173605.755000", "173607.245000", "173608.735000", "173610.225000", "173611.715000", "173613.205000", "173614.695000", "173616.185000", "173617.675000", "173619.165000", "173620.655000", "173622.145000", "173623.635000", "173625.125000", "173626.615000", "173628.105000", "173629.595000", "173631.085000", "173632.575000", "173634.065000", "173635.555000", "173637.045000", "173638.535000", "173640.025000", "173641.515000", "173643.005000", "173644.495000", "173645.985000", "173647.475000", "173648.965000", "173650.455000", "173651.945000", "173653.435000", "173654.925000", "173656.415000", "173657.905000", "173659.395000", "173700.885000", "173702.375000", "173703.865000", "173705.355000", "173706.845000", "173708.335000", "173709.825000", "173711.315000", "173712.805000", "173714.295000", "173715.785000", "173717.275000", "173718.765000"],
      "ContentTime": ["172642.626000", "172642.629000", "172642.632000", "172642.635000", "172642.639000", "172642.642000", "172642.644000", "172642.647000", "172642.650000", "172642.659000", "172702.559000", "172702.562000", "172702.565000", "172702.568000", "172702.571000", "172702.574000", "172702.576000", "172702.579000", "172702.582000", "172702.585000", "172702.588000", "172702.591000", "172702.594000", "172702.597000", "172702.600000", "172702.603000", "172702.606000", "172702.609000", "172702.612000", "172702.614000", "172722.559000", "172722.562000", "172722.565000", "172722.568000", "172722.571000", "172722.573000", "172722.576000", "172722.579000", "172722.582000", "172722.585000", "172722.588000", "172722.591000", "172722.594000", "172722.597000", "172722.600000", "172722.603000", "172722.606000", "172722.609000", "172722.612000", "172722.615000", "172742.559000", "172742.568000", "172742.571000", "172742.574000", "172742.577000", "172742.580000", "172742.583000", "172742.585000", "172742.588000", "172742.591000", "172742.594000", "172742.597000", "172742.600000", "172742.603000", "172742.606000", "172742.609000", "172742.612000", "172742.615000", "172742.618000", "172742.621000", "172802.559000", "172802.562000", "172802.565000", "172802.568000", "172802.571000", "172802.574000", "172802.585000", "172802.588000", "172802.591000", "172802.594000", "172802.597000", "172802.599000", "172802.602000", "172802.605000", "172802.608000", "172802.611000", "172802.614000", "172802.617000", "172802.620000", "172802.622000", "172842.559000", "172842.562000", "172842.594000", "172842.597000", "172842.600000", "172842.603000", "172842.605000", "172842.612000", "172842.614000", "172842.617000", "172842.620000", "172842.623000", "172842.626000", "172842.629000", "172842.632000", "172842.635000", "172842.638000", "172842.641000", "172842.644000", "172842.647000", "172842.649000", "172842.652000", "172842.655000", "172842.658000", "172842.661000", "172842.664000", "172842.667000", "172842.670000", "172842.673000", "172842.676000", "172842.679000", "172842.682000", "172842.684000", "172922.559000", "172922.562000", "172922.565000", "172922.568000", "172922.571000", "172922.574000", "172922.577000", "172922.579000", "172922.582000", "172922.585000", "172922.588000", "172922.591000", "172922.594000", "172922.597000", "172922.600000", "172922.603000", "172922.606000", "172922.609000", "172922.613000", "172922.616000", "172922.619000", "172922.621000", "172922.624000", "172922.627000", "172922.630000", "172922.633000", "173002.559000", "173002.562000", "173002.565000", "173002.568000", "173002.571000", "173002.574000", "173002.577000", "173002.580000", "173002.583000", "173002.586000", "173002.589000", "173002.592000", "173002.595000", "173002.597000", "173002.600000", "173002.603000", "173002.606000", "173002.609000", "173002.612000", "173002.615000", "173002.618000", "173002.621000", "173002.624000", "173002.627000", "173002.630000", "173002.633000", "173002.635000", "173042.559000", "173042.562000", "173042.565000", "173042.568000", "173042.571000", "173042.574000", "173042.577000", "173042.580000", "173042.583000", "173042.586000", "173042.589000", "173042.592000", "173042.595000", "173042.598000", "173042.601000", "173042.604000", "173042.607000", "173042.610000", "173042.613000", "173042.616000", "173042.619000", "173042.622000", "173042.625000", "173042.628000", "173042.631000", "173042.633000", "173042.636000", "173122.560000", "173122.563000", "173122.566000", "173122.569000", "173122.572000", "173122.575000", "173122.578000", "173122.581000", "173122.584000", "173122.586000", "173122.590000", "173122.592000", "173122.595000", "173122.598000", "173122.601000", "173122.604000", "173122.607000", "173122.610000", "173122.613000", "173122.616000", "173122.619000", "173122.622000", "173122.625000", "173122.628000", "173122.631000", "173122.634000", "173122.636000", "173202.559000", "173202.562000", "173202.565000", "173202.568000", "173202.571000", "173202.574000", "173202.577000", "173202.580000", "173202.582000", "173202.585000", "173202.588000", "173202.591000", "173202.594000", "173202.597000", "173202.600000", "173202.603000", "173202.606000", "173202.609000", "173202.612000", "173202.615000", "173202.618000", "173202.620000", "173202.623000", "173202.626000", "173202.629000", "173202.632000", "173202.645000", "173242.559000", "173242.562000", "173242.565000", "173242.568000", "173242.571000", "173242.574000", "173242.577000", "173242.580000", "173242.583000", "173242.585000", "173242.588000", "173242.591000", "173242.594000", "173242.597000", "173242.600000", "173242.603000", "173242.606000", "173242.609000", "173242.612000", "173242.615000", "173242.618000", "173242.620000", "173242.623000", "173242.626000", "173242.629000", "173242.632000", "173242.635000", "173322.559000", "173322.562000", "173322.565000", "173322.568000", "173322.571000", "173322.575000", "173322.578000", "173322.581000", "173322.584000", "173322.587000", "173322.599000", "173322.602000", "173322.605000", "173322.608000", "173322.611000", "173322.614000", "173322.617000", "173322.619000", "173322.622000", "173322.625000", "173322.628000", "173322.631000", "173322.634000", "173322.637000", "173322.640000", "173322.643000", "173402.559000", "173402.562000", "173402.565000", "173402.568000", "173402.571000", "173402.574000", "173402.577000", "173402.580000", "173402.583000", "173402.586000", "173402.588000", "173402.591000", "173402.594000", "173402.597000", "173402.600000", "173402.603000", "173402.606000", "173402.609000", "173402.612000", "173402.615000", "173402.618000", "173402.621000", "173402.624000", "173402.626000", "173402.629000", "173402.632000", "173402.635000", "173442.559000", "173442.562000", "173442.565000", "173442.568000", "173442.571000", "173442.574000", "173442.577000", "173442.580000", "173442.583000", "173442.585000", "173442.588000", "173442.591000", "173442.594000", "173442.597000", "173442.600000", "173442.603000", "173442.606000", "173442.609000", "173442.612000", "173442.615000", "173442.618000", "173442.621000", "173442.623000", "173442.626000", "173442.629000", "173442.632000", "173442.635000", "173522.559000", "173522.562000", "173522.565000", "173522.568000", "173522.571000", "173522.574000", "173522.577000", "173522.580000", "173522.583000", "173522.585000", "173522.588000", "173522.591000", "173522.594000", "173522.597000", "173522.600000", "173522.603000", "173522.606000", "173522.609000", "173522.612000", "173522.615000", "173522.618000", "173522.621000", "173522.623000", "173522.626000", "173522.629000", "173522.632000", "173522.635000", "173602.560000", "173602.563000", "173602.566000", "173602.569000", "173602.572000", "173602.575000", "173602.578000", "173602.581000", "173602.584000", "173602.587000", "173602.590000", "173602.593000", "173602.596000", "173602.599000", "173602.602000", "173602.604000", "173602.607000", "173602.610000", "173602.613000", "173602.616000", "173602.619000", "173602.622000", "173602.625000", "173602.628000", "173602.631000", "173602.634000", "173602.637000", "173642.559000", "173642.562000", "173642.565000", "173642.568000", "173642.571000", "173642.574000", "173642.577000", "173642.580000", "173642.583000", "173642.586000", "173642.589000", "173642.592000", "173642.594000", "173642.597000", "173642.600000", "173642.603000", "173642.606000", "173642.609000", "173642.612000", "173642.615000", "173642.618000", "173642.621000", "173642.624000", "173642.627000", "173642.630000", "173642.633000", "173642.635000", "173721.035000", "173721.038000", "173721.041000", "173721.044000", "173721.047000", "173721.050000", "173721.053000", "173721.056000", "173721.059000", "173721.062000", "173721.065000", "173721.068000", "173721.071000", "173721.074000", "173721.077000", "173721.080000", "173721.083000", "173721.086000", "173721.089000", "173721.092000", "173721.095000", "173721.098000", "173721.101000", "173721.104000", "173721.107000", "173721.110000"],
