{
  "AcquisitionMatrixPE": 104,
  "AcquisitionNumber": 1,
  "AcquisitionTime": "18:14:33.430000",
  "BandwidthPerPixelPhaseEncode": 17.17,
  "BaseResolution": 104,
  "BodyPartExamined": "BRAIN",
  "CoilString": "HC1-7;NC1_2",
  "ConsistencyInfo": "N4_VE11C_LATEST_20160120",
  "ConversionSoftware": "dcm2niix",
  "ConversionSoftwareVersion": "v1.0.20190902",
  "DerivedVendorReportedEchoSpacing": 0.000560011,
  "DeviceSerialNumber": "167006",
  "DwellTime": 2.1e-06,
  "EchoTime": 0.037,
  "EchoTrainLength": 104,
  "EffectiveEchoSpacing": 0.000560011,
  "FlipAngle": 52,
  "ImageComments": "Unaliased_MB4_PE3_LB",
  "ImageOrientationPatientDICOM": [0.999977, -0.00572834, -0.00374457, 0.00383961, 0.922531, -0.385905],
  "ImageType": [
    "ORIGINAL",
    "PRIMARY",
    "M",
    "MB",
    "ND",
    "MOSAIC"
],
  "ImagingFrequency": 123.259,
  "InPlanePhaseEncodingDirectionDICOM": "COL",
  "InstitutionAddress": "Chemin_Queen-Mary_4565_Montreal_District_CA_H3W_1W5",
  "InstitutionName": "IUGM",
  "InstitutionalDepartmentName": "Department",
  "MRAcquisitionType": "2D",
  "MagneticFieldStrength": 3,
  "Manufacturer": "Siemens",
  "ManufacturersModelName": "Prisma_fit",
  "Modality": "MR",
  "MultibandAccelerationFactor": 4,
  "PartialFourier": 1,
  "PatientPosition": "HFS",
  "PercentPhaseFOV": 100,
  "PhaseEncodingDirection": "j",
  "PhaseEncodingSteps": 104,
  "PhaseResolution": 1,
  "PixelBandwidth": 2290,
  "ProcedureStepDescription": "video_friends",
  "ProtocolName": "func_task-friends-s04e07b",
  "PulseSequenceDetails": "%CustomerSeq%_cmrr_mbep2d_bold",
  "ReceiveCoilActiveElements": "HC1-7;NC1,2",
  "ReceiveCoilName": "HeadNeck_64",
  "ReconMatrixPE": 104,
  "RepetitionTime": 1.49,
  "SAR": 0.0374169,
  "ScanOptions": "FS",
  "ScanningSequence": "EP",
  "SequenceName": "epfid2d1_104",
  "SequenceVariant": "SK_SS",
  "SeriesDescription": "func_task-friends-s04e07b",
  "SeriesNumber": 25,
  "ShimSetting": [619, -7289, -8815, 435, 10, -442, 59, 8],
  "SliceThickness": 2,
  "SliceTiming": [0, 0.7825, 0.0975, 0.88, 0.195, 0.98, 0.2925, 1.0775, 0.3925, 1.175, 0.49, 1.2725, 0.5875, 1.37, 0.685, 0, 0.7825, 0.0975, 0.88, 0.195, 0.98, 0.2925, 1.0775, 0.3925, 1.175, 0.49, 1.2725, 0.5875, 1.37, 0.685, 0, 0.7825, 0.0975, 0.88, 0.195, 0.98, 0.2925, 1.0775, 0.3925, 1.175, 0.49, 1.2725, 0.5875, 1.37, 0.685, 0, 0.7825, 0.0975, 0.88, 0.195, 0.98, 0.2925, 1.0775, 0.3925, 1.175, 0.49, 1.2725, 0.5875, 1.37, 0.685],
  "SoftwareVersions": "syngo_MR_E11",
  "SpacingBetweenSlices": 2,
  "StationName": "MRC35049",
  "TaskName": "s04e07b",
  "TotalReadoutTime": 0.0576811,
  "TxRefAmp": 240.684,
  "WipMemBlock": "e389f376-4af3-43df-a95b-58d5fadfa700||Sequence: R016 ve11c/master r/e634e98; Dec 19 2017 11:00:25 by eja",
  "dcmmeta_affine": [
    [-1.9999531507492065, 0.007679223082959652, -0.011330150067806244, 99.9322280883789],
    [0.011456680484116077, 1.8450613021850586, -0.7717627286911011, -68.67687225341797],
    [-0.007489141542464495, 0.7718095183372498, 1.8450621366500854, -62.02777862548828],
    [0.0, 0.0, 0.0, 1.0]
],
  "dcmmeta_reorient_transform": [
    [0.0, -1.0, 0.0, 103.0],
    [1.0, 0.0, 0.0, 0.0],
    [0.0, 0.0, 1.0, 0.0],
    [0.0, 0.0, 0.0, 1.0]
],
  "dcmmeta_shape": [104, 104, 60, 497],
  "dcmmeta_slice_dim": 2,
  "dcmmeta_version": 0.6,
  "global": {
    "const": {
      "AcquisitionMatrix": [104, 0, 0, 104],
      "AngioFlag": "N",
      "BitsAllocated": 16,
      "BitsStored": 16,
      "BodyPartExamined": "BRAIN",
      "Columns": 832,
      "EchoNumbers": 1,
      "EchoTime": 37.0,
      "EchoTrainLength": 104,
      "FlipAngle": 52.0,
      "HighBit": 15,
      "ImageOrientationPatient": [0.99997658188035, -0.0057283401726, -0.0037445707037, 0.0038396115486, 0.92253063494216, -0.3859047615363],
      "ImagePositionPatient": [-831.50137355392, -788.79650944663, 301.13331469041],
      "ImageType": [
        "ORIGINAL",
        "PRIMARY",
        "M",
        "MB",
        "ND",
        "MOSAIC"
],
      "ImagedNucleus": "1H",
      "ImagingFrequency": 123.258947,
      "InPlanePhaseEncodingDirection": "COL",
      "MRAcquisitionType": "2D",
      "MagneticFieldStrength": 3.0,
      "Manufacturer": "SIEMENS",
      "ManufacturerModelName": "Prisma_fit",
      "Modality": "MR",
      "NumberOfAverages": 1.0,
      "NumberOfPhaseEncodingSteps": 104,
      "PercentPhaseFieldOfView": 100.0,
      "PercentSampling": 100.0,
      "PerformedProcedureStepStartTime": "164603.076000",
      "PhotometricInterpretation": "MONOCHROME2",
      "PixelBandwidth": 2290.0,
      "PixelRepresentation": 0,
      "PixelSpacing": [2.0, 2.0],
      "ProtocolName": "func_task-friends-s04e07b",
      "RepetitionTime": 1490.0,
      "Rows": 832,
      "SAR": 0.03741689912545,
      "SamplesPerPixel": 1,
      "ScanOptions": "FS",
      "ScanningSequence": "EP",
      "SequenceName": "epfid2d1_104",
      "SequenceVariant": [
        "SK",
        "SS"
],
      "SeriesDescription": "func_task-friends-s04e07b",
      "SeriesNumber": 25,
      "SeriesTime": "181550.636000",
      "SliceLocation": -31.287551262939,
      "SliceThickness": 2.0,
      "SmallestImagePixelValue": 0,
      "SoftwareVersions": "syngo MR E11",
      "SpacingBetweenSlices": 2.0000000370809,
      "SpecificCharacterSet": "ISO_IR 100",
      "StudyID": "1",
      "StudyTime": "164603.012000",
      "TransmitCoilName": "Body",
      "VariableFlipAngleFlag": "N",
      "WindowCenterWidthExplanation": "Algo1",
      "dBdt": 0.0},
    "slices": {}
  },
  "time": {
    "samples": {
      "AcquisitionNumber": [1, 2, 3, 4, 5, 6, 7, 8, 9, 10, 11, 12, 13, 14, 15, 16, 17, 18, 19, 20, 21, 22, 23, 24, 25, 26, 27, 28, 29, 30, 31, 32, 33, 34, 35, 36, 37, 38, 39, 40, 41, 42, 43, 44, 45, 46, 47, 48, 49, 50, 51, 52, 53, 54, 55, 56, 57, 58, 59, 60, 61, 62, 63, 64, 65, 66, 67, 68, 69, 70, 71, 72, 73, 74, 75, 76, 77, 78, 79, 80, 81, 82, 83, 84, 85, 86, 87, 88, 89, 90, 91, 92, 93, 94, 95, 96, 97, 98, 99, 100, 101, 102, 103, 104, 105, 106, 107, 108, 109, 110, 111, 112, 113, 114, 115, 116, 117, 118, 119, 120, 121, 122, 123, 124, 125, 126, 127, 128, 129, 130, 131, 132, 133, 134, 135, 136, 137, 138, 139, 140, 141, 142, 143, 144, 145, 146, 147, 148, 149, 150, 151, 152, 153, 154, 155, 156, 157, 158, 159, 160, 161, 162, 163, 164, 165, 166, 167, 168, 169, 170, 171, 172, 173, 174, 175, 176, 177, 178, 179, 180, 181, 182, 183, 184, 185, 186, 187, 188, 189, 190, 191, 192, 193, 194, 195, 196, 197, 198, 199, 200, 201, 202, 203, 204, 205, 206, 207, 208, 209, 210, 211, 212, 213, 214, 215, 216, 217, 218, 219, 220, 221, 222, 223, 224, 225, 226, 227, 228, 229, 230, 231, 232, 233, 234, 235, 236, 237, 238, 239, 240, 241, 242, 243, 244, 245, 246, 247, 248, 249, 250, 251, 252, 253, 254, 255, 256, 257, 258, 259, 260, 261, 262, 263, 264, 265, 266, 267, 268, 269, 270, 271, 272, 273, 274, 275, 276, 277, 278, 279, 280, 281, 282, 283, 284, 285, 286, 287, 288, 289, 290, 291, 292, 293, 294, 295, 296, 297, 298, 299, 300, 301, 302, 303, 304, 305, 306, 307, 308, 309, 310, 311, 312, 313, 314, 315, 316, 317, 318, 319, 320, 321, 322, 323, 324, 325, 326, 327, 328, 329, 330, 331, 332, 333, 334, 335, 336, 337, 338, 339, 340, 341, 342, 343, 344, 345, 346, 347, 348, 349, 350, 351, 352, 353, 354, 355, 356, 357, 358, 359, 360, 361, 362, 363, 364, 365, 366, 367, 368, 369, 370, 371, 372, 373, 374, 375, 376, 377, 378, 379, 380, 381, 382, 383, 384, 385, 386, 387, 388, 389, 390, 391, 392, 393, 394, 395, 396, 397, 398, 399, 400, 401, 402, 403, 404, 405, 406, 407, 408, 409, 410, 411, 412, 413, 414, 415, 416, 417, 418, 419, 420, 421, 422, 423, 424, 425, 426, 427, 428, 429, 430, 431, 432, 433, 434, 435, 436, 437, 438, 439, 440, 441, 442, 443, 444, 445, 446, 447, 448, 449, 450, 451, 452, 453, 454, 455, 456, 457, 458, 459, 460, 461, 462, 463, 464, 465, 466, 467, 468, 469, 470, 471, 472, 473, 474, 475, 476, 477, 478, 479, 480, 481, 482, 483, 484, 485, 486, 487, 488, 489, 490, 491, 492, 493, 494, 495, 496, 497],
      "AcquisitionTime": ["181433.430000", "181434.920000", "181436.410000", "181437.900000", "181439.390000", "181440.880000", "181442.370000", "181443.860000", "181445.350000", "181446.840000", "181448.330000", "181449.820000", "181451.310000", "181452.800000", "181454.290000", "181455.780000", "181457.270000", "181458.760000", "181500.250000", "181501.740000", "181503.230000", "181504.720000", "181506.210000", "181507.700000", "181509.190000", "181510.680000", "181512.170000", "181513.660000", "181515.150000", "181516.640000", "181518.130000", "181519.620000", "181521.110000", "181522.600000", "181524.090000", "181525.580000", "181527.070000", "181528.560000", "181530.050000", "181531.540000", "181533.030000", "181534.520000", "181536.010000", "181537.500000", "181538.990000", "181540.480000", "181541.970000", "181543.460000", "181544.950000", "181546.440000", "181547.930000", "181549.420000", "181550.910000", "181552.400000", "181553.890000", "181555.380000", "181556.870000", "181558.360000", "181559.850000", "181601.340000", "181602.830000", "181604.320000", "181605.810000", "181607.300000", "181608.790000", "181610.280000", "181611.770000", "181613.260000", "181614.750000", "181616.240000", "181617.730000", "181619.220000", "181620.710000", "181622.200000", "181623.690000", "181625.180000", "181626.670000", "181628.160000", "181629.650000", "181631.140000", "181632.630000", "181634.120000", "181635.610000", "181637.100000", "181638.590000", "181640.080000", "181641.570000", "181643.060000", "181644.550000", "181646.040000", "181647.530000", "181649.020000", "181650.510000", "181652.000000", "181653.490000", "181654.980000", "181656.470000", "181657.960000", "181659.450000", "181700.940000", "181702.430000", "181703.920000", "181705.410000", "181706.900000", "181708.390000", "181709.880000", "181711.370000", "181712.860000", "181714.350000", "181715.840000", "181717.330000", "181718.820000", "181720.310000", "181721.800000", "181723.290000", "181724.780000", "181726.270000", "181727.760000", "181729.250000", "181730.740000", "181732.230000", "181733.720000", "181735.210000", "181736.700000", "181738.190000", "181739.680000", "181741.170000", "181742.660000", "181744.150000", "181745.640000", "181747.130000", "181748.620000", "181750.110000", "181751.600000", "181753.090000", "181754.580000", "181756.070000", "181757.560000", "181759.050000", "181800.540000", "181802.030000", "181803.520000", "181805.010000", "181806.500000", "181807.990000", "181809.480000", "181810.970000", "181812.460000", "181813.950000", "181815.440000", "181816.930000", "181818.420000", "181819.910000", "181821.400000", "181822.890000", "181824.380000", "181825.870000", "181827.360000", "181828.850000", "181830.340000", "181831.830000", "181833.320000", "181834.810000", "181836.300000", "181837.790000", "181839.280000", "181840.770000", "181842.260000", "181843.750000", "181845.240000", "181846.730000", "181848.220000", "181849.710000", "181851.200000", "181852.690000", "181854.180000", "181855.670000", "181857.160000", "181858.650000", "181900.140000", "181901.630000", "181903.120000", "181904.610000", "181906.100000", "181907.590000", "181909.080000", "181910.570000", "181912.060000", "181913.550000", "181915.040000", "181916.530000", "181918.020000", "181919.510000", "181921.000000", "181922.490000", "181923.980000", "181925.470000", "181926.960000", "181928.450000", "181929.940000", "181931.430000", "181932.920000", "181934.410000", "181935.900000", "181937.390000", "181938.880000", "181940.370000", "181941.860000", "181943.350000", "181944.840000", "181946.330000", "181947.820000", "181949.310000", "181950.800000", "181952.290000", "181953.780000", "181955.270000", "181956.760000", "181958.250000", "181959.740000", "182001.230000", "182002.720000", "182004.210000", "182005.700000", "182007.190000", "182008.680000", "182010.170000", "182011.660000", "182013.150000", "182014.640000", "182016.130000", "182017.620000", "182019.110000", "182020.600000", "182022.090000", "182023.580000", "182025.070000", "182026.560000", "182028.050000", "182029.540000", "182031.030000", "182032.520000", "182034.010000", "182035.500000", "182036.990000", "182038.480000", "182039.970000", "182041.460000", "182042.950000", "182044.440000", "182045.930000", "182047.420000", "182048.910000", "182050.400000", "182051.890000", "182053.380000", "182054.870000", "182056.360000", "182057.850000", "182059.340000", "182100.830000", "182102.320000", "182103.810000", "182105.300000", "182106.790000", "182108.280000", "182109.770000", "182111.260000", "182112.750000", "182114.240000", "182115.730000", "182117.220000", "182118.710000", "182120.200000", "182121.690000", "182123.180000", "182124.670000", "182126.160000", "182127.650000", "182129.140000", "182130.630000", "182132.120000", "182133.610000", "182135.100000", "182136.590000", "182138.080000", "182139.570000", "182141.060000", "182142.550000", "182144.040000", "182145.530000", "182147.020000", "182148.510000", "182150.000000", "182151.490000", "182152.980000", "182154.470000", "182155.960000", "182157.450000", "182158.940000", "182200.430000", "182201.920000", "182203.410000", "182204.900000", "182206.390000", "182207.880000", "182209.370000", "182210.860000", "182212.350000", "182213.840000", "182215.330000", "182216.820000", "182218.310000", "182219.800000", "182221.290000", "182222.780000", "182224.270000", "182225.760000", "182227.250000", "182228.740000", "182230.230000", "182231.720000", "182233.210000", "182234.700000", "182236.190000", "182237.680000", "182239.170000", "182240.660000", "182242.150000", "182243.640000", "182245.130000", "182246.620000", "182248.110000", "182249.600000", "182251.090000", "182252.580000", "182254.070000", "182255.560000", "182257.050000", "182258.540000", "182300.030000", "182301.520000", "182303.010000", "182304.500000", "182305.990000", "182307.480000", "182308.970000", "182310.460000", "182311.950000", "182313.440000", "182314.930000", "182316.420000", "182317.910000", "182319.400000", "182320.890000", "182322.380000", "182323.870000", "182325.360000", "182326.850000", "182328.340000", "182329.830000", "182331.320000", "182332.810000", "182334.300000", "182335.790000", "182337.280000", "182338.770000", "182340.260000", "182341.750000", "182343.240000", "182344.730000", "182346.220000", "182347.710000", "182349.200000", "182350.690000", "182352.180000", "182353.670000", "182355.160000", "182356.650000", "182358.140000", "182359.630000", "182401.120000", "182402.610000", "182404.100000", "182405.590000", "182407.080000", "182408.570000", "182410.060000", "182411.550000", "182413.040000", "182414.530000", "182416.020000", "182417.510000", "182419.000000", "182420.490000", "182421.980000", "182423.470000", "182424.960000", "182426.450000", "182427.940000", "182429.430000", "182430.920000", "182432.410000", "182433.900000", "182435.390000", "182436.880000", "182438.370000", "182439.860000", "182441.350000", "182442.840000", "182444.330000", "182445.820000", "182447.310000", "182448.800000", "182450.290000", "182451.780000", "182453.270000", "182454.760000", "182456.250000", "182457.740000", "182459.230000", "182500.720000", "182502.210000", "182503.700000", "182505.190000", "182506.680000", "182508.170000", "182509.660000", "182511.150000", "182512.640000", "182514.130000", "182515.620000", "182517.110000", "182518.600000", "182520.090000", "182521.580000", "182523.070000", "182524.560000", "182526.050000", "182527.540000", "182529.030000", "182530.520000", "182532.010000", "182533.500000", "182534.990000", "182536.480000", "182537.970000", "182539.460000", "182540.950000", "182542.440000", "182543.930000", "182545.420000", "182546.910000", "182548.400000", "182549.890000", "182551.380000", "182552.870000", "182554.360000", "182555.850000", "182557.340000", "182558.830000", "182600.320000", "182601.810000", "182603.300000", "182604.790000", "182606.280000", "182607.770000", "182609.260000", "182610.750000", "182612.240000", "182613.730000", "182615.220000", "182616.710000", "182618.200000", "182619.690000", "182621.180000", "182622.670000", "182624.160000", "182625.650000", "182627.140000", "182628.630000", "182630.120000", "182631.610000", "182633.100000", "182634.590000", "182636.080000", "182637.570000", "182639.060000", "182640.550000", "182642.040000", "182643.530000", "182645.020000", "182646.510000", "182648.000000", "182649.490000", "182650.980000", "182652.470000"],
      "ContentTime": ["181550.638000", "181550.642000", "181550.644000", "181550.647000", "181550.650000", "181550.663000", "181550.666000", "181550.669000", "181550.671000", "181550.674000", "181550.677000", "181550.680000", "181550.683000", "181550.686000", "181550.699000", "181550.702000", "181550.704000", "181550.707000", "181550.710000", "181550.713000", "181550.716000", "181550.719000", "181550.722000", "181610.598000", "181610.601000", "181610.604000", "181610.607000", "181610.617000", "181610.620000", "181610.623000", "181610.626000", "181610.629000", "181610.632000", "181610.635000", "181610.637000", "181610.640000", "181610.643000", "181610.646000", "181610.649000", "181610.652000", "181610.655000", "181610.658000", "181610.661000", "181630.598000", "181630.609000", "181630.613000", "181630.616000", "181630.619000", "181630.622000", "181630.625000", "181630.628000", "181630.631000", "181630.639000", "181630.642000", "181630.645000", "181630.648000", "181630.656000", "181630.659000", "181630.661000", "181630.664000", "181630.667000", "181630.670000", "181630.673000", "181650.598000", "181650.601000", "181650.604000", "181650.607000", "181650.610000", "181650.613000", "181650.616000", "181650.619000", "181650.621000", "181650.624000", "181650.627000", "181650.630000", "181650.633000", "181650.636000", "181650.639000", "181650.642000", "181650.645000", "181650.648000", "181650.651000", "181650.654000", "181650.656000", "181710.598000", "181710.601000", "181710.604000", "181710.607000", "181710.610000", "181710.613000", "181710.616000", "181710.618000", "181710.621000", "181710.624000", "181710.627000", "181710.630000", "181710.633000", "181710.636000", "181710.639000", "181710.642000", "181710.645000", "181710.648000", "181710.650000", "181710.653000", "181750.598000", "181750.602000", "181750.605000", "181750.608000", "181750.610000", "181750.613000", "181750.616000", "181750.619000", "181750.622000", "181750.625000", "181750.628000", "181750.631000", "181750.634000", "181750.636000", "181750.639000", "181750.642000", "181750.645000", "181750.648000", "181750.651000", "181750.654000", "181750.657000", "181750.660000", "181750.663000", "181750.666000", "181750.668000", "181750.671000", "181750.674000", "181830.598000", "181830.601000", "181830.604000", "181830.607000", "181830.610000", "181830.613000", "181830.616000", "181830.619000", "181830.622000", "181830.625000", "181830.627000", "181830.630000", "181830.633000", "181830.636000", "181830.639000", "181830.642000", "181830.645000", "181830.648000", "181830.651000", "181830.654000", "181830.657000", "181830.659000", "181830.662000", "181830.665000", "181830.668000", "181830.671000", "181830.674000", "181910.598000", "181910.601000", "181910.604000", "181910.607000", "181910.610000", "181910.613000", "181910.616000", "181910.619000", "181910.622000", "181910.625000", "181910.628000", "181910.631000", "181910.633000", "181910.636000", "181910.639000", "181910.642000", "181910.645000", "181910.648000", "181910.651000", "181910.654000", "181910.657000", "181910.660000", "181910.663000", "181910.666000", "181910.668000", "181910.671000", "181910.674000", "181950.598000", "181950.601000", "181950.604000", "181950.607000", "181950.610000", "181950.613000", "181950.616000", "181950.619000", "181950.622000", "181950.625000", "181950.627000", "181950.630000", "181950.633000", "181950.636000", "181950.639000", "181950.642000", "181950.645000", "181950.648000", "181950.651000", "181950.654000", "181950.657000", "181950.660000", "181950.662000", "181950.665000", "181950.668000", "181950.671000", "181950.674000", "182030.598000", "182030.601000", "182030.604000", "182030.607000", "182030.610000", "182030.613000", "182030.616000", "182030.619000", "182030.622000", "182030.625000", "182030.628000", "182030.631000", "182030.633000", "182030.636000", "182030.639000", "182030.642000", "182030.645000", "182030.648000", "182030.651000", "182030.654000", "182030.657000", "182030.660000", "182030.663000", "182030.666000", "182030.669000", "182030.671000", "182110.597000", "182110.600000", "182110.615000", "182110.618000", "182110.621000", "182110.624000", "182110.627000", "182110.630000", "182110.632000", "182110.635000", "182110.638000", "182110.641000", "182110.644000", "182110.647000", "182110.650000", "182110.653000", "182110.656000", "182110.659000", "182110.662000", "182110.664000", "182110.667000", "182110.670000", "182110.673000", "182110.676000", "182110.679000", "182110.682000", "182110.685000", "182150.598000", "182150.601000", "182150.604000", "182150.607000", "182150.610000", "182150.613000", "182150.616000", "182150.619000", "182150.622000", "182150.625000", "182150.627000", "182150.630000", "182150.633000", "182150.636000", "182150.639000", "182150.642000", "182150.645000", "182150.648000", "182150.651000", "182150.654000", "182150.656000", "182150.659000", "182150.662000", "182150.665000", "182150.668000", "182150.671000", "182150.674000", "182230.598000", "182230.601000", "182230.604000", "182230.607000", "182230.610000", "182230.613000", "182230.616000", "182230.619000", "182230.622000", "182230.625000", "182230.628000", "182230.630000", "182230.633000", "182230.636000", "182230.639000", "182230.642000", "182230.645000", "182230.648000", "182230.651000", "182230.654000", "182230.657000", "182230.660000", "182230.663000", "182230.665000", "182230.668000", "182230.671000", "182230.674000", "182310.598000", "182310.601000", "182310.604000", "182310.607000", "182310.610000", "182310.613000", "182310.616000", "182310.619000", "182310.622000", "182310.625000", "182310.627000", "182310.630000", "182310.633000", "182310.636000", "182310.639000", "182310.642000", "182310.645000", "182310.648000", "182310.651000", "182310.654000", "182310.657000", "182310.660000", "182310.663000", "182310.666000", "182310.669000", "182310.671000", "182310.674000", "182350.598000", "182350.601000", "182350.604000", "182350.607000", "182350.610000", "182350.613000", "182350.616000", "182350.619000", "182350.622000", "182350.625000", "182350.627000", "182350.630000", "182350.633000", "182350.636000", "182350.639000", "182350.642000", "182350.645000", "182350.648000", "182350.651000", "182350.654000", "182350.657000", "182350.660000", "182350.662000", "182350.665000", "182350.668000", "182350.671000", "182350.674000", "182430.598000", "182430.601000", "182430.604000", "182430.607000", "182430.610000", "182430.613000", "182430.616000", "182430.619000", "182430.622000", "182430.625000", "182430.628000", "182430.631000", "182430.634000", "182430.637000", "182430.640000", "182430.643000", "182430.646000", "182430.649000", "182430.651000", "182430.654000", "182430.657000", "182430.660000", "182430.663000", "182430.666000", "182430.669000", "182430.672000", "182430.675000", "182510.598000", "182510.601000", "182510.604000", "182510.607000", "182510.610000", "182510.613000", "182510.616000", "182510.619000", "182510.622000", "182510.625000", "182510.628000", "182510.631000", "182510.634000", "182510.637000", "182510.640000", "182510.643000", "182510.646000", "182510.649000", "182510.652000", "182510.655000", "182510.658000", "182510.661000", "182510.664000", "182510.667000", "182510.669000", "182510.672000", "182550.597000", "182550.600000", "182550.603000", "182550.616000", "182550.619000", "182550.622000", "182550.624000", "182550.627000", "182550.630000", "182550.633000", "182550.636000", "182550.639000", "182550.642000", "182550.645000", "182550.648000", "182550.651000", "182550.654000", "182550.657000", "182550.660000", "182550.663000", "182550.666000", "182550.669000", "182550.671000", "182550.674000", "182550.677000", "182550.680000", "182550.683000", "182630.598000", "182630.601000", "182630.604000", "182630.607000", "182630.610000", "182630.613000", "182630.616000", "182630.619000", "182630.622000", "182630.625000", "182630.628000", "182630.631000", "182630.634000", "182630.637000", "182630.640000", "182630.643000", "182630.646000", "182630.649000", "182630.652000", "182630.655000", "182630.657000", "182630.660000", "182630.663000", "182630.666000", "182630.669000", "182630.672000", "182630.675000", "182655.067000", "182655.070000", "182655.073000", "182655.076000", "182655.079000", "182655.082000", "182655.085000", "182655.088000", "182655.090000", "182655.093000", "182655.096000", "182655.099000", "182655.102000", "182655.105000", "182655.108000", "182655.111000", "182655.114000"],
