{
  "AcquisitionMatrixPE": 104,
  "AcquisitionNumber": 1,
  "AcquisitionTime": "16:50:9.840000",
  "BandwidthPerPixelPhaseEncode": 17.17,
  "BaseResolution": 104,
  "BodyPartExamined": "BRAIN",
  "CoilString": "HC1-7;NC1_2",
  "ConsistencyInfo": "N4_VE11C_LATEST_20160120",
  "ConversionSoftware": "dcm2niix",
  "ConversionSoftwareVersion": "v1.0.20190902",
  "DerivedVendorReportedEchoSpacing": 0.000560011,
  "DeviceSerialNumber": "167006",
  "DwellTime": 2.1e-06,
  "EchoTime": 0.037,
  "EchoTrainLength": 104,
  "EffectiveEchoSpacing": 0.000560011,
  "FlipAngle": 52,
  "ImageComments": "Unaliased_MB4_PE3_LB",
  "ImageOrientationPatientDICOM": [0.999977, -0.00572834, -0.00374457, 0.00383961, 0.922531, -0.385905],
  "ImageType": [
    "ORIGINAL",
    "PRIMARY",
    "M",
    "MB",
    "ND",
    "MOSAIC"
],
  "ImagingFrequency": 123.259,
  "InPlanePhaseEncodingDirectionDICOM": "COL",
  "InstitutionAddress": "Chemin_Queen-Mary_4565_Montreal_District_CA_H3W_1W5",
  "InstitutionName": "IUGM",
  "InstitutionalDepartmentName": "Department",
  "MRAcquisitionType": "2D",
  "MagneticFieldStrength": 3,
  "Manufacturer": "Siemens",
  "ManufacturersModelName": "Prisma_fit",
  "Modality": "MR",
  "MultibandAccelerationFactor": 4,
  "PartialFourier": 1,
  "PatientPosition": "HFS",
  "PercentPhaseFOV": 100,
  "PhaseEncodingDirection": "j",
  "PhaseEncodingSteps": 104,
  "PhaseResolution": 1,
  "PixelBandwidth": 2290,
  "ProcedureStepDescription": "video_friends",
  "ProtocolName": "func_task-friends-s04e04a",
  "PulseSequenceDetails": "%CustomerSeq%_cmrr_mbep2d_bold",
  "ReceiveCoilActiveElements": "HC1-7;NC1,2",
  "ReceiveCoilName": "HeadNeck_64",
  "ReconMatrixPE": 104,
  "RepetitionTime": 1.49,
  "SAR": 0.0374025,
  "ScanOptions": "FS",
  "ScanningSequence": "EP",
  "SequenceName": "epfid2d1_104",
  "SequenceVariant": "SK_SS",
  "SeriesDescription": "func_task-friends-s04e04a",
  "SeriesNumber": 11,
  "ShimSetting": [619, -7289, -8815, 435, 10, -442, 59, 8],
  "SliceThickness": 2,
  "SliceTiming": [0, 0.785, 0.1, 0.8825, 0.1975, 0.98, 0.295, 1.08, 0.3925, 1.1775, 0.49, 1.275, 0.59, 1.3725, 0.6875, 0, 0.785, 0.1, 0.8825, 0.1975, 0.98, 0.295, 1.08, 0.3925, 1.1775, 0.49, 1.275, 0.59, 1.3725, 0.6875, 0, 0.785, 0.1, 0.8825, 0.1975, 0.98, 0.295, 1.08, 0.3925, 1.1775, 0.49, 1.275, 0.59, 1.3725, 0.6875, 0, 0.785, 0.1, 0.8825, 0.1975, 0.98, 0.295, 1.08, 0.3925, 1.1775, 0.49, 1.275, 0.59, 1.3725, 0.6875],
  "SoftwareVersions": "syngo_MR_E11",
  "SpacingBetweenSlices": 2,
  "StationName": "MRC35049",
  "TaskName": "s04e04a",
  "TotalReadoutTime": 0.0576811,
  "TxRefAmp": 240.684,
  "WipMemBlock": "63ad7725-f633-448f-bfe1-e7f42111e083||Sequence: R016 ve11c/master r/e634e98; Dec 19 2017 11:00:25 by eja",
  "dcmmeta_affine": [
    [-1.9999531507492065, 0.007679223082959652, -0.011330150067806244, 99.9322280883789],
    [0.011456680484116077, 1.8450613021850586, -0.7717627286911011, -68.67687225341797],
    [-0.007489141542464495, 0.7718095183372498, 1.8450621366500854, -62.02777862548828],
    [0.0, 0.0, 0.0, 1.0]
],
  "dcmmeta_reorient_transform": [
    [0.0, -1.0, 0.0, 103.0],
    [1.0, 0.0, 0.0, 0.0],
    [0.0, 0.0, 1.0, 0.0],
    [0.0, 0.0, 0.0, 1.0]
],
  "dcmmeta_shape": [104, 104, 60, 453],
  "dcmmeta_slice_dim": 2,
  "dcmmeta_version": 0.6,
  "global": {
    "const": {
      "AcquisitionMatrix": [104, 0, 0, 104],
      "AngioFlag": "N",
      "BitsAllocated": 16,
      "BitsStored": 16,
      "BodyPartExamined": "BRAIN",
      "Columns": 832,
      "EchoNumbers": 1,
      "EchoTime": 37.0,
      "EchoTrainLength": 104,
      "FlipAngle": 52.0,
      "HighBit": 15,
      "ImageOrientationPatient": [0.99997658188035, -0.0057283401726, -0.0037445707037, 0.0038396115486, 0.92253063494216, -0.3859047615363],
      "ImagePositionPatient": [-831.50137355392, -788.79650944663, 301.13331469041],
      "ImageType": [
        "ORIGINAL",
        "PRIMARY",
        "M",
        "MB",
        "ND",
        "MOSAIC"
],
      "ImagedNucleus": "1H",
      "ImagingFrequency": 123.25892,
      "InPlanePhaseEncodingDirection": "COL",
      "MRAcquisitionType": "2D",
      "MagneticFieldStrength": 3.0,
      "Manufacturer": "SIEMENS",
      "ManufacturerModelName": "Prisma_fit",
      "Modality": "MR",
      "NumberOfAverages": 1.0,
      "NumberOfPhaseEncodingSteps": 104,
      "PercentPhaseFieldOfView": 100.0,
      "PercentSampling": 100.0,
      "PerformedProcedureStepStartTime": "164603.076000",
      "PhotometricInterpretation": "MONOCHROME2",
      "PixelBandwidth": 2290.0,
      "PixelRepresentation": 0,
      "PixelSpacing": [2.0, 2.0],
      "ProtocolName": "func_task-friends-s04e04a",
      "RepetitionTime": 1490.0,
      "Rows": 832,
      "SAR": 0.03740245266136,
      "SamplesPerPixel": 1,
      "ScanOptions": "FS",
      "ScanningSequence": "EP",
      "SequenceName": "epfid2d1_104",
      "SequenceVariant": [
        "SK",
        "SS"
],
      "SeriesDescription": "func_task-friends-s04e04a",
      "SeriesNumber": 11,
      "SeriesTime": "165142.587000",
      "SliceLocation": -31.287551262939,
      "SliceThickness": 2.0,
      "SmallestImagePixelValue": 0,
      "SoftwareVersions": "syngo MR E11",
      "SpacingBetweenSlices": 2.0000000370809,
      "SpecificCharacterSet": "ISO_IR 100",
      "StudyID": "1",
      "StudyTime": "164603.012000",
      "TransmitCoilName": "Body",
      "VariableFlipAngleFlag": "N",
      "WindowCenterWidthExplanation": "Algo1",
      "dBdt": 0.0},
    "slices": {}
  },
  "time": {
    "samples": {
      "AcquisitionNumber": [1, 2, 3, 4, 5, 6, 7, 8, 9, 10, 11, 12, 13, 14, 15, 16, 17, 18, 19, 20, 21, 22, 23, 24, 25, 26, 27, 28, 29, 30, 31, 32, 33, 34, 35, 36, 37, 38, 39, 40, 41, 42, 43, 44, 45, 46, 47, 48, 49, 50, 51, 52, 53, 54, 55, 56, 57, 58, 59, 60, 61, 62, 63, 64, 65, 66, 67, 68, 69, 70, 71, 72, 73, 74, 75, 76, 77, 78, 79, 80, 81, 82, 83, 84, 85, 86, 87, 88, 89, 90, 91, 92, 93, 94, 95, 96, 97, 98, 99, 100, 101, 102, 103, 104, 105, 106, 107, 108, 109, 110, 111, 112, 113, 114, 115, 116, 117, 118, 119, 120, 121, 122, 123, 124, 125, 126, 127, 128, 129, 130, 131, 132, 133, 134, 135, 136, 137, 138, 139, 140, 141, 142, 143, 144, 145, 146, 147, 148, 149, 150, 151, 152, 153, 154, 155, 156, 157, 158, 159, 160, 161, 162, 163, 164, 165, 166, 167, 168, 169, 170, 171, 172, 173, 174, 175, 176, 177, 178, 179, 180, 181, 182, 183, 184, 185, 186, 187, 188, 189, 190, 191, 192, 193, 194, 195, 196, 197, 198, 199, 200, 201, 202, 203, 204, 205, 206, 207, 208, 209, 210, 211, 212, 213, 214, 215, 216, 217, 218, 219, 220, 221, 222, 223, 224, 225, 226, 227, 228, 229, 230, 231, 232, 233, 234, 235, 236, 237, 238, 239, 240, 241, 242, 243, 244, 245, 246, 247, 248, 249, 250, 251, 252, 253, 254, 255, 256, 257, 258, 259, 260, 261, 262, 263, 264, 265, 266, 267, 268, 269, 270, 271, 272, 273, 274, 275, 276, 277, 278, 279, 280, 281, 282, 283, 284, 285, 286, 287, 288, 289, 290, 291, 292, 293, 294, 295, 296, 297, 298, 299, 300, 301, 302, 303, 304, 305, 306, 307, 308, 309, 310, 311, 312, 313, 314, 315, 316, 317, 318, 319, 320, 321, 322, 323, 324, 325, 326, 327, 328, 329, 330, 331, 332, 333, 334, 335, 336, 337, 338, 339, 340, 341, 342, 343, 344, 345, 346, 347, 348, 349, 350, 351, 352, 353, 354, 355, 356, 357, 358, 359, 360, 361, 362, 363, 364, 365, 366, 367, 368, 369, 370, 371, 372, 373, 374, 375, 376, 377, 378, 379, 380, 381, 382, 383, 384, 385, 386, 387, 388, 389, 390, 391, 392, 393, 394, 395, 396, 397, 398, 399, 400, 401, 402, 403, 404, 405, 406, 407, 408, 409, 410, 411, 412, 413, 414, 415, 416, 417, 418, 419, 420, 421, 422, 423, 424, 425, 426, 427, 428, 429, 430, 431, 432, 433, 434, 435, 436, 437, 438, 439, 440, 441, 442, 443, 444, 445, 446, 447, 448, 449, 450, 451, 452, 453],
      "AcquisitionTime": ["165009.840000", "165011.330000", "165012.820000", "165014.310000", "165015.800000", "165017.290000", "165018.780000", "165020.270000", "165021.760000", "165023.250000", "165024.740000", "165026.230000", "165027.720000", "165029.210000", "165030.700000", "165032.190000", "165033.680000", "165035.170000", "165036.660000", "165038.150000", "165039.640000", "165041.130000", "165042.620000", "165044.110000", "165045.600000", "165047.090000", "165048.580000", "165050.070000", "165051.560000", "165053.050000", "165054.540000", "165056.030000", "165057.520000", "165059.010000", "165100.500000", "165101.990000", "165103.480000", "165104.970000", "165106.460000", "165107.950000", "165109.440000", "165110.930000", "165112.420000", "165113.910000", "165115.400000", "165116.890000", "165118.380000", "165119.870000", "165121.360000", "165122.850000", "165124.340000", "165125.830000", "165127.320000", "165128.810000", "165130.300000", "165131.790000", "165133.280000", "165134.770000", "165136.260000", "165137.750000", "165139.240000", "165140.730000", "165142.220000", "165143.710000", "165145.200000", "165146.690000", "165148.180000", "165149.670000", "165151.160000", "165152.650000", "165154.140000", "165155.630000", "165157.120000", "165158.610000", "165200.100000", "165201.590000", "165203.080000", "165204.570000", "165206.060000", "165207.550000", "165209.040000", "165210.530000", "165212.020000", "165213.510000", "165215.000000", "165216.490000", "165217.980000", "165219.470000", "165220.960000", "165222.450000", "165223.940000", "165225.430000", "165226.920000", "165228.410000", "165229.900000", "165231.390000", "165232.880000", "165234.370000", "165235.860000", "165237.350000", "165238.840000", "165240.330000", "165241.820000", "165243.310000", "165244.800000", "165246.290000", "165247.780000", "165249.270000", "165250.760000", "165252.250000", "165253.740000", "165255.230000", "165256.720000", "165258.210000", "165259.700000", "165301.190000", "165302.680000", "165304.170000", "165305.660000", "165307.150000", "165308.640000", "165310.130000", "165311.620000", "165313.110000", "165314.600000", "165316.090000", "165317.580000", "165319.070000", "165320.560000", "165322.050000", "165323.540000", "165325.030000", "165326.520000", "165328.010000", "165329.500000", "165330.990000", "165332.480000", "165333.970000", "165335.460000", "165336.950000", "165338.440000", "165339.930000", "165341.420000", "165342.910000", "165344.400000", "165345.890000", "165347.380000", "165348.870000", "165350.360000", "165351.850000", "165353.340000", "165354.830000", "165356.320000", "165357.810000", "165359.300000", "165400.790000", "165402.280000", "165403.770000", "165405.260000", "165406.750000", "165408.240000", "165409.730000", "165411.220000", "165412.710000", "165414.200000", "165415.690000", "165417.180000", "165418.670000", "165420.160000", "165421.650000", "165423.140000", "165424.630000", "165426.120000", "165427.610000", "165429.100000", "165430.590000", "165432.080000", "165433.570000", "165435.060000", "165436.550000", "165438.040000", "165439.530000", "165441.020000", "165442.510000", "165444.000000", "165445.490000", "165446.980000", "165448.470000", "165449.960000", "165451.450000", "165452.940000", "165454.430000", "165455.920000", "165457.410000", "165458.900000", "165500.390000", "165501.880000", "165503.370000", "165504.860000", "165506.350000", "165507.840000", "165509.330000", "165510.820000", "165512.310000", "165513.800000", "165515.290000", "165516.780000", "165518.270000", "165519.760000", "165521.250000", "165522.740000", "165524.230000", "165525.720000", "165527.210000", "165528.700000", "165530.190000", "165531.680000", "165533.170000", "165534.660000", "165536.150000", "165537.640000", "165539.130000", "165540.620000", "165542.110000", "165543.600000", "165545.090000", "165546.580000", "165548.070000", "165549.560000", "165551.050000", "165552.540000", "165554.030000", "165555.520000", "165557.010000", "165558.500000", "165559.990000", "165601.480000", "165602.970000", "165604.460000", "165605.950000", "165607.440000", "165608.930000", "165610.420000", "165611.910000", "165613.400000", "165614.890000", "165616.380000", "165617.870000", "165619.360000", "165620.850000", "165622.340000", "165623.830000", "165625.320000", "165626.810000", "165628.300000", "165629.790000", "165631.280000", "165632.770000", "165634.260000", "165635.750000", "165637.240000", "165638.730000", "165640.220000", "165641.710000", "165643.200000", "165644.690000", "165646.180000", "165647.670000", "165649.160000", "165650.650000", "165652.140000", "165653.630000", "165655.120000", "165656.610000", "165658.100000", "165659.590000", "165701.080000", "165702.570000", "165704.060000", "165705.550000", "165707.040000", "165708.530000", "165710.020000", "165711.510000", "165713.000000", "165714.490000", "165715.980000", "165717.470000", "165718.960000", "165720.450000", "165721.940000", "165723.430000", "165724.920000", "165726.410000", "165727.900000", "165729.390000", "165730.880000", "165732.370000", "165733.860000", "165735.350000", "165736.840000", "165738.330000", "165739.820000", "165741.310000", "165742.800000", "165744.290000", "165745.780000", "165747.270000", "165748.760000", "165750.250000", "165751.740000", "165753.230000", "165754.720000", "165756.210000", "165757.700000", "165759.190000", "165800.680000", "165802.170000", "165803.660000", "165805.150000", "165806.640000", "165808.130000", "165809.620000", "165811.110000", "165812.600000", "165814.090000", "165815.580000", "165817.070000", "165818.560000", "165820.050000", "165821.540000", "165823.030000", "165824.520000", "165826.010000", "165827.500000", "165828.990000", "165830.480000", "165831.970000", "165833.460000", "165834.950000", "165836.440000", "165837.930000", "165839.420000", "165840.910000", "165842.400000", "165843.890000", "165845.380000", "165846.870000", "165848.360000", "165849.850000", "165851.340000", "165852.830000", "165854.320000", "165855.810000", "165857.300000", "165858.790000", "165900.280000", "165901.770000", "165903.260000", "165904.750000", "165906.240000", "165907.730000", "165909.220000", "165910.710000", "165912.200000", "165913.690000", "165915.180000", "165916.670000", "165918.160000", "165919.650000", "165921.140000", "165922.630000", "165924.120000", "165925.610000", "165927.100000", "165928.590000", "165930.080000", "165931.570000", "165933.060000", "165934.550000", "165936.040000", "165937.530000", "165939.020000", "165940.510000", "165942.000000", "165943.490000", "165944.980000", "165946.470000", "165947.960000", "165949.450000", "165950.940000", "165952.430000", "165953.920000", "165955.410000", "165956.900000", "165958.390000", "165959.880000", "170001.370000", "170002.860000", "170004.350000", "170005.840000", "170007.330000", "170008.820000", "170010.310000", "170011.800000", "170013.290000", "170014.780000", "170016.270000", "170017.760000", "170019.250000", "170020.740000", "170022.230000", "170023.720000", "170025.210000", "170026.700000", "170028.190000", "170029.680000", "170031.170000", "170032.660000", "170034.150000", "170035.640000", "170037.130000", "170038.620000", "170040.110000", "170041.600000", "170043.090000", "170044.580000", "170046.070000", "170047.560000", "170049.050000", "170050.540000", "170052.030000", "170053.520000", "170055.010000", "170056.500000", "170057.990000", "170059.480000", "170100.970000", "170102.460000", "170103.950000", "170105.440000", "170106.930000", "170108.420000", "170109.910000", "170111.400000", "170112.890000", "170114.380000", "170115.870000", "170117.360000", "170118.850000", "170120.340000", "170121.830000", "170123.320000"],
      "ContentTime": ["165142.589000", "165142.593000", "165142.595000", "165142.598000", "165142.601000", "165142.604000", "165142.607000", "165142.610000", "165142.613000", "165142.621000", "165142.624000", "165142.626000", "165142.629000", "165142.632000", "165142.635000", "165142.640000", "165142.643000", "165142.646000", "165142.648000", "165142.651000", "165222.559000", "165222.562000", "165222.565000", "165222.568000", "165222.571000", "165222.574000", "165222.577000", "165222.580000", "165222.583000", "165222.585000", "165222.588000", "165222.591000", "165222.594000", "165222.597000", "165222.600000", "165222.603000", "165222.606000", "165222.616000", "165222.619000", "165222.622000", "165222.625000", "165222.628000", "165222.631000", "165222.634000", "165222.637000", "165222.640000", "165222.642000", "165222.645000", "165222.648000", "165222.651000", "165222.654000", "165222.657000", "165222.660000", "165222.663000", "165222.665000", "165222.668000", "165222.671000", "165222.674000", "165222.677000", "165242.559000", "165242.562000", "165242.565000", "165242.568000", "165242.571000", "165242.574000", "165242.577000", "165242.580000", "165242.583000", "165242.586000", "165242.589000", "165242.592000", "165242.594000", "165242.597000", "165242.600000", "165242.603000", "165242.606000", "165242.609000", "165242.612000", "165242.615000", "165302.559000", "165302.562000", "165302.565000", "165302.568000", "165302.571000", "165302.574000", "165302.577000", "165302.580000", "165302.583000", "165302.585000", "165302.588000", "165302.591000", "165302.594000", "165302.597000", "165302.600000", "165302.603000", "165302.606000", "165302.609000", "165302.612000", "165302.615000", "165302.617000", "165322.559000", "165322.562000", "165322.565000", "165322.568000", "165322.571000", "165322.574000", "165322.577000", "165322.580000", "165322.583000", "165322.585000", "165322.588000", "165322.591000", "165322.594000", "165322.597000", "165322.600000", "165322.603000", "165322.606000", "165322.609000", "165322.611000", "165322.614000", "165342.559000", "165342.562000", "165342.565000", "165342.568000", "165342.571000", "165342.574000", "165342.576000", "165342.579000", "165342.582000", "165342.600000", "165342.603000", "165342.606000", "165342.609000", "165342.612000", "165342.615000", "165342.618000", "165342.620000", "165342.623000", "165342.626000", "165342.629000", "165422.560000", "165422.563000", "165422.566000", "165422.569000", "165422.572000", "165422.575000", "165422.578000", "165422.581000", "165422.583000", "165422.586000", "165422.589000", "165422.592000", "165422.595000", "165422.598000", "165422.601000", "165422.604000", "165422.607000", "165422.610000", "165422.613000", "165422.616000", "165422.637000", "165422.640000", "165422.643000", "165422.645000", "165422.648000", "165422.651000", "165422.654000", "165422.657000", "165422.660000", "165502.559000", "165502.562000", "165502.565000", "165502.568000", "165502.571000", "165502.574000", "165502.577000", "165502.580000", "165502.583000", "165502.585000", "165502.588000", "165502.591000", "165502.594000", "165502.597000", "165502.600000", "165502.603000", "165502.606000", "165502.609000", "165502.612000", "165502.615000", "165502.617000", "165502.620000", "165502.624000", "165502.627000", "165502.630000", "165502.633000", "165542.559000", "165542.562000", "165542.565000", "165542.568000", "165542.571000", "165542.574000", "165542.577000", "165542.580000", "165542.582000", "165542.585000", "165542.588000", "165542.591000", "165542.594000", "165542.597000", "165542.600000", "165542.603000", "165542.606000", "165542.609000", "165542.612000", "165542.615000", "165542.618000", "165542.621000", "165542.624000", "165542.627000", "165542.630000", "165542.632000", "165542.635000", "165602.559000", "165602.562000", "165602.565000", "165602.568000", "165602.571000", "165602.574000", "165602.577000", "165602.580000", "165602.583000", "165602.586000", "165602.588000", "165602.591000", "165602.594000", "165602.597000", "165642.559000", "165642.562000", "165642.565000", "165642.568000", "165642.573000", "165642.576000", "165642.579000", "165642.582000", "165642.585000", "165642.588000", "165642.591000", "165642.594000", "165642.597000", "165642.600000", "165642.603000", "165642.606000", "165642.609000", "165642.612000", "165642.615000", "165642.618000", "165642.625000", "165642.628000", "165642.631000", "165642.634000", "165642.637000", "165642.640000", "165722.559000", "165722.562000", "165722.565000", "165722.568000", "165722.571000", "165722.574000", "165722.577000", "165722.580000", "165722.583000", "165722.586000", "165722.589000", "165722.592000", "165722.595000", "165722.598000", "165722.600000", "165722.603000", "165722.606000", "165722.609000", "165722.612000", "165722.615000", "165722.618000", "165722.621000", "165722.624000", "165722.627000", "165722.630000", "165722.633000", "165722.636000", "165802.559000", "165802.562000", "165802.565000", "165802.568000", "165802.571000", "165802.574000", "165802.577000", "165802.580000", "165802.583000", "165802.586000", "165802.589000", "165802.592000", "165802.594000", "165802.597000", "165802.600000", "165802.603000", "165802.606000", "165802.609000", "165802.612000", "165802.615000", "165802.618000", "165802.621000", "165802.624000", "165802.627000", "165802.630000", "165802.633000", "165802.636000", "165842.559000", "165842.562000", "165842.565000", "165842.568000", "165842.571000", "165842.574000", "165842.577000", "165842.580000", "165842.583000", "165842.586000", "165842.588000", "165842.591000", "165842.594000", "165842.597000", "165842.600000", "165842.603000", "165842.606000", "165842.609000", "165842.612000", "165842.615000", "165842.618000", "165842.621000", "165842.624000", "165842.627000", "165842.629000", "165842.632000", "165842.635000", "165922.559000", "165922.562000", "165922.565000", "165922.568000", "165922.571000", "165922.586000", "165922.589000", "165922.592000", "165922.595000", "165922.598000", "165922.601000", "165922.604000", "165922.607000", "165922.610000", "165922.613000", "165922.615000", "165922.618000", "165922.621000", "165922.624000", "165922.627000", "165922.630000", "165922.633000", "165922.636000", "165922.639000", "165922.642000", "165922.645000", "165922.648000", "170002.559000", "170002.562000", "170002.565000", "170002.568000", "170002.571000", "170002.574000", "170002.577000", "170002.580000", "170002.583000", "170002.586000", "170002.589000", "170002.592000", "170002.594000", "170002.597000", "170002.600000", "170002.603000", "170002.606000", "170002.609000", "170002.612000", "170002.615000", "170002.618000", "170002.621000", "170002.624000", "170002.627000", "170002.630000", "170002.633000", "170002.635000", "170042.559000", "170042.562000", "170042.565000", "170042.568000", "170042.571000", "170042.574000", "170042.577000", "170042.580000", "170042.583000", "170042.586000", "170042.589000", "170042.592000", "170042.594000", "170042.597000", "170042.600000", "170042.603000", "170042.606000", "170042.609000", "170042.612000", "170042.615000", "170042.618000", "170042.621000", "170042.624000", "170042.627000", "170042.630000", "170042.633000", "170042.635000", "170122.559000", "170122.562000", "170122.565000", "170122.568000", "170122.572000", "170122.575000", "170122.577000", "170122.580000", "170122.583000", "170122.586000", "170122.589000", "170122.592000", "170122.595000", "170122.598000", "170122.601000", "170122.604000", "170122.607000", "170122.610000", "170122.613000", "170122.616000", "170122.619000", "170122.622000", "170122.625000", "170122.628000", "170122.631000", "170122.634000", "170125.733000", "170125.737000", "170125.740000"],
