{
  "AcquisitionMatrixPE": 104,
  "AcquisitionNumber": 1,
  "AcquisitionTime": "18:40:21.532500",
  "BandwidthPerPixelPhaseEncode": 17.17,
  "BaseResolution": 104,
  "BodyPartExamined": "BRAIN",
  "CoilString": "HC1-7;NC1_2",
  "ConsistencyInfo": "N4_VE11C_LATEST_20160120",
  "ConversionSoftware": "dcm2niix",
  "ConversionSoftwareVersion": "v1.0.20190902",
  "DerivedVendorReportedEchoSpacing": 0.000560011,
  "DeviceSerialNumber": "167006",
  "DwellTime": 2.1e-06,
  "EchoTime": 0.037,
  "EchoTrainLength": 104,
  "EffectiveEchoSpacing": 0.000560011,
  "FlipAngle": 52,
  "ImageComments": "Unaliased_MB4_PE3_LB",
  "ImageOrientationPatientDICOM": [0.999977, -0.00572834, -0.00374457, 0.00383961, 0.922531, -0.385905],
  "ImageType": [
    "ORIGINAL",
    "PRIMARY",
    "M",
    "MB",
    "ND",
    "MOSAIC"
],
  "ImagingFrequency": 123.259,
  "InPlanePhaseEncodingDirectionDICOM": "COL",
  "InstitutionAddress": "Chemin_Queen-Mary_4565_Montreal_District_CA_H3W_1W5",
  "InstitutionName": "IUGM",
  "InstitutionalDepartmentName": "Department",
  "MRAcquisitionType": "2D",
  "MagneticFieldStrength": 3,
  "Manufacturer": "Siemens",
  "ManufacturersModelName": "Prisma_fit",
  "Modality": "MR",
  "MultibandAccelerationFactor": 4,
  "PartialFourier": 1,
  "PatientPosition": "HFS",
  "PercentPhaseFOV": 100,
  "PhaseEncodingDirection": "j",
  "PhaseEncodingSteps": 104,
  "PhaseResolution": 1,
  "PixelBandwidth": 2290,
  "ProcedureStepDescription": "video_friends",
  "ProtocolName": "func_task-friends-s04e08b",
  "PulseSequenceDetails": "%CustomerSeq%_cmrr_mbep2d_bold",
  "ReceiveCoilActiveElements": "HC1-7;NC1,2",
  "ReceiveCoilName": "HeadNeck_64",
  "ReconMatrixPE": 104,
  "RepetitionTime": 1.49,
  "SAR": 0.0374187,
  "ScanOptions": "FS",
  "ScanningSequence": "EP",
  "SequenceName": "epfid2d1_104",
  "SequenceVariant": "SK_SS",
  "SeriesDescription": "func_task-friends-s04e08b",
  "SeriesNumber": 29,
  "ShimSetting": [619, -7289, -8815, 435, 10, -442, 59, 8],
  "SliceThickness": 2,
  "SliceTiming": [0, 0.785, 0.0975, 0.8825, 0.1975, 0.98, 0.295, 1.0775, 0.3925, 1.1775, 0.49, 1.275, 0.5875, 1.3725, 0.6875, 0, 0.785, 0.0975, 0.8825, 0.1975, 0.98, 0.295, 1.0775, 0.3925, 1.1775, 0.49, 1.275, 0.5875, 1.3725, 0.6875, 0, 0.785, 0.0975, 0.8825, 0.1975, 0.98, 0.295, 1.0775, 0.3925, 1.1775, 0.49, 1.275, 0.5875, 1.3725, 0.6875, 0, 0.785, 0.0975, 0.8825, 0.1975, 0.98, 0.295, 1.0775, 0.3925, 1.1775, 0.49, 1.275, 0.5875, 1.3725, 0.6875],
  "SoftwareVersions": "syngo_MR_E11",
  "SpacingBetweenSlices": 2,
  "StationName": "MRC35049",
  "TaskName": "s04e08b",
  "TotalReadoutTime": 0.0576811,
  "TxRefAmp": 240.684,
  "WipMemBlock": "59a4e3da-44ee-4917-b452-7e521f1e01cc||Sequence: R016 ve11c/master r/e634e98; Dec 19 2017 11:00:25 by eja",
  "dcmmeta_affine": [
    [-1.9999531507492065, 0.007679223082959652, -0.011330150067806244, 99.9322280883789],
    [0.011456680484116077, 1.8450613021850586, -0.7717627286911011, -68.67687225341797],
    [-0.007489141542464495, 0.7718095183372498, 1.8450621366500854, -62.02777862548828],
    [0.0, 0.0, 0.0, 1.0]
],
  "dcmmeta_reorient_transform": [
    [0.0, -1.0, 0.0, 103.0],
    [1.0, 0.0, 0.0, 0.0],
    [0.0, 0.0, 1.0, 0.0],
    [0.0, 0.0, 0.0, 1.0]
],
  "dcmmeta_shape": [104, 104, 60, 503],
  "dcmmeta_slice_dim": 2,
  "dcmmeta_version": 0.6,
  "global": {
    "const": {
      "AcquisitionMatrix": [104, 0, 0, 104],
      "AngioFlag": "N",
      "BitsAllocated": 16,
      "BitsStored": 16,
      "BodyPartExamined": "BRAIN",
      "Columns": 832,
      "EchoNumbers": 1,
      "EchoTime": 37.0,
      "EchoTrainLength": 104,
      "FlipAngle": 52.0,
      "HighBit": 15,
      "ImageOrientationPatient": [0.99997658188035, -0.0057283401726, -0.0037445707037, 0.0038396115486, 0.92253063494216, -0.3859047615363],
      "ImagePositionPatient": [-831.50137355392, -788.79650944663, 301.13331469041],
      "ImageType": [
        "ORIGINAL",
        "PRIMARY",
        "M",
        "MB",
        "ND",
        "MOSAIC"
],
      "ImagedNucleus": "1H",
      "ImagingFrequency": 123.258951,
      "InPlanePhaseEncodingDirection": "COL",
      "MRAcquisitionType": "2D",
      "MagneticFieldStrength": 3.0,
      "Manufacturer": "SIEMENS",
      "ManufacturerModelName": "Prisma_fit",
      "Modality": "MR",
      "NumberOfAverages": 1.0,
      "NumberOfPhaseEncodingSteps": 104,
      "PercentPhaseFieldOfView": 100.0,
      "PercentSampling": 100.0,
      "PerformedProcedureStepStartTime": "164603.076000",
      "PhotometricInterpretation": "MONOCHROME2",
      "PixelBandwidth": 2290.0,
      "PixelRepresentation": 0,
      "PixelSpacing": [2.0, 2.0],
      "ProtocolName": "func_task-friends-s04e08b",
      "RepetitionTime": 1490.0,
      "Rows": 832,
      "SAR": 0.03741867444079,
      "SamplesPerPixel": 1,
      "ScanOptions": "FS",
      "ScanningSequence": "EP",
      "SequenceName": "epfid2d1_104",
      "SequenceVariant": [
        "SK",
        "SS"
],
      "SeriesDescription": "func_task-friends-s04e08b",
      "SeriesNumber": 29,
      "SeriesTime": "184142.594000",
      "SliceLocation": -31.287551262939,
      "SliceThickness": 2.0,
      "SmallestImagePixelValue": 0,
      "SoftwareVersions": "syngo MR E11",
      "SpacingBetweenSlices": 2.0000000370809,
      "SpecificCharacterSet": "ISO_IR 100",
      "StudyID": "1",
      "StudyTime": "164603.012000",
      "TransmitCoilName": "Body",
      "VariableFlipAngleFlag": "N",
      "WindowCenterWidthExplanation": "Algo1",
      "dBdt": 0.0},
    "slices": {}
  },
  "time": {
    "samples": {
      "AcquisitionNumber": [1, 2, 3, 4, 5, 6, 7, 8, 9, 10, 11, 12, 13, 14, 15, 16, 17, 18, 19, 20, 21, 22, 23, 24, 25, 26, 27, 28, 29, 30, 31, 32, 33, 34, 35, 36, 37, 38, 39, 40, 41, 42, 43, 44, 45, 46, 47, 48, 49, 50, 51, 52, 53, 54, 55, 56, 57, 58, 59, 60, 61, 62, 63, 64, 65, 66, 67, 68, 69, 70, 71, 72, 73, 74, 75, 76, 77, 78, 79, 80, 81, 82, 83, 84, 85, 86, 87, 88, 89, 90, 91, 92, 93, 94, 95, 96, 97, 98, 99, 100, 101, 102, 103, 104, 105, 106, 107, 108, 109, 110, 111, 112, 113, 114, 115, 116, 117, 118, 119, 120, 121, 122, 123, 124, 125, 126, 127, 128, 129, 130, 131, 132, 133, 134, 135, 136, 137, 138, 139, 140, 141, 142, 143, 144, 145, 146, 147, 148, 149, 150, 151, 152, 153, 154, 155, 156, 157, 158, 159, 160, 161, 162, 163, 164, 165, 166, 167, 168, 169, 170, 171, 172, 173, 174, 175, 176, 177, 178, 179, 180, 181, 182, 183, 184, 185, 186, 187, 188, 189, 190, 191, 192, 193, 194, 195, 196, 197, 198, 199, 200, 201, 202, 203, 204, 205, 206, 207, 208, 209, 210, 211, 212, 213, 214, 215, 216, 217, 218, 219, 220, 221, 222, 223, 224, 225, 226, 227, 228, 229, 230, 231, 232, 233, 234, 235, 236, 237, 238, 239, 240, 241, 242, 243, 244, 245, 246, 247, 248, 249, 250, 251, 252, 253, 254, 255, 256, 257, 258, 259, 260, 261, 262, 263, 264, 265, 266, 267, 268, 269, 270, 271, 272, 273, 274, 275, 276, 277, 278, 279, 280, 281, 282, 283, 284, 285, 286, 287, 288, 289, 290, 291, 292, 293, 294, 295, 296, 297, 298, 299, 300, 301, 302, 303, 304, 305, 306, 307, 308, 309, 310, 311, 312, 313, 314, 315, 316, 317, 318, 319, 320, 321, 322, 323, 324, 325, 326, 327, 328, 329, 330, 331, 332, 333, 334, 335, 336, 337, 338, 339, 340, 341, 342, 343, 344, 345, 346, 347, 348, 349, 350, 351, 352, 353, 354, 355, 356, 357, 358, 359, 360, 361, 362, 363, 364, 365, 366, 367, 368, 369, 370, 371, 372, 373, 374, 375, 376, 377, 378, 379, 380, 381, 382, 383, 384, 385, 386, 387, 388, 389, 390, 391, 392, 393, 394, 395, 396, 397, 398, 399, 400, 401, 402, 403, 404, 405, 406, 407, 408, 409, 410, 411, 412, 413, 414, 415, 416, 417, 418, 419, 420, 421, 422, 423, 424, 425, 426, 427, 428, 429, 430, 431, 432, 433, 434, 435, 436, 437, 438, 439, 440, 441, 442, 443, 444, 445, 446, 447, 448, 449, 450, 451, 452, 453, 454, 455, 456, 457, 458, 459, 460, 461, 462, 463, 464, 465, 466, 467, 468, 469, 470, 471, 472, 473, 474, 475, 476, 477, 478, 479, 480, 481, 482, 483, 484, 485, 486, 487, 488, 489, 490, 491, 492, 493, 494, 495, 496, 497, 498, 499, 500, 501, 502, 503],
      "AcquisitionTime": ["184021.532500", "184023.022500", "184024.512500", "184026.002500", "184027.492500", "184028.982500", "184030.472500", "184031.962500", "184033.452500", "184034.942500", "184036.432500", "184037.922500", "184039.412500", "184040.902500", "184042.392500", "184043.882500", "184045.372500", "184046.862500", "184048.352500", "184049.842500", "184051.332500", "184052.822500", "184054.312500", "184055.802500", "184057.292500", "184058.782500", "184100.272500", "184101.762500", "184103.252500", "184104.742500", "184106.232500", "184107.722500", "184109.212500", "184110.702500", "184112.192500", "184113.682500", "184115.172500", "184116.662500", "184118.152500", "184119.642500", "184121.132500", "184122.622500", "184124.112500", "184125.602500", "184127.092500", "184128.582500", "184130.072500", "184131.562500", "184133.052500", "184134.542500", "184136.032500", "184137.522500", "184139.012500", "184140.502500", "184141.992500", "184143.482500", "184144.972500", "184146.462500", "184147.952500", "184149.442500", "184150.932500", "184152.422500", "184153.912500", "184155.402500", "184156.892500", "184158.382500", "184159.872500", "184201.362500", "184202.852500", "184204.342500", "184205.832500", "184207.322500", "184208.812500", "184210.302500", "184211.792500", "184213.282500", "184214.772500", "184216.262500", "184217.752500", "184219.242500", "184220.732500", "184222.222500", "184223.712500", "184225.202500", "184226.692500", "184228.182500", "184229.672500", "184231.162500", "184232.652500", "184234.142500", "184235.632500", "184237.122500", "184238.612500", "184240.102500", "184241.592500", "184243.082500", "184244.572500", "184246.062500", "184247.552500", "184249.042500", "184250.532500", "184252.022500", "184253.512500", "184255.002500", "184256.492500", "184257.982500", "184259.472500", "184300.962500", "184302.452500", "184303.942500", "184305.432500", "184306.922500", "184308.412500", "184309.902500", "184311.392500", "184312.882500", "184314.372500", "184315.862500", "184317.352500", "184318.842500", "184320.332500", "184321.822500", "184323.312500", "184324.802500", "184326.292500", "184327.782500", "184329.272500", "184330.762500", "184332.252500", "184333.742500", "184335.232500", "184336.722500", "184338.212500", "184339.702500", "184341.192500", "184342.682500", "184344.172500", "184345.662500", "184347.152500", "184348.642500", "184350.132500", "184351.622500", "184353.112500", "184354.602500", "184356.092500", "184357.582500", "184359.072500", "184400.562500", "184402.052500", "184403.542500", "184405.032500", "184406.522500", "184408.012500", "184409.502500", "184410.992500", "184412.482500", "184413.972500", "184415.462500", "184416.952500", "184418.442500", "184419.932500", "184421.422500", "184422.912500", "184424.402500", "184425.892500", "184427.382500", "184428.872500", "184430.362500", "184431.852500", "184433.342500", "184434.832500", "184436.322500", "184437.812500", "184439.302500", "184440.792500", "184442.282500", "184443.772500", "184445.262500", "184446.752500", "184448.242500", "184449.732500", "184451.222500", "184452.712500", "184454.202500", "184455.692500", "184457.182500", "184458.672500", "184500.162500", "184501.652500", "184503.142500", "184504.632500", "184506.122500", "184507.612500", "184509.102500", "184510.592500", "184512.082500", "184513.572500", "184515.062500", "184516.552500", "184518.042500", "184519.532500", "184521.022500", "184522.512500", "184524.002500", "184525.492500", "184526.982500", "184528.472500", "184529.962500", "184531.452500", "184532.942500", "184534.432500", "184535.922500", "184537.412500", "184538.902500", "184540.392500", "184541.882500", "184543.372500", "184544.862500", "184546.352500", "184547.842500", "184549.332500", "184550.822500", "184552.312500", "184553.802500", "184555.292500", "184556.782500", "184558.272500", "184559.762500", "184601.252500", "184602.742500", "184604.232500", "184605.722500", "184607.212500", "184608.702500", "184610.192500", "184611.682500", "184613.172500", "184614.662500", "184616.152500", "184617.642500", "184619.132500", "184620.622500", "184622.112500", "184623.602500", "184625.092500", "184626.582500", "184628.072500", "184629.562500", "184631.052500", "184632.542500", "184634.032500", "184635.522500", "184637.012500", "184638.502500", "184639.992500", "184641.482500", "184642.972500", "184644.462500", "184645.952500", "184647.442500", "184648.932500", "184650.422500", "184651.912500", "184653.402500", "184654.892500", "184656.382500", "184657.872500", "184659.362500", "184700.852500", "184702.342500", "184703.832500", "184705.322500", "184706.812500", "184708.302500", "184709.792500", "184711.282500", "184712.772500", "184714.262500", "184715.752500", "184717.242500", "184718.732500", "184720.222500", "184721.712500", "184723.202500", "184724.692500", "184726.182500", "184727.672500", "184729.162500", "184730.652500", "184732.142500", "184733.632500", "184735.122500", "184736.612500", "184738.102500", "184739.592500", "184741.082500", "184742.572500", "184744.062500", "184745.552500", "184747.042500", "184748.532500", "184750.022500", "184751.512500", "184753.002500", "184754.492500", "184755.982500", "184757.472500", "184758.962500", "184800.452500", "184801.942500", "184803.432500", "184804.922500", "184806.412500", "184807.902500", "184809.392500", "184810.882500", "184812.372500", "184813.862500", "184815.352500", "184816.842500", "184818.332500", "184819.822500", "184821.312500", "184822.802500", "184824.292500", "184825.782500", "184827.272500", "184828.762500", "184830.252500", "184831.742500", "184833.232500", "184834.722500", "184836.212500", "184837.702500", "184839.192500", "184840.682500", "184842.172500", "184843.662500", "184845.152500", "184846.642500", "184848.132500", "184849.622500", "184851.112500", "184852.602500", "184854.092500", "184855.582500", "184857.072500", "184858.562500", "184900.052500", "184901.542500", "184903.032500", "184904.522500", "184906.012500", "184907.502500", "184908.992500", "184910.482500", "184911.972500", "184913.462500", "184914.952500", "184916.442500", "184917.932500", "184919.422500", "184920.912500", "184922.402500", "184923.892500", "184925.382500", "184926.872500", "184928.362500", "184929.852500", "184931.342500", "184932.832500", "184934.322500", "184935.812500", "184937.302500", "184938.792500", "184940.282500", "184941.772500", "184943.262500", "184944.752500", "184946.242500", "184947.732500", "184949.222500", "184950.712500", "184952.202500", "184953.692500", "184955.182500", "184956.672500", "184958.162500", "184959.652500", "185001.142500", "185002.632500", "185004.122500", "185005.612500", "185007.102500", "185008.592500", "185010.082500", "185011.572500", "185013.062500", "185014.552500", "185016.042500", "185017.532500", "185019.022500", "185020.512500", "185022.002500", "185023.492500", "185024.982500", "185026.472500", "185027.962500", "185029.452500", "185030.942500", "185032.432500", "185033.922500", "185035.412500", "185036.902500", "185038.392500", "185039.882500", "185041.372500", "185042.862500", "185044.352500", "185045.842500", "185047.332500", "185048.822500", "185050.312500", "185051.802500", "185053.292500", "185054.782500", "185056.272500", "185057.762500", "185059.252500", "185100.742500", "185102.232500", "185103.722500", "185105.212500", "185106.702500", "185108.192500", "185109.682500", "185111.172500", "185112.662500", "185114.152500", "185115.642500", "185117.132500", "185118.622500", "185120.112500", "185121.602500", "185123.092500", "185124.582500", "185126.072500", "185127.562500", "185129.052500", "185130.542500", "185132.032500", "185133.522500", "185135.012500", "185136.502500", "185137.992500", "185139.482500", "185140.972500", "185142.462500", "185143.952500", "185145.442500", "185146.932500", "185148.422500", "185149.912500", "185151.402500", "185152.892500", "185154.382500", "185155.872500", "185157.362500", "185158.852500", "185200.342500", "185201.832500", "185203.322500", "185204.812500", "185206.302500", "185207.792500", "185209.282500", "185210.772500", "185212.262500", "185213.752500", "185215.242500", "185216.732500", "185218.222500", "185219.712500", "185221.202500", "185222.692500", "185224.182500", "185225.672500", "185227.162500", "185228.652500", "185230.142500", "185231.632500", "185233.122500", "185234.612500", "185236.102500", "185237.592500", "185239.082500", "185240.572500", "185242.062500", "185243.552500", "185245.042500", "185246.532500", "185248.022500", "185249.512500"],
      "ContentTime": ["184142.596000", "184142.600000", "184142.603000", "184142.605000", "184142.609000", "184142.612000", "184142.615000", "184142.618000", "184142.621000", "184142.624000", "184142.627000", "184142.639000", "184142.642000", "184142.645000", "184142.648000", "184142.651000", "184142.654000", "184142.657000", "184142.660000", "184142.666000", "184142.669000", "184142.672000", "184142.675000", "184142.678000", "184142.681000", "184142.684000", "184142.687000", "184202.559000", "184202.562000", "184202.565000", "184202.568000", "184202.571000", "184202.585000", "184202.588000", "184202.590000", "184202.593000", "184202.596000", "184202.599000", "184202.602000", "184202.605000", "184202.608000", "184202.611000", "184202.614000", "184202.617000", "184202.620000", "184202.623000", "184202.625000", "184222.559000", "184222.562000", "184222.565000", "184222.568000", "184222.571000", "184222.579000", "184222.582000", "184222.585000", "184222.588000", "184222.591000", "184222.593000", "184222.596000", "184222.599000", "184222.602000", "184222.605000", "184222.608000", "184222.611000", "184222.614000", "184222.617000", "184222.620000", "184222.623000", "184242.559000", "184242.562000", "184242.565000", "184242.568000", "184242.571000", "184242.574000", "184242.576000", "184242.579000", "184242.582000", "184242.585000", "184242.588000", "184242.591000", "184242.602000", "184242.605000", "184242.608000", "184242.611000", "184242.614000", "184242.617000", "184242.620000", "184242.623000", "184322.559000", "184322.562000", "184322.565000", "184322.568000", "184322.572000", "184322.575000", "184322.578000", "184322.581000", "184322.583000", "184322.586000", "184322.589000", "184322.592000", "184322.595000", "184322.598000", "184322.601000", "184322.604000", "184322.608000", "184322.611000", "184322.614000", "184322.616000", "184322.619000", "184322.622000", "184322.625000", "184322.628000", "184322.631000", "184322.634000", "184322.637000", "184322.640000", "184322.643000", "184322.645000", "184322.648000", "184322.651000", "184402.559000", "184402.562000", "184402.565000", "184402.568000", "184402.571000", "184402.574000", "184402.577000", "184402.580000", "184402.582000", "184402.585000", "184402.588000", "184402.591000", "184402.594000", "184402.597000", "184402.600000", "184402.603000", "184402.606000", "184402.609000", "184402.612000", "184402.615000", "184402.618000", "184402.621000", "184402.623000", "184402.626000", "184402.629000", "184402.632000", "184402.635000", "184442.559000", "184442.562000", "184442.565000", "184442.568000", "184442.571000", "184442.574000", "184442.576000", "184442.579000", "184442.582000", "184442.585000", "184442.588000", "184442.591000", "184442.594000", "184442.606000", "184442.609000", "184442.612000", "184442.615000", "184442.618000", "184442.621000", "184442.624000", "184442.627000", "184442.630000", "184442.632000", "184442.635000", "184442.638000", "184442.641000", "184442.656000", "184522.559000", "184522.562000", "184522.565000", "184522.568000", "184522.571000", "184522.574000", "184522.577000", "184522.580000", "184522.583000", "184522.586000", "184522.589000", "184522.592000", "184522.594000", "184522.597000", "184522.600000", "184522.603000", "184522.606000", "184522.609000", "184522.612000", "184522.615000", "184522.618000", "184522.621000", "184522.624000", "184522.627000", "184522.630000", "184522.633000", "184522.636000", "184602.559000", "184602.562000", "184602.565000", "184602.568000", "184602.571000", "184602.574000", "184602.577000", "184602.580000", "184602.583000", "184602.586000", "184602.589000", "184602.592000", "184602.595000", "184602.598000", "184602.601000", "184602.603000", "184602.607000", "184602.610000", "184602.612000", "184602.615000", "184602.618000", "184602.621000", "184602.624000", "184602.627000", "184602.630000", "184602.633000", "184602.636000", "184642.559000", "184642.562000", "184642.565000", "184642.568000", "184642.571000", "184642.574000", "184642.577000", "184642.580000", "184642.582000", "184642.585000", "184642.588000", "184642.591000", "184642.594000", "184642.597000", "184642.600000", "184642.603000", "184642.606000", "184642.609000", "184642.612000", "184642.615000", "184642.618000", "184642.621000", "184642.624000", "184642.627000", "184642.630000", "184642.632000", "184642.635000", "184722.559000", "184722.562000", "184722.565000", "184722.568000", "184722.571000", "184722.574000", "184722.577000", "184722.580000", "184722.583000", "184722.586000", "184722.589000", "184722.591000", "184722.594000", "184722.597000", "184722.600000", "184722.603000", "184722.606000", "184722.609000", "184722.612000", "184722.615000", "184722.618000", "184722.621000", "184722.624000", "184722.627000", "184722.630000", "184722.633000", "184722.636000", "184802.559000", "184802.562000", "184802.565000", "184802.568000", "184802.571000", "184802.574000", "184802.577000", "184802.580000", "184802.583000", "184802.586000", "184802.589000", "184802.591000", "184802.595000", "184802.597000", "184802.600000", "184802.603000", "184802.607000", "184802.610000", "184802.613000", "184802.616000", "184802.619000", "184802.622000", "184802.625000", "184802.628000", "184802.630000", "184802.633000", "184842.559000", "184842.562000", "184842.565000", "184842.568000", "184842.571000", "184842.574000", "184842.577000", "184842.580000", "184842.583000", "184842.586000", "184842.589000", "184842.592000", "184842.595000", "184842.598000", "184842.601000", "184842.604000", "184842.607000", "184842.610000", "184842.613000", "184842.616000", "184842.619000", "184842.621000", "184842.624000", "184842.627000", "184842.630000", "184842.633000", "184842.636000", "184922.559000", "184922.562000", "184922.565000", "184922.568000", "184922.571000", "184922.574000", "184922.577000", "184922.580000", "184922.583000", "184922.586000", "184922.589000", "184922.592000", "184922.595000", "184922.598000", "184922.601000", "184922.604000", "184922.607000", "184922.610000", "184922.612000", "184922.615000", "184922.618000", "184922.621000", "184922.624000", "184922.627000", "184922.630000", "184922.633000", "184922.636000", "185002.559000", "185002.562000", "185002.565000", "185002.568000", "185002.571000", "185002.574000", "185002.577000", "185002.580000", "185002.583000", "185002.586000", "185002.588000", "185002.591000", "185002.594000", "185002.597000", "185002.600000", "185002.603000", "185002.606000", "185002.609000", "185002.612000", "185002.615000", "185002.618000", "185002.621000", "185002.624000", "185002.627000", "185002.630000", "185002.633000", "185002.636000", "185042.559000", "185042.562000", "185042.565000", "185042.568000", "185042.571000", "185042.574000", "185042.577000", "185042.580000", "185042.583000", "185042.586000", "185042.589000", "185042.592000", "185042.595000", "185042.598000", "185042.601000", "185042.604000", "185042.608000", "185042.611000", "185042.614000", "185042.617000", "185042.620000", "185042.623000", "185042.626000", "185042.629000", "185042.632000", "185042.635000", "185042.638000", "185122.559000", "185122.562000", "185122.565000", "185122.568000", "185122.571000", "185122.574000", "185122.577000", "185122.580000", "185122.583000", "185122.586000", "185122.588000", "185122.591000", "185122.594000", "185122.597000", "185122.600000", "185122.603000", "185122.606000", "185122.609000", "185122.612000", "185122.615000", "185122.618000", "185122.621000", "185122.624000", "185122.627000", "185122.630000", "185122.633000", "185122.636000", "185202.559000", "185202.562000", "185202.565000", "185202.569000", "185202.572000", "185202.575000", "185202.578000", "185202.581000", "185202.584000", "185202.587000", "185202.590000", "185202.593000", "185202.595000", "185202.599000", "185202.601000", "185202.604000", "185202.607000", "185202.610000", "185202.613000", "185202.616000", "185202.619000", "185202.622000", "185202.625000", "185202.628000", "185202.631000", "185202.643000", "185242.559000", "185242.562000", "185242.565000", "185242.568000", "185242.571000", "185242.574000", "185242.577000", "185242.580000", "185242.583000", "185242.586000", "185242.589000", "185242.592000", "185242.595000", "185242.598000", "185242.601000", "185242.604000", "185242.607000", "185242.610000", "185242.613000", "185242.615000", "185242.618000", "185242.621000", "185242.624000", "185242.627000", "185242.630000", "185242.633000", "185242.636000", "185251.786000", "185251.789000", "185251.792000", "185251.795000", "185251.798000", "185251.801000", "185251.804000"],
