{
  "AcquisitionMatrixPE": 104,
  "AcquisitionNumber": 1,
  "AcquisitionTime": "17:49:50.282500",
  "BandwidthPerPixelPhaseEncode": 17.17,
  "BaseResolution": 104,
  "BodyPartExamined": "BRAIN",
  "CoilString": "HC1-7;NC1_2",
  "ConsistencyInfo": "N4_VE11C_LATEST_20160120",
  "ConversionSoftware": "dcm2niix",
  "ConversionSoftwareVersion": "v1.0.20190902",
  "DerivedVendorReportedEchoSpacing": 0.000560011,
  "DeviceSerialNumber": "167006",
  "DwellTime": 2.1e-06,
  "EchoTime": 0.037,
  "EchoTrainLength": 104,
  "EffectiveEchoSpacing": 0.000560011,
  "FlipAngle": 52,
  "ImageComments": "Unaliased_MB4_PE3_LB",
  "ImageOrientationPatientDICOM": [0.999977, -0.00572834, -0.00374457, 0.00383961, 0.922531, -0.385905],
  "ImageType": [
    "ORIGINAL",
    "PRIMARY",
    "M",
    "MB",
    "ND",
    "MOSAIC"
],
  "ImagingFrequency": 123.259,
  "InPlanePhaseEncodingDirectionDICOM": "COL",
  "InstitutionAddress": "Chemin_Queen-Mary_4565_Montreal_District_CA_H3W_1W5",
  "InstitutionName": "IUGM",
  "InstitutionalDepartmentName": "Department",
  "MRAcquisitionType": "2D",
  "MagneticFieldStrength": 3,
  "Manufacturer": "Siemens",
  "ManufacturersModelName": "Prisma_fit",
  "Modality": "MR",
  "MultibandAccelerationFactor": 4,
  "PartialFourier": 1,
  "PatientPosition": "HFS",
  "PercentPhaseFOV": 100,
  "PhaseEncodingDirection": "j",
  "PhaseEncodingSteps": 104,
  "PhaseResolution": 1,
  "PixelBandwidth": 2290,
  "ProcedureStepDescription": "video_friends",
  "ProtocolName": "func_task-friends-s04e06b",
  "PulseSequenceDetails": "%CustomerSeq%_cmrr_mbep2d_bold",
  "ReceiveCoilActiveElements": "HC1-7;NC1,2",
  "ReceiveCoilName": "HeadNeck_64",
  "ReconMatrixPE": 104,
  "RepetitionTime": 1.49,
  "SAR": 0.0374067,
  "ScanOptions": "FS",
  "ScanningSequence": "EP",
  "SequenceName": "epfid2d1_104",
  "SequenceVariant": "SK_SS",
  "SeriesDescription": "func_task-friends-s04e06b",
  "SeriesNumber": 21,
  "ShimSetting": [619, -7289, -8815, 435, 10, -442, 59, 8],
  "SliceThickness": 2,
  "SliceTiming": [0, 0.785, 0.1, 0.8825, 0.1975, 0.98, 0.295, 1.08, 0.3925, 1.1775, 0.49, 1.275, 0.59, 1.3725, 0.6875, 0, 0.785, 0.1, 0.8825, 0.1975, 0.98, 0.295, 1.08, 0.3925, 1.1775, 0.49, 1.275, 0.59, 1.3725, 0.6875, 0, 0.785, 0.1, 0.8825, 0.1975, 0.98, 0.295, 1.08, 0.3925, 1.1775, 0.49, 1.275, 0.59, 1.3725, 0.6875, 0, 0.785, 0.1, 0.8825, 0.1975, 0.98, 0.295, 1.08, 0.3925, 1.1775, 0.49, 1.275, 0.59, 1.3725, 0.6875],
  "SoftwareVersions": "syngo_MR_E11",
  "SpacingBetweenSlices": 2,
  "StationName": "MRC35049",
  "TaskName": "s04e06b",
  "TotalReadoutTime": 0.0576811,
  "TxRefAmp": 240.684,
  "WipMemBlock": "6c5be21d-94af-4662-9ae3-3583c66b1e53||Sequence: R016 ve11c/master r/e634e98; Dec 19 2017 11:00:25 by eja",
  "dcmmeta_affine": [
    [-1.9999531507492065, 0.007679223082959652, -0.011330150067806244, 99.9322280883789],
    [0.011456680484116077, 1.8450613021850586, -0.7717627286911011, -68.67687225341797],
    [-0.007489141542464495, 0.7718095183372498, 1.8450621366500854, -62.02777862548828],
    [0.0, 0.0, 0.0, 1.0]
],
  "dcmmeta_reorient_transform": [
    [0.0, -1.0, 0.0, 103.0],
    [1.0, 0.0, 0.0, 0.0],
    [0.0, 0.0, 1.0, 0.0],
    [0.0, 0.0, 0.0, 1.0]
],
  "dcmmeta_shape": [104, 104, 60, 465],
  "dcmmeta_slice_dim": 2,
  "dcmmeta_version": 0.6,
  "global": {
    "const": {
      "AcquisitionMatrix": [104, 0, 0, 104],
      "AngioFlag": "N",
      "BitsAllocated": 16,
      "BitsStored": 16,
      "BodyPartExamined": "BRAIN",
      "Columns": 832,
      "EchoNumbers": 1,
      "EchoTime": 37.0,
      "EchoTrainLength": 104,
      "FlipAngle": 52.0,
      "HighBit": 15,
      "ImageOrientationPatient": [0.99997658188035, -0.0057283401726, -0.0037445707037, 0.0038396115486, 0.92253063494216, -0.3859047615363],
      "ImagePositionPatient": [-831.50137355392, -788.79650944663, 301.13331469041],
      "ImageType": [
        "ORIGINAL",
        "PRIMARY",
        "M",
        "MB",
        "ND",
        "MOSAIC"
],
      "ImagedNucleus": "1H",
      "ImagingFrequency": 123.258946,
      "InPlanePhaseEncodingDirection": "COL",
      "MRAcquisitionType": "2D",
      "MagneticFieldStrength": 3.0,
      "Manufacturer": "SIEMENS",
      "ManufacturerModelName": "Prisma_fit",
      "Modality": "MR",
      "NumberOfAverages": 1.0,
      "NumberOfPhaseEncodingSteps": 104,
      "PercentPhaseFieldOfView": 100.0,
      "PercentSampling": 100.0,
      "PerformedProcedureStepStartTime": "164603.076000",
      "PhotometricInterpretation": "MONOCHROME2",
      "PixelBandwidth": 2290.0,
      "PixelRepresentation": 0,
      "PixelSpacing": [2.0, 2.0],
      "ProtocolName": "func_task-friends-s04e06b",
      "RepetitionTime": 1490.0,
      "Rows": 832,
      "SAR": 0.03740665642164,
      "SamplesPerPixel": 1,
      "ScanOptions": "FS",
      "ScanningSequence": "EP",
      "SequenceName": "epfid2d1_104",
      "SequenceVariant": [
        "SK",
        "SS"
],
      "SeriesDescription": "func_task-friends-s04e06b",
      "SeriesNumber": 21,
      "SeriesTime": "175112.627000",
      "SliceLocation": -31.287551262939,
      "SliceThickness": 2.0,
      "SmallestImagePixelValue": 0,
      "SoftwareVersions": "syngo MR E11",
      "SpacingBetweenSlices": 2.0000000370809,
      "SpecificCharacterSet": "ISO_IR 100",
      "StudyID": "1",
      "StudyTime": "164603.012000",
      "TransmitCoilName": "Body",
      "VariableFlipAngleFlag": "N",
      "WindowCenterWidthExplanation": "Algo1",
      "dBdt": 0.0},
    "slices": {}
  },
  "time": {
    "samples": {
      "AcquisitionNumber": [1, 2, 3, 4, 5, 6, 7, 8, 9, 10, 11, 12, 13, 14, 15, 16, 17, 18, 19, 20, 21, 22, 23, 24, 25, 26, 27, 28, 29, 30, 31, 32, 33, 34, 35, 36, 37, 38, 39, 40, 41, 42, 43, 44, 45, 46, 47, 48, 49, 50, 51, 52, 53, 54, 55, 56, 57, 58, 59, 60, 61, 62, 63, 64, 65, 66, 67, 68, 69, 70, 71, 72, 73, 74, 75, 76, 77, 78, 79, 80, 81, 82, 83, 84, 85, 86, 87, 88, 89, 90, 91, 92, 93, 94, 95, 96, 97, 98, 99, 100, 101, 102, 103, 104, 105, 106, 107, 108, 109, 110, 111, 112, 113, 114, 115, 116, 117, 118, 119, 120, 121, 122, 123, 124, 125, 126, 127, 128, 129, 130, 131, 132, 133, 134, 135, 136, 137, 138, 139, 140, 141, 142, 143, 144, 145, 146, 147, 148, 149, 150, 151, 152, 153, 154, 155, 156, 157, 158, 159, 160, 161, 162, 163, 164, 165, 166, 167, 168, 169, 170, 171, 172, 173, 174, 175, 176, 177, 178, 179, 180, 181, 182, 183, 184, 185, 186, 187, 188, 189, 190, 191, 192, 193, 194, 195, 196, 197, 198, 199, 200, 201, 202, 203, 204, 205, 206, 207, 208, 209, 210, 211, 212, 213, 214, 215, 216, 217, 218, 219, 220, 221, 222, 223, 224, 225, 226, 227, 228, 229, 230, 231, 232, 233, 234, 235, 236, 237, 238, 239, 240, 241, 242, 243, 244, 245, 246, 247, 248, 249, 250, 251, 252, 253, 254, 255, 256, 257, 258, 259, 260, 261, 262, 263, 264, 265, 266, 267, 268, 269, 270, 271, 272, 273, 274, 275, 276, 277, 278, 279, 280, 281, 282, 283, 284, 285, 286, 287, 288, 289, 290, 291, 292, 293, 294, 295, 296, 297, 298, 299, 300, 301, 302, 303, 304, 305, 306, 307, 308, 309, 310, 311, 312, 313, 314, 315, 316, 317, 318, 319, 320, 321, 322, 323, 324, 325, 326, 327, 328, 329, 330, 331, 332, 333, 334, 335, 336, 337, 338, 339, 340, 341, 342, 343, 344, 345, 346, 347, 348, 349, 350, 351, 352, 353, 354, 355, 356, 357, 358, 359, 360, 361, 362, 363, 364, 365, 366, 367, 368, 369, 370, 371, 372, 373, 374, 375, 376, 377, 378, 379, 380, 381, 382, 383, 384, 385, 386, 387, 388, 389, 390, 391, 392, 393, 394, 395, 396, 397, 398, 399, 400, 401, 402, 403, 404, 405, 406, 407, 408, 409, 410, 411, 412, 413, 414, 415, 416, 417, 418, 419, 420, 421, 422, 423, 424, 425, 426, 427, 428, 429, 430, 431, 432, 433, 434, 435, 436, 437, 438, 439, 440, 441, 442, 443, 444, 445, 446, 447, 448, 449, 450, 451, 452, 453, 454, 455, 456, 457, 458, 459, 460, 461, 462, 463, 464, 465],
      "AcquisitionTime": ["174950.282500", "174951.772500", "174953.262500", "174954.752500", "174956.242500", "174957.732500", "174959.222500", "175000.712500", "175002.202500", "175003.692500", "175005.182500", "175006.672500", "175008.162500", "175009.652500", "175011.142500", "175012.632500", "175014.122500", "175015.612500", "175017.102500", "175018.592500", "175020.082500", "175021.572500", "175023.062500", "175024.552500", "175026.042500", "175027.532500", "175029.022500", "175030.512500", "175032.002500", "175033.492500", "175034.982500", "175036.472500", "175037.962500", "175039.452500", "175040.942500", "175042.432500", "175043.922500", "175045.412500", "175046.902500", "175048.392500", "175049.882500", "175051.372500", "175052.862500", "175054.352500", "175055.842500", "175057.332500", "175058.822500", "175100.312500", "175101.802500", "175103.292500", "175104.782500", "175106.272500", "175107.762500", "175109.252500", "175110.742500", "175112.232500", "175113.722500", "175115.212500", "175116.702500", "175118.192500", "175119.682500", "175121.172500", "175122.662500", "175124.152500", "175125.642500", "175127.132500", "175128.622500", "175130.112500", "175131.602500", "175133.092500", "175134.582500", "175136.072500", "175137.562500", "175139.052500", "175140.542500", "175142.032500", "175143.522500", "175145.012500", "175146.502500", "175147.992500", "175149.482500", "175150.972500", "175152.462500", "175153.952500", "175155.442500", "175156.932500", "175158.422500", "175159.912500", "175201.402500", "175202.892500", "175204.382500", "175205.872500", "175207.362500", "175208.852500", "175210.342500", "175211.832500", "175213.322500", "175214.812500", "175216.302500", "175217.792500", "175219.282500", "175220.772500", "175222.262500", "175223.752500", "175225.242500", "175226.732500", "175228.222500", "175229.712500", "175231.202500", "175232.692500", "175234.182500", "175235.672500", "175237.162500", "175238.652500", "175240.142500", "175241.632500", "175243.122500", "175244.612500", "175246.102500", "175247.592500", "175249.082500", "175250.572500", "175252.062500", "175253.552500", "175255.042500", "175256.532500", "175258.022500", "175259.512500", "175301.002500", "175302.492500", "175303.982500", "175305.472500", "175306.962500", "175308.452500", "175309.942500", "175311.432500", "175312.922500", "175314.412500", "175315.902500", "175317.392500", "175318.882500", "175320.372500", "175321.862500", "175323.352500", "175324.842500", "175326.332500", "175327.822500", "175329.312500", "175330.802500", "175332.292500", "175333.782500", "175335.272500", "175336.762500", "175338.252500", "175339.742500", "175341.232500", "175342.722500", "175344.212500", "175345.702500", "175347.192500", "175348.682500", "175350.172500", "175351.662500", "175353.152500", "175354.642500", "175356.132500", "175357.622500", "175359.112500", "175400.602500", "175402.092500", "175403.582500", "175405.072500", "175406.562500", "175408.052500", "175409.542500", "175411.032500", "175412.522500", "175414.012500", "175415.502500", "175416.992500", "175418.482500", "175419.972500", "175421.462500", "175422.952500", "175424.442500", "175425.932500", "175427.422500", "175428.912500", "175430.402500", "175431.892500", "175433.382500", "175434.872500", "175436.362500", "175437.852500", "175439.342500", "175440.832500", "175442.322500", "175443.812500", "175445.302500", "175446.792500", "175448.282500", "175449.772500", "175451.262500", "175452.752500", "175454.242500", "175455.732500", "175457.222500", "175458.712500", "175500.202500", "175501.692500", "175503.182500", "175504.672500", "175506.162500", "175507.652500", "175509.142500", "175510.632500", "175512.122500", "175513.612500", "175515.102500", "175516.592500", "175518.082500", "175519.572500", "175521.062500", "175522.552500", "175524.042500", "175525.532500", "175527.022500", "175528.512500", "175530.002500", "175531.492500", "175532.982500", "175534.472500", "175535.962500", "175537.452500", "175538.942500", "175540.432500", "175541.922500", "175543.412500", "175544.902500", "175546.392500", "175547.882500", "175549.372500", "175550.862500", "175552.352500", "175553.842500", "175555.332500", "175556.822500", "175558.312500", "175559.802500", "175601.292500", "175602.782500", "175604.272500", "175605.762500", "175607.252500", "175608.742500", "175610.232500", "175611.722500", "175613.212500", "175614.702500", "175616.192500", "175617.682500", "175619.172500", "175620.662500", "175622.152500", "175623.642500", "175625.132500", "175626.622500", "175628.112500", "175629.602500", "175631.092500", "175632.582500", "175634.072500", "175635.562500", "175637.052500", "175638.542500", "175640.032500", "175641.522500", "175643.012500", "175644.502500", "175645.992500", "175647.482500", "175648.972500", "175650.462500", "175651.952500", "175653.442500", "175654.932500", "175656.422500", "175657.912500", "175659.402500", "175700.892500", "175702.382500", "175703.872500", "175705.362500", "175706.852500", "175708.342500", "175709.832500", "175711.322500", "175712.812500", "175714.302500", "175715.792500", "175717.282500", "175718.772500", "175720.262500", "175721.752500", "175723.242500", "175724.732500", "175726.222500", "175727.712500", "175729.202500", "175730.692500", "175732.182500", "175733.672500", "175735.162500", "175736.652500", "175738.142500", "175739.632500", "175741.122500", "175742.612500", "175744.102500", "175745.592500", "175747.082500", "175748.572500", "175750.062500", "175751.552500", "175753.042500", "175754.532500", "175756.022500", "175757.512500", "175759.002500", "175800.492500", "175801.982500", "175803.472500", "175804.962500", "175806.452500", "175807.942500", "175809.432500", "175810.922500", "175812.412500", "175813.902500", "175815.392500", "175816.882500", "175818.372500", "175819.862500", "175821.352500", "175822.842500", "175824.332500", "175825.822500", "175827.312500", "175828.802500", "175830.292500", "175831.782500", "175833.272500", "175834.762500", "175836.252500", "175837.742500", "175839.232500", "175840.722500", "175842.212500", "175843.702500", "175845.192500", "175846.682500", "175848.172500", "175849.662500", "175851.152500", "175852.642500", "175854.132500", "175855.622500", "175857.112500", "175858.602500", "175900.092500", "175901.582500", "175903.072500", "175904.562500", "175906.052500", "175907.542500", "175909.032500", "175910.522500", "175912.012500", "175913.502500", "175914.992500", "175916.482500", "175917.972500", "175919.462500", "175920.952500", "175922.442500", "175923.932500", "175925.422500", "175926.912500", "175928.402500", "175929.892500", "175931.382500", "175932.872500", "175934.362500", "175935.852500", "175937.342500", "175938.832500", "175940.322500", "175941.812500", "175943.302500", "175944.792500", "175946.282500", "175947.772500", "175949.262500", "175950.752500", "175952.242500", "175953.732500", "175955.222500", "175956.712500", "175958.202500", "175959.692500", "180001.182500", "180002.672500", "180004.162500", "180005.652500", "180007.142500", "180008.632500", "180010.122500", "180011.612500", "180013.102500", "180014.592500", "180016.082500", "180017.572500", "180019.062500", "180020.552500", "180022.042500", "180023.532500", "180025.022500", "180026.512500", "180028.002500", "180029.492500", "180030.982500", "180032.472500", "180033.962500", "180035.452500", "180036.942500", "180038.432500", "180039.922500", "180041.412500", "180042.902500", "180044.392500", "180045.882500", "180047.372500", "180048.862500", "180050.352500", "180051.842500", "180053.332500", "180054.822500", "180056.312500", "180057.802500", "180059.292500", "180100.782500", "180102.272500", "180103.762500", "180105.252500", "180106.742500", "180108.232500", "180109.722500", "180111.212500", "180112.702500", "180114.192500", "180115.682500", "180117.172500", "180118.662500", "180120.152500", "180121.642500"],
      "ContentTime": ["175112.629000", "175112.633000", "175112.636000", "175112.639000", "175112.642000", "175112.644000", "175112.654000", "175112.657000", "175112.660000", "175112.663000", "175112.665000", "175112.668000", "175112.671000", "175112.674000", "175112.677000", "175112.689000", "175112.692000", "175112.695000", "175112.698000", "175112.707000", "175112.710000", "175112.713000", "175112.716000", "175112.719000", "175112.721000", "175112.724000", "175112.727000", "175132.597000", "175132.600000", "175132.603000", "175132.606000", "175132.609000", "175132.612000", "175132.615000", "175132.618000", "175132.620000", "175132.623000", "175132.626000", "175132.629000", "175132.632000", "175132.635000", "175132.638000", "175132.643000", "175132.646000", "175132.649000", "175132.652000", "175132.655000", "175152.597000", "175152.600000", "175152.603000", "175152.606000", "175152.609000", "175152.612000", "175152.615000", "175152.618000", "175152.621000", "175152.624000", "175152.627000", "175152.630000", "175152.641000", "175152.644000", "175152.647000", "175152.649000", "175152.652000", "175152.655000", "175152.658000", "175152.661000", "175212.596000", "175212.599000", "175212.602000", "175212.605000", "175212.614000", "175212.617000", "175212.620000", "175212.623000", "175212.625000", "175212.628000", "175212.631000", "175212.634000", "175212.645000", "175212.647000", "175212.650000", "175212.653000", "175212.656000", "175212.659000", "175212.662000", "175212.665000", "175232.596000", "175232.599000", "175232.602000", "175232.605000", "175232.608000", "175232.611000", "175232.614000", "175232.617000", "175232.620000", "175232.623000", "175232.626000", "175232.628000", "175232.631000", "175232.634000", "175232.637000", "175232.640000", "175232.643000", "175232.646000", "175232.649000", "175232.651000", "175312.596000", "175312.605000", "175312.608000", "175312.611000", "175312.614000", "175312.617000", "175312.620000", "175312.623000", "175312.626000", "175312.629000", "175312.632000", "175312.635000", "175312.638000", "175312.641000", "175312.644000", "175312.646000", "175312.649000", "175312.652000", "175312.655000", "175312.658000", "175312.661000", "175312.664000", "175312.667000", "175312.670000", "175312.672000", "175312.675000", "175312.678000", "175312.681000", "175352.597000", "175352.600000", "175352.603000", "175352.606000", "175352.609000", "175352.612000", "175352.615000", "175352.618000", "175352.621000", "175352.624000", "175352.626000", "175352.629000", "175352.632000", "175352.635000", "175352.638000", "175352.641000", "175352.644000", "175352.647000", "175352.650000", "175352.653000", "175352.656000", "175352.659000", "175352.661000", "175352.664000", "175352.667000", "175352.670000", "175352.673000", "175432.596000", "175432.599000", "175432.602000", "175432.605000", "175432.608000", "175432.611000", "175432.614000", "175432.617000", "175432.620000", "175432.623000", "175432.625000", "175432.628000", "175432.631000", "175432.634000", "175432.637000", "175432.640000", "175432.643000", "175432.646000", "175432.649000", "175432.652000", "175432.655000", "175432.657000", "175432.660000", "175432.663000", "175432.666000", "175432.669000", "175432.672000", "175512.596000", "175512.599000", "175512.602000", "175512.605000", "175512.608000", "175512.611000", "175512.614000", "175512.617000", "175512.620000", "175512.623000", "175512.626000", "175512.629000", "175512.632000", "175512.634000", "175512.637000", "175512.640000", "175512.643000", "175512.646000", "175512.649000", "175512.652000", "175512.655000", "175512.658000", "175512.661000", "175512.664000", "175512.667000", "175512.670000", "175512.672000", "175552.597000", "175552.600000", "175552.603000", "175552.606000", "175552.609000", "175552.612000", "175552.615000", "175552.618000", "175552.621000", "175552.624000", "175552.627000", "175552.630000", "175552.633000", "175552.636000", "175552.639000", "175552.642000", "175552.645000", "175552.648000", "175552.651000", "175552.653000", "175552.656000", "175552.659000", "175552.662000", "175552.665000", "175552.668000", "175552.671000", "175552.674000", "175632.597000", "175632.600000", "175632.603000", "175632.606000", "175632.609000", "175632.612000", "175632.615000", "175632.618000", "175632.621000", "175632.623000", "175632.626000", "175632.629000", "175632.632000", "175632.635000", "175632.638000", "175632.641000", "175632.644000", "175632.647000", "175632.650000", "175632.653000", "175632.656000", "175632.659000", "175632.661000", "175632.664000", "175632.668000", "175632.671000", "175712.596000", "175712.599000", "175712.602000", "175712.605000", "175712.608000", "175712.611000", "175712.614000", "175712.617000", "175712.620000", "175712.623000", "175712.626000", "175712.629000", "175712.640000", "175712.643000", "175712.646000", "175712.649000", "175712.652000", "175712.655000", "175712.658000", "175712.661000", "175712.664000", "175712.667000", "175712.670000", "175712.672000", "175712.675000", "175712.678000", "175712.681000", "175752.596000", "175752.599000", "175752.602000", "175752.605000", "175752.608000", "175752.611000", "175752.614000", "175752.617000", "175752.620000", "175752.622000", "175752.625000", "175752.628000", "175752.631000", "175752.634000", "175752.637000", "175752.640000", "175752.643000", "175752.646000", "175752.649000", "175752.652000", "175752.655000", "175752.658000", "175752.660000", "175752.663000", "175752.666000", "175752.669000", "175752.672000", "175832.597000", "175832.600000", "175832.603000", "175832.606000", "175832.609000", "175832.612000", "175832.615000", "175832.618000", "175832.621000", "175832.624000", "175832.627000", "175832.629000", "175832.632000", "175832.635000", "175832.638000", "175832.641000", "175832.644000", "175832.647000", "175832.650000", "175832.653000", "175832.656000", "175832.659000", "175832.661000", "175832.664000", "175832.667000", "175832.670000", "175832.673000", "175912.596000", "175912.599000", "175912.602000", "175912.605000", "175912.608000", "175912.611000", "175912.614000", "175912.617000", "175912.620000", "175912.623000", "175912.626000", "175912.629000", "175912.632000", "175912.635000", "175912.638000", "175912.641000", "175912.644000", "175912.647000", "175912.650000", "175912.652000", "175912.655000", "175912.658000", "175912.661000", "175912.664000", "175912.667000", "175912.670000", "175912.673000", "175952.596000", "175952.599000", "175952.602000", "175952.605000", "175952.608000", "175952.611000", "175952.614000", "175952.617000", "175952.620000", "175952.623000", "175952.626000", "175952.628000", "175952.631000", "175952.634000", "175952.637000", "175952.640000", "175952.643000", "175952.646000", "175952.649000", "175952.652000", "175952.655000", "175952.658000", "175952.661000", "175952.663000", "175952.666000", "175952.669000", "175952.672000", "180032.597000", "180032.600000", "180032.603000", "180032.606000", "180032.610000", "180032.613000", "180032.615000", "180032.618000", "180032.621000", "180032.624000", "180032.627000", "180032.630000", "180032.633000", "180032.636000", "180032.639000", "180032.642000", "180032.645000", "180032.648000", "180032.651000", "180032.654000", "180032.657000", "180032.659000", "180032.662000", "180032.665000", "180032.668000", "180032.671000", "180112.597000", "180112.600000", "180112.603000", "180112.606000", "180112.609000", "180112.612000", "180112.615000", "180112.618000", "180112.621000", "180112.624000", "180112.627000", "180112.630000", "180112.633000", "180112.636000", "180112.639000", "180112.642000", "180112.645000", "180112.647000", "180112.650000", "180112.653000", "180112.656000", "180112.659000", "180112.662000", "180112.665000", "180112.668000", "180112.671000", "180112.674000", "180123.386000", "180123.389000", "180123.392000", "180123.395000", "180123.398000", "180123.401000", "180123.404000", "180123.407000"],
