{
  "AcquisitionMatrixPE": 104,
  "AcquisitionNumber": 1,
  "AcquisitionTime": "17:01:51.292500",
  "BandwidthPerPixelPhaseEncode": 17.17,
  "BaseResolution": 104,
  "BodyPartExamined": "BRAIN",
  "CoilString": "HC1-7;NC1_2",
  "ConsistencyInfo": "N4_VE11C_LATEST_20160120",
  "ConversionSoftware": "dcm2niix",
  "ConversionSoftwareVersion": "v1.0.20190902",
  "DerivedVendorReportedEchoSpacing": 0.000560011,
  "DeviceSerialNumber": "167006",
  "DwellTime": 2.1e-06,
  "EchoTime": 0.037,
  "EchoTrainLength": 104,
  "EffectiveEchoSpacing": 0.000560011,
  "FlipAngle": 52,
  "ImageComments": "Unaliased_MB4_PE3_LB",
  "ImageOrientationPatientDICOM": [0.999977, -0.00572834, -0.00374457, 0.00383961, 0.922531, -0.385905],
  "ImageType": [
    "ORIGINAL",
    "PRIMARY",
    "M",
    "MB",
    "ND",
    "MOSAIC"
],
  "ImagingFrequency": 123.259,
  "InPlanePhaseEncodingDirectionDICOM": "COL",
  "InstitutionAddress": "Chemin_Queen-Mary_4565_Montreal_District_CA_H3W_1W5",
  "InstitutionName": "IUGM",
  "InstitutionalDepartmentName": "Department",
  "MRAcquisitionType": "2D",
  "MagneticFieldStrength": 3,
  "Manufacturer": "Siemens",
  "ManufacturersModelName": "Prisma_fit",
  "Modality": "MR",
  "MultibandAccelerationFactor": 4,
  "PartialFourier": 1,
  "PatientPosition": "HFS",
  "PercentPhaseFOV": 100,
  "PhaseEncodingDirection": "j",
  "PhaseEncodingSteps": 104,
  "PhaseResolution": 1,
  "PixelBandwidth": 2290,
  "ProcedureStepDescription": "video_friends",
  "ProtocolName": "func_task-friends-s04e04b",
  "PulseSequenceDetails": "%CustomerSeq%_cmrr_mbep2d_bold",
  "ReceiveCoilActiveElements": "HC1-7;NC1,2",
  "ReceiveCoilName": "HeadNeck_64",
  "ReconMatrixPE": 104,
  "RepetitionTime": 1.49,
  "SAR": 0.0374025,
  "ScanOptions": "FS",
  "ScanningSequence": "EP",
  "SequenceName": "epfid2d1_104",
  "SequenceVariant": "SK_SS",
  "SeriesDescription": "func_task-friends-s04e04b",
  "SeriesNumber": 13,
  "ShimSetting": [619, -7289, -8815, 435, 10, -442, 59, 8],
  "SliceThickness": 2,
  "SliceTiming": [0, 0.7825, 0.0975, 0.8825, 0.195, 0.98, 0.2925, 1.0775, 0.3925, 1.175, 0.49, 1.2725, 0.5875, 1.3725, 0.685, 0, 0.7825, 0.0975, 0.8825, 0.195, 0.98, 0.2925, 1.0775, 0.3925, 1.175, 0.49, 1.2725, 0.5875, 1.3725, 0.685, 0, 0.7825, 0.0975, 0.8825, 0.195, 0.98, 0.2925, 1.0775, 0.3925, 1.175, 0.49, 1.2725, 0.5875, 1.3725, 0.685, 0, 0.7825, 0.0975, 0.8825, 0.195, 0.98, 0.2925, 1.0775, 0.3925, 1.175, 0.49, 1.2725, 0.5875, 1.3725, 0.685],
  "SoftwareVersions": "syngo_MR_E11",
  "SpacingBetweenSlices": 2,
  "StationName": "MRC35049",
  "TaskName": "s04e04b",
  "TotalReadoutTime": 0.0576811,
  "TxRefAmp": 240.684,
  "WipMemBlock": "628c67a2-c993-4608-9486-063ba4432735||Sequence: R016 ve11c/master r/e634e98; Dec 19 2017 11:00:25 by eja",
  "dcmmeta_affine": [
    [-1.9999531507492065, 0.007679223082959652, -0.011330150067806244, 99.9322280883789],
    [0.011456680484116077, 1.8450613021850586, -0.7717627286911011, -68.67687225341797],
    [-0.007489141542464495, 0.7718095183372498, 1.8450621366500854, -62.02777862548828],
    [0.0, 0.0, 0.0, 1.0]
],
  "dcmmeta_reorient_transform": [
    [0.0, -1.0, 0.0, 103.0],
    [1.0, 0.0, 0.0, 0.0],
    [0.0, 0.0, 1.0, 0.0],
    [0.0, 0.0, 0.0, 1.0]
],
  "dcmmeta_shape": [104, 104, 60, 453],
  "dcmmeta_slice_dim": 2,
  "dcmmeta_version": 0.6,
  "global": {
    "const": {
      "AcquisitionMatrix": [104, 0, 0, 104],
      "AngioFlag": "N",
      "BitsAllocated": 16,
      "BitsStored": 16,
      "BodyPartExamined": "BRAIN",
      "Columns": 832,
      "EchoNumbers": 1,
      "EchoTime": 37.0,
      "EchoTrainLength": 104,
      "FlipAngle": 52.0,
      "HighBit": 15,
      "ImageOrientationPatient": [0.99997658188035, -0.0057283401726, -0.0037445707037, 0.0038396115486, 0.92253063494216, -0.3859047615363],
      "ImagePositionPatient": [-831.50137355392, -788.79650944663, 301.13331469041],
      "ImageType": [
        "ORIGINAL",
        "PRIMARY",
        "M",
        "MB",
        "ND",
        "MOSAIC"
],
      "ImagedNucleus": "1H",
      "ImagingFrequency": 123.258929,
      "InPlanePhaseEncodingDirection": "COL",
      "MRAcquisitionType": "2D",
      "MagneticFieldStrength": 3.0,
      "Manufacturer": "SIEMENS",
      "ManufacturerModelName": "Prisma_fit",
      "Modality": "MR",
      "NumberOfAverages": 1.0,
      "NumberOfPhaseEncodingSteps": 104,
      "PercentPhaseFieldOfView": 100.0,
      "PercentSampling": 100.0,
      "PerformedProcedureStepStartTime": "164603.076000",
      "PhotometricInterpretation": "MONOCHROME2",
      "PixelBandwidth": 2290.0,
      "PixelRepresentation": 0,
      "PixelSpacing": [2.0, 2.0],
      "ProtocolName": "func_task-friends-s04e04b",
      "RepetitionTime": 1490.0,
      "Rows": 832,
      "SAR": 0.03740245266136,
      "SamplesPerPixel": 1,
      "ScanOptions": "FS",
      "ScanningSequence": "EP",
      "SequenceName": "epfid2d1_104",
      "SequenceVariant": [
        "SK",
        "SS"
],
      "SeriesDescription": "func_task-friends-s04e04b",
      "SeriesNumber": 13,
      "SeriesTime": "170310.631000",
      "SliceLocation": -31.287551262939,
      "SliceThickness": 2.0,
      "SmallestImagePixelValue": 0,
      "SoftwareVersions": "syngo MR E11",
      "SpacingBetweenSlices": 2.0000000370809,
      "SpecificCharacterSet": "ISO_IR 100",
      "StudyID": "1",
      "StudyTime": "164603.012000",
      "TransmitCoilName": "Body",
      "VariableFlipAngleFlag": "N",
      "WindowCenterWidthExplanation": "Algo1",
      "dBdt": 0.0},
    "slices": {}
  },
  "time": {
    "samples": {
      "AcquisitionNumber": [1, 2, 3, 4, 5, 6, 7, 8, 9, 10, 11, 12, 13, 14, 15, 16, 17, 18, 19, 20, 21, 22, 23, 24, 25, 26, 27, 28, 29, 30, 31, 32, 33, 34, 35, 36, 37, 38, 39, 40, 41, 42, 43, 44, 45, 46, 47, 48, 49, 50, 51, 52, 53, 54, 55, 56, 57, 58, 59, 60, 61, 62, 63, 64, 65, 66, 67, 68, 69, 70, 71, 72, 73, 74, 75, 76, 77, 78, 79, 80, 81, 82, 83, 84, 85, 86, 87, 88, 89, 90, 91, 92, 93, 94, 95, 96, 97, 98, 99, 100, 101, 102, 103, 104, 105, 106, 107, 108, 109, 110, 111, 112, 113, 114, 115, 116, 117, 118, 119, 120, 121, 122, 123, 124, 125, 126, 127, 128, 129, 130, 131, 132, 133, 134, 135, 136, 137, 138, 139, 140, 141, 142, 143, 144, 145, 146, 147, 148, 149, 150, 151, 152, 153, 154, 155, 156, 157, 158, 159, 160, 161, 162, 163, 164, 165, 166, 167, 168, 169, 170, 171, 172, 173, 174, 175, 176, 177, 178, 179, 180, 181, 182, 183, 184, 185, 186, 187, 188, 189, 190, 191, 192, 193, 194, 195, 196, 197, 198, 199, 200, 201, 202, 203, 204, 205, 206, 207, 208, 209, 210, 211, 212, 213, 214, 215, 216, 217, 218, 219, 220, 221, 222, 223, 224, 225, 226, 227, 228, 229, 230, 231, 232, 233, 234, 235, 236, 237, 238, 239, 240, 241, 242, 243, 244, 245, 246, 247, 248, 249, 250, 251, 252, 253, 254, 255, 256, 257, 258, 259, 260, 261, 262, 263, 264, 265, 266, 267, 268, 269, 270, 271, 272, 273, 274, 275, 276, 277, 278, 279, 280, 281, 282, 283, 284, 285, 286, 287, 288, 289, 290, 291, 292, 293, 294, 295, 296, 297, 298, 299, 300, 301, 302, 303, 304, 305, 306, 307, 308, 309, 310, 311, 312, 313, 314, 315, 316, 317, 318, 319, 320, 321, 322, 323, 324, 325, 326, 327, 328, 329, 330, 331, 332, 333, 334, 335, 336, 337, 338, 339, 340, 341, 342, 343, 344, 345, 346, 347, 348, 349, 350, 351, 352, 353, 354, 355, 356, 357, 358, 359, 360, 361, 362, 363, 364, 365, 366, 367, 368, 369, 370, 371, 372, 373, 374, 375, 376, 377, 378, 379, 380, 381, 382, 383, 384, 385, 386, 387, 388, 389, 390, 391, 392, 393, 394, 395, 396, 397, 398, 399, 400, 401, 402, 403, 404, 405, 406, 407, 408, 409, 410, 411, 412, 413, 414, 415, 416, 417, 418, 419, 420, 421, 422, 423, 424, 425, 426, 427, 428, 429, 430, 431, 432, 433, 434, 435, 436, 437, 438, 439, 440, 441, 442, 443, 444, 445, 446, 447, 448, 449, 450, 451, 452, 453],
      "AcquisitionTime": ["170151.292500", "170152.782500", "170154.272500", "170155.762500", "170157.252500", "170158.742500", "170200.232500", "170201.722500", "170203.212500", "170204.702500", "170206.192500", "170207.682500", "170209.172500", "170210.662500", "170212.152500", "170213.642500", "170215.132500", "170216.622500", "170218.112500", "170219.602500", "170221.092500", "170222.582500", "170224.072500", "170225.562500", "170227.052500", "170228.542500", "170230.032500", "170231.522500", "170233.012500", "170234.502500", "170235.992500", "170237.482500", "170238.972500", "170240.462500", "170241.952500", "170243.442500", "170244.932500", "170246.422500", "170247.912500", "170249.402500", "170250.892500", "170252.382500", "170253.872500", "170255.362500", "170256.852500", "170258.342500", "170259.832500", "170301.322500", "170302.812500", "170304.302500", "170305.792500", "170307.282500", "170308.772500", "170310.262500", "170311.752500", "170313.242500", "170314.732500", "170316.222500", "170317.712500", "170319.202500", "170320.692500", "170322.182500", "170323.672500", "170325.162500", "170326.652500", "170328.142500", "170329.632500", "170331.122500", "170332.612500", "170334.102500", "170335.592500", "170337.082500", "170338.572500", "170340.062500", "170341.552500", "170343.042500", "170344.532500", "170346.022500", "170347.512500", "170349.002500", "170350.492500", "170351.982500", "170353.472500", "170354.962500", "170356.452500", "170357.942500", "170359.432500", "170400.922500", "170402.412500", "170403.902500", "170405.392500", "170406.882500", "170408.372500", "170409.862500", "170411.352500", "170412.842500", "170414.332500", "170415.822500", "170417.312500", "170418.802500", "170420.292500", "170421.782500", "170423.272500", "170424.762500", "170426.252500", "170427.742500", "170429.232500", "170430.722500", "170432.212500", "170433.702500", "170435.192500", "170436.682500", "170438.172500", "170439.662500", "170441.152500", "170442.642500", "170444.132500", "170445.622500", "170447.112500", "170448.602500", "170450.092500", "170451.582500", "170453.072500", "170454.562500", "170456.052500", "170457.542500", "170459.032500", "170500.522500", "170502.012500", "170503.502500", "170504.992500", "170506.482500", "170507.972500", "170509.462500", "170510.952500", "170512.442500", "170513.932500", "170515.422500", "170516.912500", "170518.402500", "170519.892500", "170521.382500", "170522.872500", "170524.362500", "170525.852500", "170527.342500", "170528.832500", "170530.322500", "170531.812500", "170533.302500", "170534.792500", "170536.282500", "170537.772500", "170539.262500", "170540.752500", "170542.242500", "170543.732500", "170545.222500", "170546.712500", "170548.202500", "170549.692500", "170551.182500", "170552.672500", "170554.162500", "170555.652500", "170557.142500", "170558.632500", "170600.122500", "170601.612500", "170603.102500", "170604.592500", "170606.082500", "170607.572500", "170609.062500", "170610.552500", "170612.042500", "170613.532500", "170615.022500", "170616.512500", "170618.002500", "170619.492500", "170620.982500", "170622.472500", "170623.962500", "170625.452500", "170626.942500", "170628.432500", "170629.922500", "170631.412500", "170632.902500", "170634.392500", "170635.882500", "170637.372500", "170638.862500", "170640.352500", "170641.842500", "170643.332500", "170644.822500", "170646.312500", "170647.802500", "170649.292500", "170650.782500", "170652.272500", "170653.762500", "170655.252500", "170656.742500", "170658.232500", "170659.722500", "170701.212500", "170702.702500", "170704.192500", "170705.682500", "170707.172500", "170708.662500", "170710.152500", "170711.642500", "170713.132500", "170714.622500", "170716.112500", "170717.602500", "170719.092500", "170720.582500", "170722.072500", "170723.562500", "170725.052500", "170726.542500", "170728.032500", "170729.522500", "170731.012500", "170732.502500", "170733.992500", "170735.482500", "170736.972500", "170738.462500", "170739.952500", "170741.442500", "170742.932500", "170744.422500", "170745.912500", "170747.402500", "170748.892500", "170750.382500", "170751.872500", "170753.362500", "170754.852500", "170756.342500", "170757.832500", "170759.322500", "170800.812500", "170802.302500", "170803.792500", "170805.282500", "170806.772500", "170808.262500", "170809.752500", "170811.242500", "170812.732500", "170814.222500", "170815.712500", "170817.202500", "170818.692500", "170820.182500", "170821.672500", "170823.162500", "170824.652500", "170826.142500", "170827.632500", "170829.122500", "170830.612500", "170832.102500", "170833.592500", "170835.082500", "170836.572500", "170838.062500", "170839.552500", "170841.042500", "170842.532500", "170844.022500", "170845.512500", "170847.002500", "170848.492500", "170849.982500", "170851.472500", "170852.962500", "170854.452500", "170855.942500", "170857.432500", "170858.922500", "170900.412500", "170901.902500", "170903.392500", "170904.882500", "170906.372500", "170907.862500", "170909.352500", "170910.842500", "170912.332500", "170913.822500", "170915.312500", "170916.802500", "170918.292500", "170919.782500", "170921.272500", "170922.762500", "170924.252500", "170925.742500", "170927.232500", "170928.722500", "170930.212500", "170931.702500", "170933.192500", "170934.682500", "170936.172500", "170937.662500", "170939.152500", "170940.642500", "170942.132500", "170943.622500", "170945.112500", "170946.602500", "170948.092500", "170949.582500", "170951.072500", "170952.562500", "170954.052500", "170955.542500", "170957.032500", "170958.522500", "171000.012500", "171001.502500", "171002.992500", "171004.482500", "171005.972500", "171007.462500", "171008.952500", "171010.442500", "171011.932500", "171013.422500", "171014.912500", "171016.402500", "171017.892500", "171019.382500", "171020.872500", "171022.362500", "171023.852500", "171025.342500", "171026.832500", "171028.322500", "171029.812500", "171031.302500", "171032.792500", "171034.282500", "171035.772500", "171037.262500", "171038.752500", "171040.242500", "171041.732500", "171043.222500", "171044.712500", "171046.202500", "171047.692500", "171049.182500", "171050.672500", "171052.162500", "171053.652500", "171055.142500", "171056.632500", "171058.122500", "171059.612500", "171101.102500", "171102.592500", "171104.082500", "171105.572500", "171107.062500", "171108.552500", "171110.042500", "171111.532500", "171113.022500", "171114.512500", "171116.002500", "171117.492500", "171118.982500", "171120.472500", "171121.962500", "171123.452500", "171124.942500", "171126.432500", "171127.922500", "171129.412500", "171130.902500", "171132.392500", "171133.882500", "171135.372500", "171136.862500", "171138.352500", "171139.842500", "171141.332500", "171142.822500", "171144.312500", "171145.802500", "171147.292500", "171148.782500", "171150.272500", "171151.762500", "171153.252500", "171154.742500", "171156.232500", "171157.722500", "171159.212500", "171200.702500", "171202.192500", "171203.682500", "171205.172500", "171206.662500", "171208.152500", "171209.642500", "171211.132500", "171212.622500", "171214.112500", "171215.602500", "171217.092500", "171218.582500", "171220.072500", "171221.562500", "171223.052500", "171224.542500", "171226.032500", "171227.522500", "171229.012500", "171230.502500", "171231.992500", "171233.482500", "171234.972500", "171236.462500", "171237.952500", "171239.442500", "171240.932500", "171242.422500", "171243.912500", "171245.402500", "171246.892500", "171248.382500", "171249.872500", "171251.362500", "171252.852500", "171254.342500", "171255.832500", "171257.322500", "171258.812500", "171300.302500", "171301.792500", "171303.282500", "171304.772500"],
      "ContentTime": ["170310.634000", "170310.637000", "170310.640000", "170310.643000", "170310.646000", "170310.649000", "170310.652000", "170310.655000", "170310.658000", "170310.660000", "170310.663000", "170310.666000", "170310.669000", "170310.672000", "170310.675000", "170310.678000", "170310.681000", "170310.684000", "170310.695000", "170310.698000", "170310.701000", "170310.704000", "170310.706000", "170310.709000", "170310.712000", "170310.715000", "170330.598000", "170330.601000", "170330.604000", "170330.607000", "170330.617000", "170330.620000", "170330.623000", "170330.626000", "170330.628000", "170330.631000", "170330.634000", "170330.637000", "170330.640000", "170330.643000", "170330.646000", "170330.649000", "170330.652000", "170330.655000", "170330.658000", "170330.661000", "170330.664000", "170350.599000", "170350.602000", "170350.605000", "170350.608000", "170350.611000", "170350.614000", "170350.617000", "170350.620000", "170350.623000", "170350.625000", "170350.628000", "170350.639000", "170350.642000", "170350.645000", "170350.648000", "170350.651000", "170350.654000", "170350.657000", "170350.660000", "170350.663000", "170410.598000", "170410.601000", "170410.604000", "170410.607000", "170410.610000", "170410.613000", "170410.616000", "170410.618000", "170410.621000", "170410.624000", "170410.627000", "170410.630000", "170410.643000", "170410.646000", "170410.649000", "170410.652000", "170410.655000", "170410.658000", "170410.661000", "170410.664000", "170450.597000", "170450.600000", "170450.603000", "170450.606000", "170450.609000", "170450.612000", "170450.615000", "170450.618000", "170450.621000", "170450.624000", "170450.626000", "170450.629000", "170450.632000", "170450.635000", "170450.638000", "170450.641000", "170450.644000", "170450.647000", "170450.650000", "170450.652000", "170450.655000", "170450.668000", "170450.671000", "170450.674000", "170450.677000", "170450.680000", "170450.683000", "170450.686000", "170450.689000", "170450.692000", "170450.694000", "170450.697000", "170530.598000", "170530.601000", "170530.604000", "170530.607000", "170530.610000", "170530.613000", "170530.616000", "170530.619000", "170530.622000", "170530.625000", "170530.628000", "170530.630000", "170530.633000", "170530.636000", "170530.639000", "170530.642000", "170530.645000", "170530.648000", "170530.651000", "170530.654000", "170530.657000", "170530.660000", "170530.663000", "170530.666000", "170530.669000", "170530.672000", "170530.674000", "170550.598000", "170550.601000", "170550.604000", "170550.607000", "170550.610000", "170550.613000", "170550.616000", "170550.619000", "170550.622000", "170550.625000", "170550.628000", "170550.630000", "170550.633000", "170630.598000", "170630.601000", "170630.604000", "170630.607000", "170630.610000", "170630.613000", "170630.616000", "170630.619000", "170630.622000", "170630.625000", "170630.628000", "170630.630000", "170630.633000", "170630.636000", "170630.639000", "170630.642000", "170630.645000", "170630.648000", "170630.651000", "170630.654000", "170630.657000", "170630.660000", "170630.663000", "170630.666000", "170630.669000", "170630.672000", "170630.675000", "170710.597000", "170710.600000", "170710.603000", "170710.606000", "170710.609000", "170710.612000", "170710.615000", "170710.618000", "170710.621000", "170710.624000", "170710.627000", "170710.630000", "170710.633000", "170710.636000", "170710.639000", "170710.642000", "170710.644000", "170710.647000", "170710.650000", "170710.653000", "170710.656000", "170710.659000", "170710.662000", "170710.665000", "170710.668000", "170710.671000", "170710.674000", "170750.598000", "170750.601000", "170750.604000", "170750.607000", "170750.610000", "170750.613000", "170750.616000", "170750.619000", "170750.622000", "170750.624000", "170750.627000", "170750.630000", "170750.633000", "170750.636000", "170750.639000", "170750.642000", "170750.645000", "170750.648000", "170750.651000", "170750.654000", "170750.657000", "170750.660000", "170750.663000", "170750.666000", "170750.669000", "170750.671000", "170750.674000", "170830.598000", "170830.601000", "170830.604000", "170830.607000", "170830.610000", "170830.613000", "170830.616000", "170830.619000", "170830.622000", "170830.625000", "170830.635000", "170830.638000", "170830.641000", "170830.644000", "170830.647000", "170830.650000", "170830.653000", "170830.656000", "170830.659000", "170830.662000", "170830.665000", "170830.667000", "170830.670000", "170830.673000", "170830.676000", "170830.679000", "170830.682000", "170910.610000", "170910.614000", "170910.617000", "170910.619000", "170910.622000", "170910.625000", "170910.628000", "170910.631000", "170910.634000", "170910.637000", "170910.640000", "170910.643000", "170910.646000", "170910.649000", "170910.652000", "170910.655000", "170910.658000", "170910.660000", "170910.663000", "170910.666000", "170910.669000", "170910.672000", "170910.675000", "170910.678000", "170910.681000", "170910.684000", "170910.687000", "170950.598000", "170950.601000", "170950.605000", "170950.608000", "170950.611000", "170950.614000", "170950.617000", "170950.620000", "170950.623000", "170950.626000", "170950.629000", "170950.631000", "170950.634000", "170950.637000", "170950.641000", "170950.643000", "170950.646000", "170950.649000", "170950.652000", "170950.655000", "170950.658000", "170950.661000", "170950.676000", "170950.679000", "170950.682000", "170950.685000", "171030.598000", "171030.601000", "171030.604000", "171030.607000", "171030.610000", "171030.613000", "171030.616000", "171030.619000", "171030.622000", "171030.625000", "171030.628000", "171030.631000", "171030.634000", "171030.636000", "171030.639000", "171030.642000", "171030.645000", "171030.648000", "171030.651000", "171030.654000", "171030.657000", "171030.660000", "171030.663000", "171030.666000", "171030.669000", "171030.672000", "171030.675000", "171110.598000", "171110.601000", "171110.604000", "171110.607000", "171110.610000", "171110.613000", "171110.616000", "171110.619000", "171110.622000", "171110.625000", "171110.628000", "171110.631000", "171110.634000", "171110.636000", "171110.640000", "171110.642000", "171110.645000", "171110.648000", "171110.651000", "171110.654000", "171110.657000", "171110.660000", "171110.663000", "171110.666000", "171110.669000", "171110.672000", "171110.674000", "171150.597000", "171150.600000", "171150.603000", "171150.606000", "171150.609000", "171150.612000", "171150.615000", "171150.618000", "171150.621000", "171150.624000", "171150.627000", "171150.629000", "171150.632000", "171150.635000", "171150.638000", "171150.641000", "171150.644000", "171150.647000", "171150.650000", "171150.653000", "171150.656000", "171150.659000", "171150.662000", "171150.665000", "171150.668000", "171150.670000", "171150.673000", "171230.598000", "171230.601000", "171230.604000", "171230.607000", "171230.610000", "171230.613000", "171230.616000", "171230.619000", "171230.622000", "171230.625000", "171230.628000", "171230.631000", "171230.634000", "171230.637000", "171230.640000", "171230.643000", "171230.646000", "171230.649000", "171230.652000", "171230.654000", "171230.657000", "171230.660000", "171230.663000", "171230.666000", "171230.669000", "171230.672000", "171230.675000", "171307.347000", "171307.350000", "171307.353000", "171307.356000", "171307.359000", "171307.362000", "171307.365000", "171307.368000", "171307.371000", "171307.374000", "171307.377000", "171307.380000", "171307.383000", "171307.386000", "171307.390000", "171307.393000", "171307.395000", "171307.398000", "171307.401000", "171307.404000", "171307.407000", "171307.410000", "171307.413000", "171307.416000", "171307.419000"],
