{
  "AcquisitionMatrixPE": 104,
  "AcquisitionNumber": 1,
  "AcquisitionTime": "13:41:10.822500",
  "BandwidthPerPixelPhaseEncode": 17.17,
  "BaseResolution": 104,
  "BodyPartExamined": "BRAIN",
  "CoilString": "HC1-7;NC1_2",
  "ConsistencyInfo": "N4_VE11C_LATEST_20160120",
  "ConversionSoftware": "dcm2niix",
  "ConversionSoftwareVersion": "v1.0.20190902",
  "DerivedVendorReportedEchoSpacing": 0.000560011,
  "DeviceSerialNumber": "167006",
  "DwellTime": 2.1e-06,
  "EchoTime": 0.037,
  "EchoTrainLength": 104,
  "EffectiveEchoSpacing": 0.000560011,
  "FlipAngle": 52,
  "HeudiconvVersion": "0.10.0",
  "ImageComments": "Unaliased_MB4_PE3_LB",
  "ImageOrientationPatientDICOM": [0.998765, -0.0277765, 0.0411924, 0.0458777, 0.833839, -0.550098],
  "ImageType": [
    "ORIGINAL",
    "PRIMARY",
    "M",
    "MB",
    "ND",
    "MOSAIC"
],
  "ImagingFrequency": 123.259,
  "InPlanePhaseEncodingDirectionDICOM": "COL",
  "InstitutionAddress": "Chemin_Queen-Mary_4565_Montreal_District_CA_H3W_1W5",
  "InstitutionName": "IUGM",
  "InstitutionalDepartmentName": "Department",
  "MRAcquisitionType": "2D",
  "MagneticFieldStrength": 3,
  "Manufacturer": "Siemens",
  "ManufacturersModelName": "Prisma_fit",
  "Modality": "MR",
  "MultibandAccelerationFactor": 4,
  "PartialFourier": 1,
  "PatientPosition": "HFS",
  "PercentPhaseFOV": 100,
  "PhaseEncodingDirection": "j",
  "PhaseEncodingSteps": 104,
  "PhaseResolution": 1,
  "PixelBandwidth": 2290,
  "ProcedureStepDescription": "video_friends",
  "ProtocolName": "func_task-friends-s06e07a",
  "PulseSequenceDetails": "%CustomerSeq%_cmrr_mbep2d_bold",
  "ReceiveCoilActiveElements": "HC1-7;NC1,2",
  "ReceiveCoilName": "HeadNeck_64",
  "ReconMatrixPE": 104,
  "RepetitionTime": 1.49,
  "SAR": 0.0430007,
  "ScanOptions": "FS",
  "ScanningSequence": "EP",
  "SequenceName": "epfid2d1_104",
  "SequenceVariant": "SK_SS",
  "SeriesDescription": "func_task-friends-s06e07a",
  "SeriesNumber": 9,
  "ShimSetting": [629, -7176, -8858, 251, -4, -258, -41, 33],
  "SliceThickness": 2,
  "SliceTiming": [0, 0.785, 0.0975, 0.8825, 0.195, 0.98, 0.295, 1.0775, 0.3925, 1.175, 0.49, 1.2725, 0.5875, 1.3725, 0.685, 0, 0.785, 0.0975, 0.8825, 0.195, 0.98, 0.295, 1.0775, 0.3925, 1.175, 0.49, 1.2725, 0.5875, 1.3725, 0.685, 0, 0.785, 0.0975, 0.8825, 0.195, 0.98, 0.295, 1.0775, 0.3925, 1.175, 0.49, 1.2725, 0.5875, 1.3725, 0.685, 0, 0.785, 0.0975, 0.8825, 0.195, 0.98, 0.295, 1.0775, 0.3925, 1.175, 0.49, 1.2725, 0.5875, 1.3725, 0.685],
  "SoftwareVersions": "syngo_MR_E11",
  "SpacingBetweenSlices": 2,
  "StationName": "MRC35049",
  "TaskName": "s06e07a",
  "TotalReadoutTime": 0.0576811,
  "TxRefAmp": 254.21,
  "WipMemBlock": "380b88fe-75ac-4ff7-a7a7-6807172734cb||Sequence: R016 ve11c/master r/e634e98; Dec 19 2017 11:00:25 by eja",
  "dcmmeta_affine": [
    [-1.9975301027297974, 0.09175539761781693, 0.03813605383038521, 97.82506561279297],
    [0.055553071200847626, 1.6676775217056274, -1.102617621421814, -57.84796142578125],
    [0.0823848769068718, 1.1001965999603271, 1.6681666374206543, -105.31078338623047],
    [0.0, 0.0, 0.0, 1.0]
],
  "dcmmeta_reorient_transform": [
    [0.0, -1.0, 0.0, 103.0],
    [1.0, 0.0, 0.0, 0.0],
    [0.0, 0.0, 1.0, 0.0],
    [0.0, 0.0, 0.0, 1.0]
],
  "dcmmeta_shape": [104, 104, 60, 445],
  "dcmmeta_slice_dim": 2,
  "dcmmeta_version": 0.6,
  "global": {
    "const": {
      "AcquisitionMatrix": [104, 0, 0, 104],
      "AngioFlag": "N",
      "BitsAllocated": 16,
      "BitsStored": 16,
      "BodyPartExamined": "BRAIN",
      "Columns": 832,
      "EchoNumbers": 1,
      "EchoTime": 37.0,
      "EchoTrainLength": 104,
      "FlipAngle": 52.0,
      "HighBit": 15,
      "ImageOrientationPatient": [0.99876506104032, -0.0277765353481, 0.041192437767, 0.04587769851916, 0.83383876421528, -0.5500983112776],
      "ImagePositionPatient": [-867.77580052682, -700.73612633094, 378.49294252868],
      "ImageType": [
        "ORIGINAL",
        "PRIMARY",
        "M",
        "MB",
        "ND",
        "MOSAIC"
],
      "ImagedNucleus": "1H",
      "ImagingFrequency": 123.258867,
      "InPlanePhaseEncodingDirection": "COL",
      "MRAcquisitionType": "2D",
      "MagneticFieldStrength": 3.0,
      "Manufacturer": "SIEMENS",
      "ManufacturerModelName": "Prisma_fit",
      "Modality": "MR",
      "NumberOfAverages": 1.0,
      "NumberOfPhaseEncodingSteps": 104,
      "PercentPhaseFieldOfView": 100.0,
      "PercentSampling": 100.0,
      "PerformedProcedureStepStartTime": "123220.067000",
      "PhotometricInterpretation": "MONOCHROME2",
      "PixelBandwidth": 2290.0,
      "PixelRepresentation": 0,
      "PixelSpacing": [2.0, 2.0],
      "ProtocolName": "func_task-friends-s06e07a",
      "RepetitionTime": 1490.0,
      "Rows": 832,
      "SAR": 0.04300065269289,
      "SamplesPerPixel": 1,
      "ScanOptions": "FS",
      "ScanningSequence": "EP",
      "SequenceName": "epfid2d1_104",
      "SequenceVariant": [
        "SK",
        "SS"
],
      "SeriesDescription": "func_task-friends-s06e07a",
      "SeriesNumber": 9,
      "SeriesTime": "134220.111000",
      "SliceLocation": -54.080551974571,
      "SliceThickness": 2.0,
      "SmallestImagePixelValue": 0,
      "SoftwareVersions": "syngo MR E11",
      "SpacingBetweenSlices": 1.9999999781409,
      "SpecificCharacterSet": "ISO_IR 100",
      "StudyID": "1",
      "StudyTime": "123219.949000",
      "TransmitCoilName": "Body",
      "VariableFlipAngleFlag": "N",
      "WindowCenterWidthExplanation": "Algo1",
      "dBdt": 0.0},
    "slices": {}
  },
  "time": {
    "samples": {
      "AcquisitionNumber": [1, 2, 3, 4, 5, 6, 7, 8, 9, 10, 11, 12, 13, 14, 15, 16, 17, 18, 19, 20, 21, 22, 23, 24, 25, 26, 27, 28, 29, 30, 31, 32, 33, 34, 35, 36, 37, 38, 39, 40, 41, 42, 43, 44, 45, 46, 47, 48, 49, 50, 51, 52, 53, 54, 55, 56, 57, 58, 59, 60, 61, 62, 63, 64, 65, 66, 67, 68, 69, 70, 71, 72, 73, 74, 75, 76, 77, 78, 79, 80, 81, 82, 83, 84, 85, 86, 87, 88, 89, 90, 91, 92, 93, 94, 95, 96, 97, 98, 99, 100, 101, 102, 103, 104, 105, 106, 107, 108, 109, 110, 111, 112, 113, 114, 115, 116, 117, 118, 119, 120, 121, 122, 123, 124, 125, 126, 127, 128, 129, 130, 131, 132, 133, 134, 135, 136, 137, 138, 139, 140, 141, 142, 143, 144, 145, 146, 147, 148, 149, 150, 151, 152, 153, 154, 155, 156, 157, 158, 159, 160, 161, 162, 163, 164, 165, 166, 167, 168, 169, 170, 171, 172, 173, 174, 175, 176, 177, 178, 179, 180, 181, 182, 183, 184, 185, 186, 187, 188, 189, 190, 191, 192, 193, 194, 195, 196, 197, 198, 199, 200, 201, 202, 203, 204, 205, 206, 207, 208, 209, 210, 211, 212, 213, 214, 215, 216, 217, 218, 219, 220, 221, 222, 223, 224, 225, 226, 227, 228, 229, 230, 231, 232, 233, 234, 235, 236, 237, 238, 239, 240, 241, 242, 243, 244, 245, 246, 247, 248, 249, 250, 251, 252, 253, 254, 255, 256, 257, 258, 259, 260, 261, 262, 263, 264, 265, 266, 267, 268, 269, 270, 271, 272, 273, 274, 275, 276, 277, 278, 279, 280, 281, 282, 283, 284, 285, 286, 287, 288, 289, 290, 291, 292, 293, 294, 295, 296, 297, 298, 299, 300, 301, 302, 303, 304, 305, 306, 307, 308, 309, 310, 311, 312, 313, 314, 315, 316, 317, 318, 319, 320, 321, 322, 323, 324, 325, 326, 327, 328, 329, 330, 331, 332, 333, 334, 335, 336, 337, 338, 339, 340, 341, 342, 343, 344, 345, 346, 347, 348, 349, 350, 351, 352, 353, 354, 355, 356, 357, 358, 359, 360, 361, 362, 363, 364, 365, 366, 367, 368, 369, 370, 371, 372, 373, 374, 375, 376, 377, 378, 379, 380, 381, 382, 383, 384, 385, 386, 387, 388, 389, 390, 391, 392, 393, 394, 395, 396, 397, 398, 399, 400, 401, 402, 403, 404, 405, 406, 407, 408, 409, 410, 411, 412, 413, 414, 415, 416, 417, 418, 419, 420, 421, 422, 423, 424, 425, 426, 427, 428, 429, 430, 431, 432, 433, 434, 435, 436, 437, 438, 439, 440, 441, 442, 443, 444, 445],
      "AcquisitionTime": ["134110.822500", "134112.312500", "134113.802500", "134115.292500", "134116.782500", "134118.272500", "134119.762500", "134121.252500", "134122.742500", "134124.232500", "134125.722500", "134127.212500", "134128.702500", "134130.192500", "134131.682500", "134133.172500", "134134.662500", "134136.152500", "134137.642500", "134139.132500", "134140.622500", "134142.112500", "134143.602500", "134145.092500", "134146.582500", "134148.072500", "134149.562500", "134151.052500", "134152.542500", "134154.032500", "134155.522500", "134157.012500", "134158.502500", "134159.992500", "134201.482500", "134202.972500", "134204.462500", "134205.952500", "134207.442500", "134208.932500", "134210.422500", "134211.912500", "134213.402500", "134214.892500", "134216.382500", "134217.872500", "134219.362500", "134220.852500", "134222.342500", "134223.832500", "134225.322500", "134226.812500", "134228.302500", "134229.792500", "134231.282500", "134232.772500", "134234.262500", "134235.752500", "134237.242500", "134238.732500", "134240.222500", "134241.712500", "134243.202500", "134244.692500", "134246.182500", "134247.672500", "134249.162500", "134250.652500", "134252.142500", "134253.632500", "134255.122500", "134256.612500", "134258.102500", "134259.592500", "134301.082500", "134302.572500", "134304.062500", "134305.552500", "134307.042500", "134308.532500", "134310.022500", "134311.512500", "134313.002500", "134314.492500", "134315.982500", "134317.472500", "134318.962500", "134320.452500", "134321.942500", "134323.432500", "134324.922500", "134326.412500", "134327.902500", "134329.392500", "134330.882500", "134332.372500", "134333.862500", "134335.352500", "134336.842500", "134338.332500", "134339.822500", "134341.312500", "134342.802500", "134344.292500", "134345.782500", "134347.272500", "134348.762500", "134350.252500", "134351.742500", "134353.232500", "134354.722500", "134356.212500", "134357.702500", "134359.192500", "134400.682500", "134402.172500", "134403.662500", "134405.152500", "134406.642500", "134408.132500", "134409.622500", "134411.112500", "134412.602500", "134414.092500", "134415.582500", "134417.072500", "134418.562500", "134420.052500", "134421.542500", "134423.032500", "134424.522500", "134426.012500", "134427.502500", "134428.992500", "134430.482500", "134431.972500", "134433.462500", "134434.952500", "134436.442500", "134437.932500", "134439.422500", "134440.912500", "134442.402500", "134443.892500", "134445.382500", "134446.872500", "134448.362500", "134449.852500", "134451.342500", "134452.832500", "134454.322500", "134455.812500", "134457.302500", "134458.792500", "134500.282500", "134501.772500", "134503.262500", "134504.752500", "134506.242500", "134507.732500", "134509.222500", "134510.712500", "134512.202500", "134513.692500", "134515.182500", "134516.672500", "134518.162500", "134519.652500", "134521.142500", "134522.632500", "134524.122500", "134525.612500", "134527.102500", "134528.592500", "134530.082500", "134531.572500", "134533.062500", "134534.552500", "134536.042500", "134537.532500", "134539.022500", "134540.512500", "134542.002500", "134543.492500", "134544.982500", "134546.472500", "134547.962500", "134549.452500", "134550.942500", "134552.432500", "134553.922500", "134555.412500", "134556.902500", "134558.392500", "134559.882500", "134601.372500", "134602.862500", "134604.352500", "134605.842500", "134607.332500", "134608.822500", "134610.312500", "134611.802500", "134613.292500", "134614.782500", "134616.272500", "134617.762500", "134619.252500", "134620.742500", "134622.232500", "134623.722500", "134625.212500", "134626.702500", "134628.192500", "134629.682500", "134631.172500", "134632.662500", "134634.152500", "134635.642500", "134637.132500", "134638.622500", "134640.112500", "134641.602500", "134643.092500", "134644.582500", "134646.072500", "134647.562500", "134649.052500", "134650.542500", "134652.032500", "134653.522500", "134655.012500", "134656.502500", "134657.992500", "134659.482500", "134700.972500", "134702.462500", "134703.952500", "134705.442500", "134706.932500", "134708.422500", "134709.912500", "134711.402500", "134712.892500", "134714.382500", "134715.872500", "134717.362500", "134718.852500", "134720.342500", "134721.832500", "134723.322500", "134724.812500", "134726.302500", "134727.792500", "134729.282500", "134730.772500", "134732.262500", "134733.752500", "134735.242500", "134736.732500", "134738.222500", "134739.712500", "134741.202500", "134742.692500", "134744.182500", "134745.672500", "134747.162500", "134748.652500", "134750.142500", "134751.632500", "134753.122500", "134754.612500", "134756.102500", "134757.592500", "134759.082500", "134800.572500", "134802.062500", "134803.552500", "134805.042500", "134806.532500", "134808.022500", "134809.512500", "134811.002500", "134812.492500", "134813.982500", "134815.472500", "134816.962500", "134818.452500", "134819.942500", "134821.432500", "134822.922500", "134824.412500", "134825.902500", "134827.392500", "134828.882500", "134830.372500", "134831.862500", "134833.352500", "134834.842500", "134836.332500", "134837.822500", "134839.312500", "134840.802500", "134842.292500", "134843.782500", "134845.272500", "134846.762500", "134848.252500", "134849.742500", "134851.232500", "134852.722500", "134854.212500", "134855.702500", "134857.192500", "134858.682500", "134900.172500", "134901.662500", "134903.152500", "134904.642500", "134906.132500", "134907.622500", "134909.112500", "134910.602500", "134912.092500", "134913.582500", "134915.072500", "134916.562500", "134918.052500", "134919.542500", "134921.032500", "134922.522500", "134924.012500", "134925.502500", "134926.992500", "134928.482500", "134929.972500", "134931.462500", "134932.952500", "134934.442500", "134935.932500", "134937.422500", "134938.912500", "134940.402500", "134941.892500", "134943.382500", "134944.872500", "134946.362500", "134947.852500", "134949.342500", "134950.832500", "134952.322500", "134953.812500", "134955.302500", "134956.792500", "134958.282500", "134959.772500", "135001.262500", "135002.752500", "135004.242500", "135005.732500", "135007.222500", "135008.712500", "135010.202500", "135011.692500", "135013.182500", "135014.672500", "135016.162500", "135017.652500", "135019.142500", "135020.632500", "135022.122500", "135023.612500", "135025.102500", "135026.592500", "135028.082500", "135029.572500", "135031.062500", "135032.552500", "135034.042500", "135035.532500", "135037.022500", "135038.512500", "135040.002500", "135041.492500", "135042.982500", "135044.472500", "135045.962500", "135047.452500", "135048.942500", "135050.432500", "135051.922500", "135053.412500", "135054.902500", "135056.392500", "135057.882500", "135059.372500", "135100.862500", "135102.352500", "135103.842500", "135105.332500", "135106.822500", "135108.312500", "135109.802500", "135111.292500", "135112.782500", "135114.272500", "135115.762500", "135117.252500", "135118.742500", "135120.232500", "135121.722500", "135123.212500", "135124.702500", "135126.192500", "135127.682500", "135129.172500", "135130.662500", "135132.152500", "135133.642500", "135135.132500", "135136.622500", "135138.112500", "135139.602500", "135141.092500", "135142.582500", "135144.072500", "135145.562500", "135147.052500", "135148.542500", "135150.032500", "135151.522500", "135153.012500", "135154.502500", "135155.992500", "135157.482500", "135158.972500", "135200.462500", "135201.952500", "135203.442500", "135204.932500", "135206.422500", "135207.912500", "135209.402500", "135210.892500", "135212.382500"],
      "ContentTime": ["134220.113000", "134220.117000", "134220.120000", "134220.122000", "134220.125000", "134220.128000", "134220.131000", "134220.134000", "134220.137000", "134220.140000", "134220.143000", "134220.154000", "134220.157000", "134220.160000", "134300.081000", "134300.084000", "134300.087000", "134300.091000", "134300.096000", "134300.099000", "134300.103000", "134300.118000", "134300.121000", "134300.124000", "134300.127000", "134300.159000", "134300.162000", "134300.165000", "134300.168000", "134300.181000", "134300.183000", "134300.186000", "134300.189000", "134300.192000", "134300.195000", "134300.198000", "134300.201000", "134300.204000", "134300.207000", "134300.210000", "134300.213000", "134300.216000", "134300.219000", "134300.222000", "134300.225000", "134300.228000", "134300.245000", "134300.248000", "134300.250000", "134300.253000", "134300.295000", "134300.298000", "134300.301000", "134320.081000", "134320.084000", "134320.087000", "134320.090000", "134320.093000", "134320.096000", "134320.099000", "134320.102000", "134320.104000", "134320.107000", "134320.110000", "134320.113000", "134320.116000", "134320.119000", "134320.122000", "134320.125000", "134320.135000", "134320.138000", "134320.140000", "134320.143000", "134320.146000", "134340.081000", "134340.084000", "134340.087000", "134340.090000", "134340.093000", "134340.096000", "134340.099000", "134340.102000", "134340.105000", "134340.108000", "134340.110000", "134340.113000", "134340.116000", "134340.119000", "134340.122000", "134340.128000", "134340.143000", "134340.146000", "134340.149000", "134340.152000", "134420.080000", "134420.083000", "134420.086000", "134420.089000", "134420.092000", "134420.095000", "134420.098000", "134420.101000", "134420.104000", "134420.115000", "134420.118000", "134420.121000", "134420.123000", "134420.126000", "134420.129000", "134420.132000", "134420.135000", "134420.138000", "134420.141000", "134420.144000", "134420.147000", "134420.150000", "134420.153000", "134420.156000", "134420.159000", "134420.162000", "134420.164000", "134420.167000", "134420.170000", "134420.173000", "134420.176000", "134420.190000", "134500.080000", "134500.083000", "134500.086000", "134500.089000", "134500.092000", "134500.095000", "134500.098000", "134500.101000", "134500.104000", "134500.107000", "134500.110000", "134500.113000", "134500.116000", "134500.119000", "134500.122000", "134500.125000", "134500.128000", "134500.131000", "134500.133000", "134500.136000", "134500.139000", "134500.142000", "134500.145000", "134500.148000", "134500.151000", "134500.154000", "134500.157000", "134540.081000", "134540.084000", "134540.087000", "134540.090000", "134540.093000", "134540.096000", "134540.099000", "134540.102000", "134540.105000", "134540.108000", "134540.111000", "134540.113000", "134540.116000", "134540.137000", "134540.140000", "134540.143000", "134540.146000", "134540.148000", "134540.151000", "134540.154000", "134540.157000", "134540.160000", "134540.163000", "134540.166000", "134540.169000", "134540.172000", "134540.175000", "134620.081000", "134620.084000", "134620.087000", "134620.090000", "134620.093000", "134620.096000", "134620.099000", "134620.102000", "134620.105000", "134620.108000", "134620.111000", "134620.114000", "134620.117000", "134620.120000", "134620.122000", "134620.126000", "134620.128000", "134620.139000", "134620.142000", "134620.145000", "134620.148000", "134620.151000", "134620.154000", "134620.157000", "134620.160000", "134620.162000", "134620.165000", "134640.080000", "134640.084000", "134640.087000", "134640.090000", "134640.093000", "134640.095000", "134640.098000", "134640.101000", "134640.104000", "134640.107000", "134640.110000", "134640.113000", "134640.116000", "134720.080000", "134720.083000", "134720.086000", "134720.089000", "134720.092000", "134720.095000", "134720.098000", "134720.101000", "134720.104000", "134720.107000", "134720.110000", "134720.112000", "134720.115000", "134720.118000", "134720.121000", "134720.124000", "134720.127000", "134720.130000", "134720.133000", "134720.136000", "134720.139000", "134720.142000", "134720.145000", "134720.148000", "134720.151000", "134720.154000", "134720.157000", "134800.081000", "134800.084000", "134800.087000", "134800.090000", "134800.093000", "134800.096000", "134800.099000", "134800.102000", "134800.105000", "134800.108000", "134800.111000", "134800.114000", "134800.117000", "134800.120000", "134800.123000", "134800.130000", "134800.133000", "134800.136000", "134800.138000", "134800.142000", "134800.144000", "134800.147000", "134800.150000", "134800.153000", "134800.156000", "134800.159000", "134800.162000", "134840.081000", "134840.084000", "134840.087000", "134840.090000", "134840.093000", "134840.096000", "134840.105000", "134840.108000", "134840.111000", "134840.114000", "134840.117000", "134840.120000", "134840.123000", "134840.141000", "134840.144000", "134840.147000", "134840.150000", "134840.153000", "134840.156000", "134840.159000", "134840.162000", "134840.165000", "134840.168000", "134840.170000", "134840.173000", "134840.176000", "134840.179000", "134920.080000", "134920.083000", "134920.087000", "134920.090000", "134920.093000", "134920.095000", "134920.098000", "134920.101000", "134920.104000", "134920.107000", "134920.110000", "134920.113000", "134920.116000", "134920.126000", "134920.129000", "134920.132000", "134920.135000", "134920.138000", "134920.140000", "134920.143000", "134920.146000", "134920.149000", "134920.152000", "134920.155000", "134920.158000", "134920.161000", "135000.081000", "135000.084000", "135000.087000", "135000.090000", "135000.093000", "135000.096000", "135000.099000", "135000.102000", "135000.105000", "135000.108000", "135000.111000", "135000.114000", "135000.117000", "135000.126000", "135000.129000", "135000.132000", "135000.135000", "135000.138000", "135000.141000", "135000.144000", "135000.147000", "135000.150000", "135000.153000", "135000.156000", "135000.159000", "135000.162000", "135000.165000", "135040.081000", "135040.084000", "135040.087000", "135040.090000", "135040.093000", "135040.096000", "135040.099000", "135040.102000", "135040.105000", "135040.108000", "135040.111000", "135040.114000", "135040.117000", "135040.120000", "135040.123000", "135040.126000", "135040.129000", "135040.132000", "135040.135000", "135040.138000", "135040.141000", "135040.144000", "135040.147000", "135040.150000", "135040.153000", "135040.156000", "135040.159000", "135120.080000", "135120.083000", "135120.086000", "135120.089000", "135120.092000", "135120.095000", "135120.098000", "135120.101000", "135120.104000", "135120.107000", "135120.110000", "135120.123000", "135120.126000", "135120.129000", "135120.132000", "135120.135000", "135120.138000", "135120.141000", "135120.144000", "135120.147000", "135120.150000", "135120.153000", "135120.156000", "135120.159000", "135120.162000", "135120.165000", "135120.168000", "135200.080000", "135200.083000", "135200.086000", "135200.090000", "135200.093000", "135200.095000", "135200.098000", "135200.101000", "135200.104000", "135200.107000", "135200.110000", "135200.114000", "135200.117000", "135200.119000", "135200.122000", "135200.125000", "135200.128000", "135200.131000", "135200.134000", "135200.137000", "135200.140000", "135200.143000", "135200.146000", "135200.149000", "135200.152000", "135200.155000", "135200.158000", "135214.460000", "135214.464000", "135214.467000", "135214.470000", "135214.473000", "135214.476000", "135214.479000", "135214.482000", "135214.485000", "135214.488000"],
