{
  "AcquisitionMatrixPE": 104,
  "AcquisitionNumber": 1,
  "AcquisitionTime": "13:53:50.825000",
  "BandwidthPerPixelPhaseEncode": 17.17,
  "BaseResolution": 104,
  "BodyPartExamined": "BRAIN",
  "CoilString": "HC1-7;NC1_2",
  "ConsistencyInfo": "N4_VE11C_LATEST_20160120",
  "ConversionSoftware": "dcm2niix",
  "ConversionSoftwareVersion": "v1.0.20190902",
  "DerivedVendorReportedEchoSpacing": 0.000560011,
  "DeviceSerialNumber": "167006",
  "DwellTime": 2.1e-06,
  "EchoTime": 0.037,
  "EchoTrainLength": 104,
  "EffectiveEchoSpacing": 0.000560011,
  "FlipAngle": 52,
  "HeudiconvVersion": "0.10.0",
  "ImageComments": "Unaliased_MB4_PE3_LB",
  "ImageOrientationPatientDICOM": [0.998765, -0.0277765, 0.0411924, 0.0458777, 0.833839, -0.550098],
  "ImageType": [
    "ORIGINAL",
    "PRIMARY",
    "M",
    "MB",
    "ND",
    "MOSAIC"
],
  "ImagingFrequency": 123.259,
  "InPlanePhaseEncodingDirectionDICOM": "COL",
  "InstitutionAddress": "Chemin_Queen-Mary_4565_Montreal_District_CA_H3W_1W5",
  "InstitutionName": "IUGM",
  "InstitutionalDepartmentName": "Department",
  "MRAcquisitionType": "2D",
  "MagneticFieldStrength": 3,
  "Manufacturer": "Siemens",
  "ManufacturersModelName": "Prisma_fit",
  "Modality": "MR",
  "MultibandAccelerationFactor": 4,
  "PartialFourier": 1,
  "PatientPosition": "HFS",
  "PercentPhaseFOV": 100,
  "PhaseEncodingDirection": "j",
  "PhaseEncodingSteps": 104,
  "PhaseResolution": 1,
  "PixelBandwidth": 2290,
  "ProcedureStepDescription": "video_friends",
  "ProtocolName": "func_task-friends-s06e07b",
  "PulseSequenceDetails": "%CustomerSeq%_cmrr_mbep2d_bold",
  "ReceiveCoilActiveElements": "HC1-7;NC1,2",
  "ReceiveCoilName": "HeadNeck_64",
  "ReconMatrixPE": 104,
  "RepetitionTime": 1.49,
  "SAR": 0.0430142,
  "ScanOptions": "FS",
  "ScanningSequence": "EP",
  "SequenceName": "epfid2d1_104",
  "SequenceVariant": "SK_SS",
  "SeriesDescription": "func_task-friends-s06e07b",
  "SeriesNumber": 11,
  "ShimSetting": [629, -7176, -8858, 251, -4, -258, -41, 33],
  "SliceThickness": 2,
  "SliceTiming": [0, 0.785, 0.0975, 0.8825, 0.1975, 0.98, 0.295, 1.0775, 0.3925, 1.1775, 0.49, 1.275, 0.5875, 1.3725, 0.6875, 0, 0.785, 0.0975, 0.8825, 0.1975, 0.98, 0.295, 1.0775, 0.3925, 1.1775, 0.49, 1.275, 0.5875, 1.3725, 0.6875, 0, 0.785, 0.0975, 0.8825, 0.1975, 0.98, 0.295, 1.0775, 0.3925, 1.1775, 0.49, 1.275, 0.5875, 1.3725, 0.6875, 0, 0.785, 0.0975, 0.8825, 0.1975, 0.98, 0.295, 1.0775, 0.3925, 1.1775, 0.49, 1.275, 0.5875, 1.3725, 0.6875],
  "SoftwareVersions": "syngo_MR_E11",
  "SpacingBetweenSlices": 2,
  "StationName": "MRC35049",
  "TaskName": "s06e07b",
  "TotalReadoutTime": 0.0576811,
  "TxRefAmp": 254.21,
  "WipMemBlock": "517340be-d7df-4c9a-babb-a8933c22c54f||Sequence: R016 ve11c/master r/e634e98; Dec 19 2017 11:00:25 by eja",
  "dcmmeta_affine": [
    [-1.9975301027297974, 0.09175539761781693, 0.03813605383038521, 97.82506561279297],
    [0.055553071200847626, 1.6676775217056274, -1.102617621421814, -57.84796142578125],
    [0.0823848769068718, 1.1001965999603271, 1.6681666374206543, -105.31078338623047],
    [0.0, 0.0, 0.0, 1.0]
],
  "dcmmeta_reorient_transform": [
    [0.0, -1.0, 0.0, 103.0],
    [1.0, 0.0, 0.0, 0.0],
    [0.0, 0.0, 1.0, 0.0],
    [0.0, 0.0, 0.0, 1.0]
],
  "dcmmeta_shape": [104, 104, 60, 479],
  "dcmmeta_slice_dim": 2,
  "dcmmeta_version": 0.6,
  "global": {
    "const": {
      "AcquisitionMatrix": [104, 0, 0, 104],
      "AngioFlag": "N",
      "BitsAllocated": 16,
      "BitsStored": 16,
      "BodyPartExamined": "BRAIN",
      "Columns": 832,
      "EchoNumbers": 1,
      "EchoTime": 37.0,
      "EchoTrainLength": 104,
      "FlipAngle": 52.0,
      "HighBit": 15,
      "ImageOrientationPatient": [0.99876506104032, -0.0277765353481, 0.041192437767, 0.04587769851916, 0.83383876421528, -0.5500983112776],
      "ImagePositionPatient": [-867.77580052682, -700.73612633094, 378.49294252868],
      "ImageType": [
        "ORIGINAL",
        "PRIMARY",
        "M",
        "MB",
        "ND",
        "MOSAIC"
],
      "ImagedNucleus": "1H",
      "ImagingFrequency": 123.258878,
      "InPlanePhaseEncodingDirection": "COL",
      "MRAcquisitionType": "2D",
      "MagneticFieldStrength": 3.0,
      "Manufacturer": "SIEMENS",
      "ManufacturerModelName": "Prisma_fit",
      "Modality": "MR",
      "NumberOfAverages": 1.0,
      "NumberOfPhaseEncodingSteps": 104,
      "PercentPhaseFieldOfView": 100.0,
      "PercentSampling": 100.0,
      "PerformedProcedureStepStartTime": "123220.067000",
      "PhotometricInterpretation": "MONOCHROME2",
      "PixelBandwidth": 2290.0,
      "PixelRepresentation": 0,
      "PixelSpacing": [2.0, 2.0],
      "ProtocolName": "func_task-friends-s06e07b",
      "RepetitionTime": 1490.0,
      "Rows": 832,
      "SAR": 0.04301420179883,
      "SamplesPerPixel": 1,
      "ScanOptions": "FS",
      "ScanningSequence": "EP",
      "SequenceName": "epfid2d1_104",
      "SequenceVariant": [
        "SK",
        "SS"
],
      "SeriesDescription": "func_task-friends-s06e07b",
      "SeriesNumber": 11,
      "SeriesTime": "135516.224000",
      "SliceLocation": -54.080551974571,
      "SliceThickness": 2.0,
      "SmallestImagePixelValue": 0,
      "SoftwareVersions": "syngo MR E11",
      "SpacingBetweenSlices": 1.9999999781409,
      "SpecificCharacterSet": "ISO_IR 100",
      "StudyID": "1",
      "StudyTime": "123219.949000",
      "TransmitCoilName": "Body",
      "VariableFlipAngleFlag": "N",
      "WindowCenterWidthExplanation": "Algo1",
      "dBdt": 0.0},
    "slices": {}
  },
  "time": {
    "samples": {
      "AcquisitionNumber": [1, 2, 3, 4, 5, 6, 7, 8, 9, 10, 11, 12, 13, 14, 15, 16, 17, 18, 19, 20, 21, 22, 23, 24, 25, 26, 27, 28, 29, 30, 31, 32, 33, 34, 35, 36, 37, 38, 39, 40, 41, 42, 43, 44, 45, 46, 47, 48, 49, 50, 51, 52, 53, 54, 55, 56, 57, 58, 59, 60, 61, 62, 63, 64, 65, 66, 67, 68, 69, 70, 71, 72, 73, 74, 75, 76, 77, 78, 79, 80, 81, 82, 83, 84, 85, 86, 87, 88, 89, 90, 91, 92, 93, 94, 95, 96, 97, 98, 99, 100, 101, 102, 103, 104, 105, 106, 107, 108, 109, 110, 111, 112, 113, 114, 115, 116, 117, 118, 119, 120, 121, 122, 123, 124, 125, 126, 127, 128, 129, 130, 131, 132, 133, 134, 135, 136, 137, 138, 139, 140, 141, 142, 143, 144, 145, 146, 147, 148, 149, 150, 151, 152, 153, 154, 155, 156, 157, 158, 159, 160, 161, 162, 163, 164, 165, 166, 167, 168, 169, 170, 171, 172, 173, 174, 175, 176, 177, 178, 179, 180, 181, 182, 183, 184, 185, 186, 187, 188, 189, 190, 191, 192, 193, 194, 195, 196, 197, 198, 199, 200, 201, 202, 203, 204, 205, 206, 207, 208, 209, 210, 211, 212, 213, 214, 215, 216, 217, 218, 219, 220, 221, 222, 223, 224, 225, 226, 227, 228, 229, 230, 231, 232, 233, 234, 235, 236, 237, 238, 239, 240, 241, 242, 243, 244, 245, 246, 247, 248, 249, 250, 251, 252, 253, 254, 255, 256, 257, 258, 259, 260, 261, 262, 263, 264, 265, 266, 267, 268, 269, 270, 271, 272, 273, 274, 275, 276, 277, 278, 279, 280, 281, 282, 283, 284, 285, 286, 287, 288, 289, 290, 291, 292, 293, 294, 295, 296, 297, 298, 299, 300, 301, 302, 303, 304, 305, 306, 307, 308, 309, 310, 311, 312, 313, 314, 315, 316, 317, 318, 319, 320, 321, 322, 323, 324, 325, 326, 327, 328, 329, 330, 331, 332, 333, 334, 335, 336, 337, 338, 339, 340, 341, 342, 343, 344, 345, 346, 347, 348, 349, 350, 351, 352, 353, 354, 355, 356, 357, 358, 359, 360, 361, 362, 363, 364, 365, 366, 367, 368, 369, 370, 371, 372, 373, 374, 375, 376, 377, 378, 379, 380, 381, 382, 383, 384, 385, 386, 387, 388, 389, 390, 391, 392, 393, 394, 395, 396, 397, 398, 399, 400, 401, 402, 403, 404, 405, 406, 407, 408, 409, 410, 411, 412, 413, 414, 415, 416, 417, 418, 419, 420, 421, 422, 423, 424, 425, 426, 427, 428, 429, 430, 431, 432, 433, 434, 435, 436, 437, 438, 439, 440, 441, 442, 443, 444, 445, 446, 447, 448, 449, 450, 451, 452, 453, 454, 455, 456, 457, 458, 459, 460, 461, 462, 463, 464, 465, 466, 467, 468, 469, 470, 471, 472, 473, 474, 475, 476, 477, 478, 479],
      "AcquisitionTime": ["135350.825000", "135352.315000", "135353.805000", "135355.295000", "135356.785000", "135358.275000", "135359.765000", "135401.255000", "135402.745000", "135404.235000", "135405.725000", "135407.215000", "135408.705000", "135410.195000", "135411.685000", "135413.175000", "135414.665000", "135416.155000", "135417.645000", "135419.135000", "135420.625000", "135422.115000", "135423.605000", "135425.095000", "135426.585000", "135428.075000", "135429.565000", "135431.055000", "135432.545000", "135434.035000", "135435.525000", "135437.015000", "135438.505000", "135439.995000", "135441.485000", "135442.975000", "135444.465000", "135445.955000", "135447.445000", "135448.935000", "135450.425000", "135451.915000", "135453.405000", "135454.895000", "135456.385000", "135457.875000", "135459.365000", "135500.855000", "135502.345000", "135503.835000", "135505.325000", "135506.815000", "135508.305000", "135509.795000", "135511.285000", "135512.775000", "135514.265000", "135515.755000", "135517.245000", "135518.735000", "135520.225000", "135521.715000", "135523.205000", "135524.695000", "135526.185000", "135527.675000", "135529.165000", "135530.655000", "135532.145000", "135533.635000", "135535.125000", "135536.615000", "135538.105000", "135539.595000", "135541.085000", "135542.575000", "135544.065000", "135545.555000", "135547.045000", "135548.535000", "135550.025000", "135551.515000", "135553.005000", "135554.495000", "135555.985000", "135557.475000", "135558.965000", "135600.455000", "135601.945000", "135603.435000", "135604.925000", "135606.415000", "135607.905000", "135609.395000", "135610.885000", "135612.375000", "135613.865000", "135615.355000", "135616.845000", "135618.335000", "135619.825000", "135621.315000", "135622.805000", "135624.295000", "135625.785000", "135627.275000", "135628.765000", "135630.255000", "135631.745000", "135633.235000", "135634.725000", "135636.215000", "135637.705000", "135639.195000", "135640.685000", "135642.175000", "135643.665000", "135645.155000", "135646.645000", "135648.135000", "135649.625000", "135651.115000", "135652.605000", "135654.095000", "135655.585000", "135657.075000", "135658.565000", "135700.055000", "135701.545000", "135703.035000", "135704.525000", "135706.015000", "135707.505000", "135708.995000", "135710.485000", "135711.975000", "135713.465000", "135714.955000", "135716.445000", "135717.935000", "135719.425000", "135720.915000", "135722.405000", "135723.895000", "135725.385000", "135726.875000", "135728.365000", "135729.855000", "135731.345000", "135732.835000", "135734.325000", "135735.815000", "135737.305000", "135738.795000", "135740.285000", "135741.775000", "135743.265000", "135744.755000", "135746.245000", "135747.735000", "135749.225000", "135750.715000", "135752.205000", "135753.695000", "135755.185000", "135756.675000", "135758.165000", "135759.655000", "135801.145000", "135802.635000", "135804.125000", "135805.615000", "135807.105000", "135808.595000", "135810.085000", "135811.575000", "135813.065000", "135814.555000", "135816.045000", "135817.535000", "135819.025000", "135820.515000", "135822.005000", "135823.495000", "135824.985000", "135826.475000", "135827.965000", "135829.455000", "135830.945000", "135832.435000", "135833.925000", "135835.415000", "135836.905000", "135838.395000", "135839.885000", "135841.375000", "135842.865000", "135844.355000", "135845.845000", "135847.335000", "135848.825000", "135850.315000", "135851.805000", "135853.295000", "135854.785000", "135856.275000", "135857.765000", "135859.255000", "135900.745000", "135902.235000", "135903.725000", "135905.215000", "135906.705000", "135908.195000", "135909.685000", "135911.175000", "135912.665000", "135914.155000", "135915.645000", "135917.135000", "135918.625000", "135920.115000", "135921.605000", "135923.095000", "135924.585000", "135926.075000", "135927.565000", "135929.055000", "135930.545000", "135932.035000", "135933.525000", "135935.015000", "135936.505000", "135937.995000", "135939.485000", "135940.975000", "135942.465000", "135943.955000", "135945.445000", "135946.935000", "135948.425000", "135949.915000", "135951.405000", "135952.895000", "135954.385000", "135955.875000", "135957.365000", "135958.855000", "140000.345000", "140001.835000", "140003.325000", "140004.815000", "140006.305000", "140007.795000", "140009.285000", "140010.775000", "140012.265000", "140013.755000", "140015.245000", "140016.735000", "140018.225000", "140019.715000", "140021.205000", "140022.695000", "140024.185000", "140025.675000", "140027.165000", "140028.655000", "140030.145000", "140031.635000", "140033.125000", "140034.615000", "140036.105000", "140037.595000", "140039.085000", "140040.575000", "140042.065000", "140043.555000", "140045.045000", "140046.535000", "140048.025000", "140049.515000", "140051.005000", "140052.495000", "140053.985000", "140055.475000", "140056.965000", "140058.455000", "140059.945000", "140101.435000", "140102.925000", "140104.415000", "140105.905000", "140107.395000", "140108.885000", "140110.375000", "140111.865000", "140113.355000", "140114.845000", "140116.335000", "140117.825000", "140119.315000", "140120.805000", "140122.295000", "140123.785000", "140125.275000", "140126.765000", "140128.255000", "140129.745000", "140131.235000", "140132.725000", "140134.215000", "140135.705000", "140137.195000", "140138.685000", "140140.175000", "140141.665000", "140143.155000", "140144.645000", "140146.135000", "140147.625000", "140149.115000", "140150.605000", "140152.095000", "140153.585000", "140155.075000", "140156.565000", "140158.055000", "140159.545000", "140201.035000", "140202.525000", "140204.015000", "140205.505000", "140206.995000", "140208.485000", "140209.975000", "140211.465000", "140212.955000", "140214.445000", "140215.935000", "140217.425000", "140218.915000", "140220.405000", "140221.895000", "140223.385000", "140224.875000", "140226.365000", "140227.855000", "140229.345000", "140230.835000", "140232.325000", "140233.815000", "140235.305000", "140236.795000", "140238.285000", "140239.775000", "140241.265000", "140242.755000", "140244.245000", "140245.735000", "140247.225000", "140248.715000", "140250.205000", "140251.695000", "140253.185000", "140254.675000", "140256.165000", "140257.655000", "140259.145000", "140300.635000", "140302.125000", "140303.615000", "140305.105000", "140306.595000", "140308.085000", "140309.575000", "140311.065000", "140312.555000", "140314.045000", "140315.535000", "140317.025000", "140318.515000", "140320.005000", "140321.495000", "140322.985000", "140324.475000", "140325.965000", "140327.455000", "140328.945000", "140330.435000", "140331.925000", "140333.415000", "140334.905000", "140336.395000", "140337.885000", "140339.375000", "140340.865000", "140342.355000", "140343.845000", "140345.335000", "140346.825000", "140348.315000", "140349.805000", "140351.295000", "140352.785000", "140354.275000", "140355.765000", "140357.255000", "140358.745000", "140400.235000", "140401.725000", "140403.215000", "140404.705000", "140406.195000", "140407.685000", "140409.175000", "140410.665000", "140412.155000", "140413.645000", "140415.135000", "140416.625000", "140418.115000", "140419.605000", "140421.095000", "140422.585000", "140424.075000", "140425.565000", "140427.055000", "140428.545000", "140430.035000", "140431.525000", "140433.015000", "140434.505000", "140435.995000", "140437.485000", "140438.975000", "140440.465000", "140441.955000", "140443.445000", "140444.935000", "140446.425000", "140447.915000", "140449.405000", "140450.895000", "140452.385000", "140453.875000", "140455.365000", "140456.855000", "140458.345000", "140459.835000", "140501.325000", "140502.815000", "140504.305000", "140505.795000", "140507.285000", "140508.775000", "140510.265000", "140511.755000", "140513.245000", "140514.735000", "140516.225000", "140517.715000", "140519.205000", "140520.695000", "140522.185000", "140523.675000", "140525.165000", "140526.655000", "140528.145000", "140529.635000", "140531.125000", "140532.615000", "140534.105000", "140535.595000", "140537.085000", "140538.575000", "140540.065000", "140541.555000", "140543.045000"],
      "ContentTime": ["135516.227000", "135516.230000", "135516.233000", "135516.236000", "135516.239000", "135516.242000", "135516.245000", "135516.248000", "135516.251000", "135516.255000", "135516.258000", "135516.261000", "135516.284000", "135516.287000", "135516.290000", "135516.296000", "135516.299000", "135516.302000", "135516.305000", "135516.307000", "135516.310000", "135516.313000", "135516.316000", "135516.319000", "135516.322000", "135516.325000", "135516.328000", "135516.331000", "135516.334000", "135516.337000", "135516.340000", "135516.343000", "135536.175000", "135536.178000", "135536.181000", "135536.184000", "135536.187000", "135536.190000", "135536.193000", "135536.196000", "135536.199000", "135536.201000", "135536.204000", "135536.207000", "135536.210000", "135536.213000", "135536.216000", "135536.219000", "135536.222000", "135536.225000", "135536.228000", "135536.231000", "135556.175000", "135556.178000", "135556.181000", "135556.184000", "135556.187000", "135556.190000", "135556.193000", "135556.195000", "135556.198000", "135556.201000", "135556.204000", "135556.207000", "135556.210000", "135556.213000", "135556.216000", "135556.219000", "135556.230000", "135556.233000", "135556.236000", "135556.239000", "135556.241000", "135616.175000", "135616.178000", "135616.182000", "135616.185000", "135616.192000", "135616.195000", "135616.198000", "135616.201000", "135616.204000", "135616.207000", "135616.210000", "135616.213000", "135616.216000", "135616.219000", "135616.222000", "135616.225000", "135616.228000", "135616.231000", "135616.234000", "135616.237000", "135636.175000", "135636.178000", "135636.181000", "135636.184000", "135636.187000", "135636.190000", "135636.193000", "135636.196000", "135636.199000", "135636.210000", "135636.213000", "135636.216000", "135636.219000", "135636.222000", "135636.226000", "135636.229000", "135636.232000", "135716.174000", "135716.177000", "135716.180000", "135716.183000", "135716.186000", "135716.189000", "135716.192000", "135716.195000", "135716.198000", "135716.201000", "135716.205000", "135716.216000", "135716.219000", "135716.222000", "135716.225000", "135716.228000", "135716.231000", "135716.234000", "135716.237000", "135716.240000", "135716.243000", "135716.246000", "135716.249000", "135716.252000", "135716.255000", "135716.258000", "135716.261000", "135756.175000", "135756.178000", "135756.181000", "135756.184000", "135756.187000", "135756.190000", "135756.193000", "135756.196000", "135756.199000", "135756.202000", "135756.205000", "135756.208000", "135756.211000", "135756.214000", "135756.217000", "135756.220000", "135756.223000", "135756.226000", "135756.229000", "135756.232000", "135756.235000", "135756.238000", "135756.240000", "135756.244000", "135756.246000", "135756.249000", "135756.252000", "135836.175000", "135836.178000", "135836.181000", "135836.184000", "135836.187000", "135836.190000", "135836.193000", "135836.196000", "135836.199000", "135836.202000", "135836.205000", "135836.208000", "135836.211000", "135836.214000", "135836.217000", "135836.220000", "135836.223000", "135836.226000", "135836.229000", "135836.232000", "135836.235000", "135836.238000", "135836.243000", "135836.246000", "135836.249000", "135836.252000", "135836.255000", "135916.174000", "135916.177000", "135916.180000", "135916.183000", "135916.186000", "135916.189000", "135916.192000", "135916.195000", "135916.198000", "135916.201000", "135916.204000", "135916.207000", "135916.210000", "135916.214000", "135916.217000", "135916.220000", "135916.223000", "135916.226000", "135916.229000", "135916.232000", "135916.235000", "135916.238000", "135916.259000", "135916.262000", "135916.265000", "135916.268000", "135956.175000", "135956.178000", "135956.181000", "135956.184000", "135956.187000", "135956.190000", "135956.193000", "135956.196000", "135956.199000", "135956.202000", "135956.205000", "135956.208000", "135956.211000", "135956.214000", "135956.217000", "135956.220000", "135956.223000", "135956.226000", "135956.229000", "135956.232000", "135956.235000", "135956.238000", "135956.241000", "135956.244000", "135956.247000", "135956.250000", "135956.253000", "140036.175000", "140036.178000", "140036.181000", "140036.184000", "140036.187000", "140036.190000", "140036.193000", "140036.196000", "140036.199000", "140036.202000", "140036.205000", "140036.208000", "140036.211000", "140036.214000", "140036.217000", "140036.220000", "140036.230000", "140036.233000", "140036.236000", "140036.239000", "140036.241000", "140036.244000", "140036.248000", "140036.251000", "140036.254000", "140036.256000", "140036.259000", "140116.175000", "140116.178000", "140116.181000", "140116.184000", "140116.187000", "140116.190000", "140116.193000", "140116.196000", "140116.199000", "140116.202000", "140116.205000", "140116.208000", "140116.211000", "140116.214000", "140116.217000", "140116.220000", "140116.223000", "140116.226000", "140116.229000", "140116.232000", "140116.235000", "140116.238000", "140116.241000", "140116.244000", "140116.247000", "140116.250000", "140116.253000", "140156.175000", "140156.178000", "140156.181000", "140156.184000", "140156.204000", "140156.207000", "140156.210000", "140156.213000", "140156.216000", "140156.219000", "140156.222000", "140156.225000", "140156.228000", "140156.231000", "140156.234000", "140156.237000", "140156.240000", "140156.243000", "140156.245000", "140156.248000", "140156.252000", "140156.254000", "140156.257000", "140156.260000", "140156.264000", "140156.266000", "140156.269000", "140236.175000", "140236.178000", "140236.181000", "140236.184000", "140236.187000", "140236.190000", "140236.193000", "140236.196000", "140236.199000", "140236.202000", "140236.205000", "140236.208000", "140236.211000", "140236.214000", "140236.217000", "140236.220000", "140236.223000", "140236.226000", "140236.229000", "140236.232000", "140236.235000", "140236.238000", "140236.241000", "140236.244000", "140236.247000", "140236.250000", "140236.253000", "140316.175000", "140316.178000", "140316.181000", "140316.184000", "140316.187000", "140316.190000", "140316.193000", "140316.196000", "140316.199000", "140316.202000", "140316.205000", "140316.208000", "140316.211000", "140316.214000", "140316.216000", "140316.220000", "140316.222000", "140316.225000", "140316.229000", "140316.232000", "140316.234000", "140316.237000", "140316.241000", "140316.244000", "140316.246000", "140316.249000", "140316.253000", "140356.174000", "140356.177000", "140356.180000", "140356.183000", "140356.186000", "140356.189000", "140356.192000", "140356.195000", "140356.198000", "140356.202000", "140356.205000", "140356.208000", "140356.211000", "140356.214000", "140356.217000", "140356.220000", "140356.223000", "140356.226000", "140356.229000", "140356.232000", "140356.235000", "140356.238000", "140356.241000", "140356.253000", "140356.257000", "140356.260000", "140436.175000", "140436.178000", "140436.181000", "140436.184000", "140436.187000", "140436.190000", "140436.193000", "140436.196000", "140436.199000", "140436.202000", "140436.205000", "140436.208000", "140436.211000", "140436.214000", "140436.217000", "140436.220000", "140436.223000", "140436.226000", "140436.229000", "140436.232000", "140436.235000", "140436.238000", "140436.240000", "140436.244000", "140436.247000", "140436.250000", "140436.252000", "140516.175000", "140516.178000", "140516.181000", "140516.184000", "140516.187000", "140516.190000", "140516.193000", "140516.196000", "140516.199000", "140516.202000", "140516.205000", "140516.208000", "140516.211000", "140516.214000", "140516.217000", "140516.220000", "140516.223000", "140516.226000", "140516.229000", "140516.232000", "140516.235000", "140516.238000", "140516.241000", "140516.244000", "140516.247000", "140516.250000", "140516.253000", "140545.165000", "140545.168000", "140545.171000", "140545.174000", "140545.177000", "140545.180000", "140545.183000", "140545.186000", "140545.189000", "140545.192000", "140545.195000", "140545.198000", "140545.207000", "140545.210000", "140545.213000", "140545.216000", "140545.219000", "140545.222000", "140545.225000", "140545.228000"],
