{
  "AcquisitionMatrixPE": 104,
  "AcquisitionNumber": 1,
  "AcquisitionTime": "13:47:27.455000",
  "BandwidthPerPixelPhaseEncode": 17.17,
  "BaseResolution": 104,
  "BodyPartExamined": "BRAIN",
  "CoilString": "HC1-7;NC1_2",
  "ConsistencyInfo": "N4_VE11C_LATEST_20160120",
  "ConversionSoftware": "dcm2niix",
  "ConversionSoftwareVersion": "v1.0.20190720  (JP2:OpenJPEG) GCC7.3.0",
  "DerivedVendorReportedEchoSpacing": 0.000560011,
  "DeviceSerialNumber": "167006",
  "DwellTime": 2.1e-06,
  "EchoTime": 0.037,
  "EchoTrainLength": 104,
  "EffectiveEchoSpacing": 0.000560011,
  "FlipAngle": 52,
  "ImageComments": "Unaliased_MB4_PE3_LB",
  "ImageOrientationPatientDICOM": [0.9998, -0.00128968, 0.0199564, 0.0115174, 0.852933, -0.521893],
  "ImageType": [
    "ORIGINAL",
    "PRIMARY",
    "M",
    "MB",
    "ND",
    "MOSAIC"
],
  "ImagingFrequency": 123.259,
  "InPlanePhaseEncodingDirectionDICOM": "COL",
  "InstitutionAddress": "Chemin_Queen-Mary_4565_Montreal_District_CA_H3W_1W5",
  "InstitutionName": "IUGM",
  "InstitutionalDepartmentName": "Department",
  "MRAcquisitionType": "2D",
  "MagneticFieldStrength": 3,
  "Manufacturer": "Siemens",
  "ManufacturersModelName": "Prisma_fit",
  "Modality": "MR",
  "MultibandAccelerationFactor": 4,
  "PartialFourier": 1,
  "PatientPosition": "HFS",
  "PercentPhaseFOV": 100,
  "PhaseEncodingDirection": "j",
  "PhaseEncodingSteps": 104,
  "PhaseResolution": 1,
  "PixelBandwidth": 2290,
  "ProcedureStepDescription": "video_friends",
  "ProtocolName": "func_task-s01e20a",
  "PulseSequenceDetails": "%CustomerSeq%_cmrr_mbep2d_bold",
  "ReceiveCoilActiveElements": "HC1-7;NC1,2",
  "ReceiveCoilName": "HeadNeck_64",
  "ReconMatrixPE": 104,
  "RepetitionTime": 1.49,
  "SAR": 0.0371791,
  "ScanOptions": "FS",
  "ScanningSequence": "EP",
  "SequenceName": "epfid2d1_104",
  "SequenceVariant": "SK_SS",
  "SeriesDescription": "func_task-s01e20a",
  "SeriesNumber": 13,
  "ShimSetting": [630, -7196, -8888, 398, -31, -245, 42, -22],
  "SliceThickness": 2,
  "SliceTiming": [0, 0.7825, 0.0975, 0.88, 0.195, 0.98, 0.2925, 1.0775, 0.3925, 1.175, 0.49, 1.2725, 0.5875, 1.37, 0.685, 0, 0.7825, 0.0975, 0.88, 0.195, 0.98, 0.2925, 1.0775, 0.3925, 1.175, 0.49, 1.2725, 0.5875, 1.37, 0.685, 0, 0.7825, 0.0975, 0.88, 0.195, 0.98, 0.2925, 1.0775, 0.3925, 1.175, 0.49, 1.2725, 0.5875, 1.37, 0.685, 0, 0.7825, 0.0975, 0.88, 0.195, 0.98, 0.2925, 1.0775, 0.3925, 1.175, 0.49, 1.2725, 0.5875, 1.37, 0.685],
  "SoftwareVersions": "syngo_MR_E11",
  "SpacingBetweenSlices": 2,
  "StationName": "MRC35049",
  "TaskName": "friends",
  "TotalReadoutTime": 0.0576811,
  "TxRefAmp": 250.713,
  "WipMemBlock": "e07cbd94-2ba5-4bae-bc51-92fa15ecb76e||Sequence: R016 ve11c/master r/e634e98; Dec 19 2017 11:00:25 by eja",
  "dcmmeta_affine": [
    [-1.9996000528335571, 0.023034803569316864, 0.032696738839149475, 101.20956420898438],
    [0.0025793639943003654, 1.7058664560317993, -1.044036865234375, -58.4562873840332],
    [0.03991272673010826, 1.0437859296798706, 1.7055549621582031, -109.41149139404297],
    [0.0, 0.0, 0.0, 1.0]
],
  "dcmmeta_reorient_transform": [
    [0.0, -1.0, 0.0, 103.0],
    [1.0, 0.0, 0.0, 0.0],
    [0.0, 0.0, 1.0, 0.0],
    [0.0, 0.0, 0.0, 1.0]
],
  "dcmmeta_shape": [104, 104, 60, 460],
  "dcmmeta_slice_dim": 2,
  "dcmmeta_version": 0.6,
  "global": {
    "const": {
      "AcquisitionMatrix": [104, 0, 0, 104],
      "AngioFlag": "N",
      "BitsAllocated": 16,
      "BitsStored": 16,
      "BodyPartExamined": "BRAIN",
      "Columns": 832,
      "EchoNumbers": 1,
      "EchoTime": 37.0,
      "EchoTrainLength": 104,
      "FlipAngle": 52.0,
      "HighBit": 15,
      "ImageOrientationPatient": [0.99980002012916, -0.0012896819415, 0.01995636415317, 0.01151740161537, 0.85293323129658, -0.521892951102],
      "ImagePositionPatient": [-839.8212329072, -737.24446362677, 363.50828929166],
      "ImageType": [
        "ORIGINAL",
        "PRIMARY",
        "M",
        "MB",
        "ND",
        "MOSAIC"
],
      "ImagedNucleus": "1H",
      "ImagingFrequency": 123.259484,
      "InPlanePhaseEncodingDirection": "COL",
      "MRAcquisitionType": "2D",
      "MagneticFieldStrength": 3.0,
      "Manufacturer": "SIEMENS",
      "ManufacturerModelName": "Prisma_fit",
      "Modality": "MR",
      "NumberOfAverages": 1.0,
      "NumberOfPhaseEncodingSteps": 104,
      "PercentPhaseFieldOfView": 100.0,
      "PercentSampling": 100.0,
      "PerformedProcedureStepStartTime": "125351.192000",
      "PhotometricInterpretation": "MONOCHROME2",
      "PixelBandwidth": 2290.0,
      "PixelRepresentation": 0,
      "PixelSpacing": [2.0, 2.0],
      "ProtocolName": "func_task-s01e20a",
      "RepetitionTime": 1490.0,
      "Rows": 832,
      "SAR": 0.03717908732539,
      "SamplesPerPixel": 1,
      "ScanOptions": "FS",
      "ScanningSequence": "EP",
      "SequenceName": "epfid2d1_104",
      "SequenceVariant": [
        "SK",
        "SS"
],
      "SeriesDescription": "func_task-s01e20a",
      "SeriesNumber": 13,
      "SeriesTime": "134856.461000",
      "SliceLocation": -61.133792005404,
      "SliceThickness": 2.0,
      "SmallestImagePixelValue": 0,
      "SoftwareVersions": "syngo MR E11",
      "SpacingBetweenSlices": 1.9999999837419,
      "SpecificCharacterSet": "ISO_IR 100",
      "StudyID": "1",
      "StudyTime": "125351.107000",
      "TransmitCoilName": "Body",
      "VariableFlipAngleFlag": "N",
      "WindowCenterWidthExplanation": "Algo1",
      "dBdt": 0.0},
    "slices": {}
  },
  "time": {
    "samples": {
      "AcquisitionNumber": [1, 2, 3, 4, 5, 6, 7, 8, 9, 10, 11, 12, 13, 14, 15, 16, 17, 18, 19, 20, 21, 22, 23, 24, 25, 26, 27, 28, 29, 30, 31, 32, 33, 34, 35, 36, 37, 38, 39, 40, 41, 42, 43, 44, 45, 46, 47, 48, 49, 50, 51, 52, 53, 54, 55, 56, 57, 58, 59, 60, 61, 62, 63, 64, 65, 66, 67, 68, 69, 70, 71, 72, 73, 74, 75, 76, 77, 78, 79, 80, 81, 82, 83, 84, 85, 86, 87, 88, 89, 90, 91, 92, 93, 94, 95, 96, 97, 98, 99, 100, 101, 102, 103, 104, 105, 106, 107, 108, 109, 110, 111, 112, 113, 114, 115, 116, 117, 118, 119, 120, 121, 122, 123, 124, 125, 126, 127, 128, 129, 130, 131, 132, 133, 134, 135, 136, 137, 138, 139, 140, 141, 142, 143, 144, 145, 146, 147, 148, 149, 150, 151, 152, 153, 154, 155, 156, 157, 158, 159, 160, 161, 162, 163, 164, 165, 166, 167, 168, 169, 170, 171, 172, 173, 174, 175, 176, 177, 178, 179, 180, 181, 182, 183, 184, 185, 186, 187, 188, 189, 190, 191, 192, 193, 194, 195, 196, 197, 198, 199, 200, 201, 202, 203, 204, 205, 206, 207, 208, 209, 210, 211, 212, 213, 214, 215, 216, 217, 218, 219, 220, 221, 222, 223, 224, 225, 226, 227, 228, 229, 230, 231, 232, 233, 234, 235, 236, 237, 238, 239, 240, 241, 242, 243, 244, 245, 246, 247, 248, 249, 250, 251, 252, 253, 254, 255, 256, 257, 258, 259, 260, 261, 262, 263, 264, 265, 266, 267, 268, 269, 270, 271, 272, 273, 274, 275, 276, 277, 278, 279, 280, 281, 282, 283, 284, 285, 286, 287, 288, 289, 290, 291, 292, 293, 294, 295, 296, 297, 298, 299, 300, 301, 302, 303, 304, 305, 306, 307, 308, 309, 310, 311, 312, 313, 314, 315, 316, 317, 318, 319, 320, 321, 322, 323, 324, 325, 326, 327, 328, 329, 330, 331, 332, 333, 334, 335, 336, 337, 338, 339, 340, 341, 342, 343, 344, 345, 346, 347, 348, 349, 350, 351, 352, 353, 354, 355, 356, 357, 358, 359, 360, 361, 362, 363, 364, 365, 366, 367, 368, 369, 370, 371, 372, 373, 374, 375, 376, 377, 378, 379, 380, 381, 382, 383, 384, 385, 386, 387, 388, 389, 390, 391, 392, 393, 394, 395, 396, 397, 398, 399, 400, 401, 402, 403, 404, 405, 406, 407, 408, 409, 410, 411, 412, 413, 414, 415, 416, 417, 418, 419, 420, 421, 422, 423, 424, 425, 426, 427, 428, 429, 430, 431, 432, 433, 434, 435, 436, 437, 438, 439, 440, 441, 442, 443, 444, 445, 446, 447, 448, 449, 450, 451, 452, 453, 454, 455, 456, 457, 458, 459, 460],
      "AcquisitionTime": ["134727.455000", "134728.945000", "134730.435000", "134731.925000", "134733.415000", "134734.905000", "134736.395000", "134737.885000", "134739.375000", "134740.865000", "134742.355000", "134743.845000", "134745.335000", "134746.825000", "134748.315000", "134749.805000", "134751.295000", "134752.785000", "134754.275000", "134755.765000", "134757.255000", "134758.745000", "134800.235000", "134801.725000", "134803.215000", "134804.705000", "134806.195000", "134807.685000", "134809.175000", "134810.665000", "134812.155000", "134813.645000", "134815.135000", "134816.625000", "134818.115000", "134819.605000", "134821.095000", "134822.585000", "134824.075000", "134825.565000", "134827.055000", "134828.545000", "134830.035000", "134831.525000", "134833.015000", "134834.505000", "134835.995000", "134837.485000", "134838.975000", "134840.465000", "134841.955000", "134843.445000", "134844.935000", "134846.425000", "134847.915000", "134849.405000", "134850.895000", "134852.385000", "134853.875000", "134855.365000", "134856.855000", "134858.345000", "134859.835000", "134901.325000", "134902.815000", "134904.305000", "134905.795000", "134907.285000", "134908.775000", "134910.265000", "134911.755000", "134913.245000", "134914.735000", "134916.225000", "134917.715000", "134919.205000", "134920.695000", "134922.185000", "134923.675000", "134925.165000", "134926.655000", "134928.145000", "134929.635000", "134931.125000", "134932.615000", "134934.105000", "134935.595000", "134937.085000", "134938.575000", "134940.065000", "134941.555000", "134943.045000", "134944.535000", "134946.025000", "134947.515000", "134949.005000", "134950.495000", "134951.985000", "134953.475000", "134954.965000", "134956.455000", "134957.945000", "134959.435000", "135000.925000", "135002.415000", "135003.905000", "135005.395000", "135006.885000", "135008.375000", "135009.865000", "135011.355000", "135012.845000", "135014.335000", "135015.825000", "135017.315000", "135018.805000", "135020.295000", "135021.785000", "135023.275000", "135024.765000", "135026.255000", "135027.745000", "135029.235000", "135030.725000", "135032.215000", "135033.705000", "135035.195000", "135036.685000", "135038.175000", "135039.665000", "135041.155000", "135042.645000", "135044.135000", "135045.625000", "135047.115000", "135048.605000", "135050.095000", "135051.585000", "135053.075000", "135054.565000", "135056.055000", "135057.545000", "135059.035000", "135100.525000", "135102.015000", "135103.505000", "135104.995000", "135106.485000", "135107.975000", "135109.465000", "135110.955000", "135112.445000", "135113.935000", "135115.425000", "135116.915000", "135118.405000", "135119.895000", "135121.385000", "135122.875000", "135124.365000", "135125.855000", "135127.345000", "135128.835000", "135130.325000", "135131.815000", "135133.305000", "135134.795000", "135136.285000", "135137.775000", "135139.265000", "135140.755000", "135142.245000", "135143.735000", "135145.225000", "135146.715000", "135148.205000", "135149.695000", "135151.185000", "135152.675000", "135154.165000", "135155.655000", "135157.145000", "135158.635000", "135200.125000", "135201.615000", "135203.105000", "135204.595000", "135206.085000", "135207.575000", "135209.065000", "135210.555000", "135212.045000", "135213.535000", "135215.025000", "135216.515000", "135218.005000", "135219.495000", "135220.985000", "135222.475000", "135223.965000", "135225.455000", "135226.945000", "135228.435000", "135229.925000", "135231.415000", "135232.905000", "135234.395000", "135235.885000", "135237.375000", "135238.865000", "135240.355000", "135241.845000", "135243.335000", "135244.825000", "135246.315000", "135247.805000", "135249.295000", "135250.785000", "135252.275000", "135253.765000", "135255.255000", "135256.745000", "135258.235000", "135259.725000", "135301.215000", "135302.705000", "135304.195000", "135305.685000", "135307.175000", "135308.665000", "135310.155000", "135311.645000", "135313.135000", "135314.625000", "135316.115000", "135317.605000", "135319.095000", "135320.585000", "135322.075000", "135323.565000", "135325.055000", "135326.545000", "135328.035000", "135329.525000", "135331.015000", "135332.505000", "135333.995000", "135335.485000", "135336.975000", "135338.465000", "135339.955000", "135341.445000", "135342.935000", "135344.425000", "135345.915000", "135347.405000", "135348.895000", "135350.385000", "135351.875000", "135353.365000", "135354.855000", "135356.345000", "135357.835000", "135359.325000", "135400.815000", "135402.305000", "135403.795000", "135405.285000", "135406.775000", "135408.265000", "135409.755000", "135411.245000", "135412.735000", "135414.225000", "135415.715000", "135417.205000", "135418.695000", "135420.185000", "135421.675000", "135423.165000", "135424.655000", "135426.145000", "135427.635000", "135429.125000", "135430.615000", "135432.105000", "135433.595000", "135435.085000", "135436.575000", "135438.065000", "135439.555000", "135441.045000", "135442.535000", "135444.025000", "135445.515000", "135447.005000", "135448.495000", "135449.985000", "135451.475000", "135452.965000", "135454.455000", "135455.945000", "135457.435000", "135458.925000", "135500.415000", "135501.905000", "135503.395000", "135504.885000", "135506.375000", "135507.865000", "135509.355000", "135510.845000", "135512.335000", "135513.825000", "135515.315000", "135516.805000", "135518.295000", "135519.785000", "135521.275000", "135522.765000", "135524.255000", "135525.745000", "135527.235000", "135528.725000", "135530.215000", "135531.705000", "135533.195000", "135534.685000", "135536.175000", "135537.665000", "135539.155000", "135540.645000", "135542.135000", "135543.625000", "135545.115000", "135546.605000", "135548.095000", "135549.585000", "135551.075000", "135552.565000", "135554.055000", "135555.545000", "135557.035000", "135558.525000", "135600.015000", "135601.505000", "135602.995000", "135604.485000", "135605.975000", "135607.465000", "135608.955000", "135610.445000", "135611.935000", "135613.425000", "135614.915000", "135616.405000", "135617.895000", "135619.385000", "135620.875000", "135622.365000", "135623.855000", "135625.345000", "135626.835000", "135628.325000", "135629.815000", "135631.305000", "135632.795000", "135634.285000", "135635.775000", "135637.265000", "135638.755000", "135640.245000", "135641.735000", "135643.225000", "135644.715000", "135646.205000", "135647.695000", "135649.185000", "135650.675000", "135652.165000", "135653.655000", "135655.145000", "135656.635000", "135658.125000", "135659.615000", "135701.105000", "135702.595000", "135704.085000", "135705.575000", "135707.065000", "135708.555000", "135710.045000", "135711.535000", "135713.025000", "135714.515000", "135716.005000", "135717.495000", "135718.985000", "135720.475000", "135721.965000", "135723.455000", "135724.945000", "135726.435000", "135727.925000", "135729.415000", "135730.905000", "135732.395000", "135733.885000", "135735.375000", "135736.865000", "135738.355000", "135739.845000", "135741.335000", "135742.825000", "135744.315000", "135745.805000", "135747.295000", "135748.785000", "135750.275000", "135751.765000", "135753.255000", "135754.745000", "135756.235000", "135757.725000", "135759.215000", "135800.705000", "135802.195000", "135803.685000", "135805.175000", "135806.665000", "135808.155000", "135809.645000", "135811.135000", "135812.625000", "135814.115000", "135815.605000", "135817.095000", "135818.585000", "135820.075000", "135821.565000", "135823.055000", "135824.545000", "135826.035000", "135827.525000", "135829.015000", "135830.505000", "135831.995000", "135833.485000", "135834.975000", "135836.465000", "135837.955000", "135839.445000", "135840.935000", "135842.425000", "135843.915000", "135845.405000", "135846.895000", "135848.385000", "135849.875000", "135851.365000"],
      "ContentTime": ["134856.464000", "134856.467000", "134856.470000", "134856.473000", "134856.476000", "134856.479000", "134856.482000", "134856.485000", "134856.487000", "134856.490000", "134856.493000", "134856.496000", "134856.499000", "134856.502000", "134856.505000", "134856.508000", "134856.511000", "134856.514000", "134856.516000", "134856.519000", "134856.522000", "134856.532000", "134856.535000", "134856.538000", "134856.541000", "134856.543000", "134856.546000", "134856.549000", "134856.552000", "134856.555000", "134856.558000", "134856.561000", "134856.564000", "134916.434000", "134916.437000", "134916.440000", "134916.443000", "134916.446000", "134916.449000", "134916.452000", "134916.454000", "134916.457000", "134916.460000", "134916.463000", "134916.466000", "134916.469000", "134916.472000", "134916.475000", "134916.477000", "134916.480000", "134916.483000", "134916.486000", "134916.489000", "134936.434000", "134936.437000", "134936.440000", "134936.443000", "134936.446000", "134936.448000", "134936.451000", "134936.454000", "134936.457000", "134936.460000", "134936.463000", "134936.466000", "134936.469000", "134936.472000", "134936.475000", "134936.478000", "134936.480000", "134936.483000", "134936.486000", "134936.489000", "134936.492000", "134956.434000", "134956.445000", "134956.448000", "134956.450000", "134956.453000", "134956.456000", "134956.459000", "134956.462000", "134956.465000", "134956.468000", "134956.471000", "134956.474000", "134956.476000", "134956.479000", "134956.482000", "134956.485000", "134956.488000", "134956.491000", "134956.494000", "134956.497000", "135036.434000", "135036.437000", "135036.440000", "135036.443000", "135036.446000", "135036.449000", "135036.452000", "135036.455000", "135036.457000", "135036.460000", "135036.463000", "135036.466000", "135036.469000", "135036.472000", "135036.475000", "135036.478000", "135036.481000", "135036.484000", "135036.487000", "135036.490000", "135036.493000", "135036.496000", "135036.499000", "135036.502000", "135036.504000", "135036.507000", "135036.510000", "135036.513000", "135036.516000", "135036.519000", "135036.522000", "135036.525000", "135116.434000", "135116.437000", "135116.440000", "135116.442000", "135116.446000", "135116.448000", "135116.451000", "135116.479000", "135116.498000", "135116.500000", "135116.503000", "135116.506000", "135116.509000", "135116.512000", "135116.515000", "135116.518000", "135116.521000", "135116.524000", "135116.527000", "135116.530000", "135116.533000", "135116.536000", "135116.539000", "135116.541000", "135116.545000", "135116.547000", "135116.550000", "135156.434000", "135156.437000", "135156.440000", "135156.443000", "135156.445000", "135156.448000", "135156.451000", "135156.454000", "135156.457000", "135156.460000", "135156.463000", "135156.466000", "135156.469000", "135156.471000", "135156.474000", "135156.477000", "135156.480000", "135156.483000", "135156.486000", "135156.489000", "135156.492000", "135156.495000", "135156.498000", "135156.501000", "135156.504000", "135156.506000", "135156.509000", "135236.434000", "135236.437000", "135236.440000", "135236.443000", "135236.446000", "135236.449000", "135236.452000", "135236.454000", "135236.457000", "135236.460000", "135236.463000", "135236.466000", "135236.469000", "135236.472000", "135236.475000", "135236.478000", "135236.481000", "135236.484000", "135236.487000", "135236.489000", "135236.492000", "135236.495000", "135236.498000", "135236.501000", "135236.504000", "135236.507000", "135236.510000", "135316.433000", "135316.436000", "135316.439000", "135316.442000", "135316.445000", "135316.448000", "135316.451000", "135316.454000", "135316.456000", "135316.460000", "135316.462000", "135316.465000", "135316.468000", "135316.471000", "135316.474000", "135316.477000", "135316.480000", "135316.483000", "135316.486000", "135316.489000", "135316.493000", "135316.496000", "135316.499000", "135316.501000", "135316.504000", "135316.507000", "135356.434000", "135356.437000", "135356.440000", "135356.443000", "135356.446000", "135356.449000", "135356.452000", "135356.455000", "135356.457000", "135356.460000", "135356.463000", "135356.466000", "135356.469000", "135356.472000", "135356.475000", "135356.478000", "135356.481000", "135356.484000", "135356.487000", "135356.489000", "135356.492000", "135356.503000", "135356.506000", "135356.509000", "135356.511000", "135356.514000", "135356.517000", "135436.434000", "135436.437000", "135436.440000", "135436.443000", "135436.446000", "135436.449000", "135436.452000", "135436.455000", "135436.458000", "135436.461000", "135436.463000", "135436.466000", "135436.469000", "135436.472000", "135436.475000", "135436.478000", "135436.481000", "135436.484000", "135436.487000", "135436.490000", "135436.493000", "135436.496000", "135436.499000", "135436.501000", "135436.504000", "135436.507000", "135436.510000", "135516.433000", "135516.436000", "135516.439000", "135516.442000", "135516.445000", "135516.448000", "135516.451000", "135516.454000", "135516.457000", "135516.460000", "135516.463000", "135516.466000", "135516.468000", "135516.471000", "135516.474000", "135516.477000", "135516.480000", "135516.483000", "135516.486000", "135516.489000", "135516.492000", "135516.506000", "135516.509000", "135516.512000", "135516.515000", "135516.518000", "135516.521000", "135556.434000", "135556.437000", "135556.440000", "135556.444000", "135556.447000", "135556.450000", "135556.453000", "135556.457000", "135556.460000", "135556.463000", "135556.466000", "135556.469000", "135556.472000", "135556.474000", "135556.477000", "135556.480000", "135556.483000", "135556.486000", "135556.489000", "135556.492000", "135556.495000", "135556.498000", "135556.501000", "135556.504000", "135556.507000", "135556.510000", "135556.512000", "135636.434000", "135636.437000", "135636.440000", "135636.443000", "135636.447000", "135636.450000", "135636.453000", "135636.456000", "135636.459000", "135636.462000", "135636.465000", "135636.468000", "135636.471000", "135636.474000", "135636.477000", "135636.480000", "135636.483000", "135636.486000", "135636.489000", "135636.492000", "135636.495000", "135636.498000", "135636.501000", "135636.504000", "135636.507000", "135636.510000", "135636.513000", "135716.434000", "135716.438000", "135716.441000", "135716.445000", "135716.448000", "135716.451000", "135716.454000", "135716.457000", "135716.460000", "135716.462000", "135716.465000", "135716.468000", "135716.471000", "135716.475000", "135716.478000", "135716.481000", "135716.484000", "135716.487000", "135716.490000", "135716.492000", "135716.496000", "135716.499000", "135716.502000", "135716.504000", "135716.508000", "135716.510000", "135756.433000", "135756.436000", "135756.439000", "135756.442000", "135756.445000", "135756.448000", "135756.450000", "135756.453000", "135756.456000", "135756.459000", "135756.462000", "135756.465000", "135756.468000", "135756.471000", "135756.473000", "135756.476000", "135756.479000", "135756.482000", "135756.485000", "135756.488000", "135756.491000", "135756.494000", "135756.497000", "135756.500000", "135756.503000", "135756.506000", "135756.508000", "135836.434000", "135836.437000", "135836.440000", "135836.443000", "135836.446000", "135836.449000", "135836.452000", "135836.455000", "135836.458000", "135836.461000", "135836.464000", "135836.467000", "135836.469000", "135836.472000", "135836.476000", "135836.478000", "135836.482000", "135836.485000", "135836.488000", "135836.491000", "135836.494000", "135836.497000", "135836.500000", "135836.503000", "135836.506000", "135836.509000", "135836.512000", "135853.412000", "135853.415000", "135853.418000", "135853.421000", "135853.424000", "135853.427000", "135853.430000", "135853.433000", "135853.436000", "135853.439000", "135853.442000", "135853.445000"],
