{
  "AcquisitionMatrixPE": 104,
  "AcquisitionNumber": 1,
  "AcquisitionTime": "18:43:58.315000",
  "BandwidthPerPixelPhaseEncode": 17.17,
  "BaseResolution": 104,
  "BodyPartExamined": "BRAIN",
  "CoilCombinationMethod": "Sum of Squares",
  "ConsistencyInfo": "N4_VE11C_LATEST_20160120",
  "ConversionSoftware": "dcm2niix",
  "ConversionSoftwareVersion": "v1.0.20230411",
  "DerivedVendorReportedEchoSpacing": 0.000560011,
  "DeviceSerialNumber": "167006",
  "DwellTime": 2.1e-06,
  "EchoTime": 0.037,
  "EchoTrainLength": 104,
  "EffectiveEchoSpacing": 0.000560011,
  "FlipAngle": 52,
  "HeudiconvVersion": "0.5.3.post861+ge7d3c7f",
  "ImageComments": "Unaliased MB4/PE3/LB",
  "ImageOrientationPatientDICOM": [0.999985, -0.000939279, -0.00532788, -0.00122175, 0.920165, -0.39153],
  "ImageOrientationText": "Tra>Cor(-23.1)>Sag(-0.3)",
  "ImageType": [
    "ORIGINAL",
    "PRIMARY",
    "M",
    "MB",
    "ND",
    "MOSAIC"
],
  "ImagingFrequency": 123.249741,
  "InPlanePhaseEncodingDirectionDICOM": "COL",
  "InstitutionAddress": "Chemin Queen-Mary 4565,Montreal,District,CA,H3W 1W5",
  "InstitutionName": "Institut Universitaire de Geriatrie de Montreal",
  "InstitutionalDepartmentName": "Department",
  "MRAcquisitionType": "2D",
  "MagneticFieldStrength": 3,
  "Manufacturer": "Siemens",
  "ManufacturersModelName": "Prisma_fit",
  "MatrixCoilMode": "SENSE",
  "Modality": "MR",
  "MultibandAccelerationFactor": 4,
  "NonlinearGradientCorrection": false,
  "PartialFourier": 1,
  "PatientPosition": "HFS",
  "PercentPhaseFOV": 100,
  "PercentSampling": 100,
  "PhaseEncodingDirection": "j",
  "PhaseEncodingSteps": 104,
  "PhaseResolution": 1,
  "PixelBandwidth": 2290,
  "ProcedureStepDescription": "video^friends",
  "ProtocolName": "func_task-friends-s07e10b",
  "PulseSequenceDetails": "%CustomerSeq%\\cmrr_mbep2d_bold",
  "ReceiveCoilActiveElements": "HC1-7;NC1,2",
  "ReceiveCoilName": "HeadNeck_64",
  "ReconMatrixPE": 104,
  "RepetitionTime": 1.49,
  "SAR": 0.105599,
  "ScanOptions": "FS",
  "ScanningSequence": "EP",
  "SequenceName": "epfid2d1_104",
  "SequenceVariant": "SK\\SS",
  "SeriesDescription": "func_task-friends-s07e10b",
  "SeriesNumber": 14,
  "ShimSetting": [590, -7266, -8811, 419, 26, -366, -56, 54],
  "SliceThickness": 2,
  "SliceTiming": [0, 0.785, 0.1, 0.8825, 0.1975, 0.98, 0.295, 1.08, 0.3925, 1.1775, 0.49, 1.275, 0.59, 1.3725, 0.6875, 0, 0.785, 0.1, 0.8825, 0.1975, 0.98, 0.295, 1.08, 0.3925, 1.1775, 0.49, 1.275, 0.59, 1.3725, 0.6875, 0, 0.785, 0.1, 0.8825, 0.1975, 0.98, 0.295, 1.08, 0.3925, 1.1775, 0.49, 1.275, 0.59, 1.3725, 0.6875, 0, 0.785, 0.1, 0.8825, 0.1975, 0.98, 0.295, 1.08, 0.3925, 1.1775, 0.49, 1.275, 0.59, 1.3725, 0.6875],
  "SoftwareVersions": "syngo MR E11",
  "SpacingBetweenSlices": 2,
  "StationName": "MRC35049",
  "TaskName": "s07e10b",
  "TotalReadoutTime": 0.0576811,
  "TxRefAmp": 352.789,
  "WipMemBlock": "5bb27272-a20b-4542-8a56-c57caad26258||Sequence: R017 ve11c/master r/75a17815+; Jun 28 2022 16:32:11 by eja",
  "dcmmeta_affine": [
    [-1.9999706745147705, -0.0024434998631477356, -0.010540555231273174, 101.47335815429688],
    [0.001878557843156159, 1.8403290510177612, -0.783061683177948, -67.7174072265625],
    [-0.010655750520527363, 0.7830600738525391, 1.8402998447418213, -64.83811950683594],
    [0.0, 0.0, 0.0, 1.0]
],
  "dcmmeta_reorient_transform": [
    [0.0, -1.0, 0.0, 103.0],
    [1.0, 0.0, 0.0, 0.0],
    [0.0, 0.0, 1.0, 0.0],
    [0.0, 0.0, 0.0, 1.0]
],
  "dcmmeta_shape": [104, 104, 60, 493],
  "dcmmeta_slice_dim": 2,
  "dcmmeta_version": 0.6,
  "global": {
    "const": {
      "AcquisitionMatrix": [104, 0, 0, 104],
      "AngioFlag": "N",
      "BitsAllocated": 16,
      "BitsStored": 16,
      "BodyPartExamined": "BRAIN",
      "Columns": 832,
      "EchoNumbers": 1,
      "EchoTime": 37.0,
      "EchoTrainLength": 104,
      "FlipAngle": 52.0,
      "HighBit": 15,
      "ImageOrientationPatient": [0.99998536564375, -0.0009392789429, -0.005327875131, -0.0012217498816, 0.92016451582967, -0.3915300386116],
      "ImagePositionPatient": [-828.3215878566, -791.03245572935, 304.72962845681],
      "ImageType": [
        "ORIGINAL",
        "PRIMARY",
        "M",
        "MB",
        "ND",
        "MOSAIC"
],
      "ImagedNucleus": "1H",
      "ImagingFrequency": 123.249741,
      "InPlanePhaseEncodingDirection": "COL",
      "MRAcquisitionType": "2D",
      "MagneticFieldStrength": 3.0,
      "Manufacturer": "SIEMENS",
      "ManufacturerModelName": "Prisma_fit",
      "Modality": "MR",
      "NumberOfAverages": 1.0,
      "NumberOfPhaseEncodingSteps": 104,
      "PercentPhaseFieldOfView": 100.0,
      "PercentSampling": 100.0,
      "PerformedProcedureStepStartTime": "180658.283000",
      "PhotometricInterpretation": "MONOCHROME2",
      "PixelBandwidth": 2290.0,
      "PixelRepresentation": 0,
      "PixelSpacing": [2.0, 2.0],
      "ProtocolName": "func_task-friends-s07e10b",
      "RepetitionTime": 1490.0,
      "Rows": 832,
      "SAR": 0.1055990767689,
      "SamplesPerPixel": 1,
      "ScanOptions": "FS",
      "ScanningSequence": "EP",
      "SequenceName": "epfid2d1_104",
      "SequenceVariant": [
        "SK",
        "SS"
],
      "SeriesDescription": "func_task-friends-s07e10b",
      "SeriesNumber": 14,
      "SeriesTime": "184522.308000",
      "SliceLocation": -33.682131417225,
      "SliceThickness": 2.0,
      "SmallestImagePixelValue": 0,
      "SoftwareVersions": "syngo MR E11",
      "SpacingBetweenSlices": 2.0000000515055,
      "SpecificCharacterSet": "ISO_IR 100",
      "StudyID": "1",
      "StudyTime": "180658.197000",
      "TransmitCoilName": "Body",
      "VariableFlipAngleFlag": "N",
      "WindowCenterWidthExplanation": "Algo1",
      "dBdt": 0.0},
    "slices": {}
  },
  "time": {
    "samples": {
      "AcquisitionNumber": [1, 2, 3, 4, 5, 6, 7, 8, 9, 10, 11, 12, 13, 14, 15, 16, 17, 18, 19, 20, 21, 22, 23, 24, 25, 26, 27, 28, 29, 30, 31, 32, 33, 34, 35, 36, 37, 38, 39, 40, 41, 42, 43, 44, 45, 46, 47, 48, 49, 50, 51, 52, 53, 54, 55, 56, 57, 58, 59, 60, 61, 62, 63, 64, 65, 66, 67, 68, 69, 70, 71, 72, 73, 74, 75, 76, 77, 78, 79, 80, 81, 82, 83, 84, 85, 86, 87, 88, 89, 90, 91, 92, 93, 94, 95, 96, 97, 98, 99, 100, 101, 102, 103, 104, 105, 106, 107, 108, 109, 110, 111, 112, 113, 114, 115, 116, 117, 118, 119, 120, 121, 122, 123, 124, 125, 126, 127, 128, 129, 130, 131, 132, 133, 134, 135, 136, 137, 138, 139, 140, 141, 142, 143, 144, 145, 146, 147, 148, 149, 150, 151, 152, 153, 154, 155, 156, 157, 158, 159, 160, 161, 162, 163, 164, 165, 166, 167, 168, 169, 170, 171, 172, 173, 174, 175, 176, 177, 178, 179, 180, 181, 182, 183, 184, 185, 186, 187, 188, 189, 190, 191, 192, 193, 194, 195, 196, 197, 198, 199, 200, 201, 202, 203, 204, 205, 206, 207, 208, 209, 210, 211, 212, 213, 214, 215, 216, 217, 218, 219, 220, 221, 222, 223, 224, 225, 226, 227, 228, 229, 230, 231, 232, 233, 234, 235, 236, 237, 238, 239, 240, 241, 242, 243, 244, 245, 246, 247, 248, 249, 250, 251, 252, 253, 254, 255, 256, 257, 258, 259, 260, 261, 262, 263, 264, 265, 266, 267, 268, 269, 270, 271, 272, 273, 274, 275, 276, 277, 278, 279, 280, 281, 282, 283, 284, 285, 286, 287, 288, 289, 290, 291, 292, 293, 294, 295, 296, 297, 298, 299, 300, 301, 302, 303, 304, 305, 306, 307, 308, 309, 310, 311, 312, 313, 314, 315, 316, 317, 318, 319, 320, 321, 322, 323, 324, 325, 326, 327, 328, 329, 330, 331, 332, 333, 334, 335, 336, 337, 338, 339, 340, 341, 342, 343, 344, 345, 346, 347, 348, 349, 350, 351, 352, 353, 354, 355, 356, 357, 358, 359, 360, 361, 362, 363, 364, 365, 366, 367, 368, 369, 370, 371, 372, 373, 374, 375, 376, 377, 378, 379, 380, 381, 382, 383, 384, 385, 386, 387, 388, 389, 390, 391, 392, 393, 394, 395, 396, 397, 398, 399, 400, 401, 402, 403, 404, 405, 406, 407, 408, 409, 410, 411, 412, 413, 414, 415, 416, 417, 418, 419, 420, 421, 422, 423, 424, 425, 426, 427, 428, 429, 430, 431, 432, 433, 434, 435, 436, 437, 438, 439, 440, 441, 442, 443, 444, 445, 446, 447, 448, 449, 450, 451, 452, 453, 454, 455, 456, 457, 458, 459, 460, 461, 462, 463, 464, 465, 466, 467, 468, 469, 470, 471, 472, 473, 474, 475, 476, 477, 478, 479, 480, 481, 482, 483, 484, 485, 486, 487, 488, 489, 490, 491, 492, 493],
      "AcquisitionTime": ["184358.315000", "184359.805000", "184401.295000", "184402.785000", "184404.275000", "184405.765000", "184407.255000", "184408.745000", "184410.235000", "184411.725000", "184413.215000", "184414.705000", "184416.195000", "184417.685000", "184419.175000", "184420.665000", "184422.155000", "184423.645000", "184425.135000", "184426.625000", "184428.115000", "184429.605000", "184431.095000", "184432.585000", "184434.075000", "184435.565000", "184437.055000", "184438.545000", "184440.035000", "184441.525000", "184443.015000", "184444.505000", "184445.995000", "184447.485000", "184448.975000", "184450.465000", "184451.955000", "184453.445000", "184454.935000", "184456.425000", "184457.915000", "184459.405000", "184500.895000", "184502.385000", "184503.875000", "184505.365000", "184506.855000", "184508.345000", "184509.835000", "184511.325000", "184512.815000", "184514.305000", "184515.795000", "184517.285000", "184518.775000", "184520.265000", "184521.755000", "184523.245000", "184524.735000", "184526.225000", "184527.715000", "184529.205000", "184530.695000", "184532.185000", "184533.675000", "184535.165000", "184536.655000", "184538.145000", "184539.635000", "184541.125000", "184542.615000", "184544.105000", "184545.595000", "184547.085000", "184548.575000", "184550.065000", "184551.555000", "184553.045000", "184554.535000", "184556.025000", "184557.515000", "184559.005000", "184600.495000", "184601.985000", "184603.475000", "184604.965000", "184606.455000", "184607.945000", "184609.435000", "184610.925000", "184612.415000", "184613.905000", "184615.395000", "184616.885000", "184618.375000", "184619.865000", "184621.355000", "184622.845000", "184624.335000", "184625.825000", "184627.315000", "184628.805000", "184630.295000", "184631.785000", "184633.275000", "184634.765000", "184636.255000", "184637.745000", "184639.235000", "184640.725000", "184642.215000", "184643.705000", "184645.195000", "184646.685000", "184648.175000", "184649.665000", "184651.155000", "184652.645000", "184654.135000", "184655.625000", "184657.115000", "184658.605000", "184700.095000", "184701.585000", "184703.075000", "184704.565000", "184706.055000", "184707.545000", "184709.035000", "184710.525000", "184712.015000", "184713.505000", "184714.995000", "184716.485000", "184717.975000", "184719.465000", "184720.955000", "184722.445000", "184723.935000", "184725.425000", "184726.915000", "184728.405000", "184729.895000", "184731.385000", "184732.875000", "184734.365000", "184735.855000", "184737.345000", "184738.835000", "184740.325000", "184741.815000", "184743.305000", "184744.795000", "184746.285000", "184747.775000", "184749.265000", "184750.755000", "184752.245000", "184753.735000", "184755.225000", "184756.715000", "184758.205000", "184759.695000", "184801.185000", "184802.675000", "184804.165000", "184805.655000", "184807.145000", "184808.635000", "184810.125000", "184811.615000", "184813.105000", "184814.595000", "184816.085000", "184817.575000", "184819.065000", "184820.555000", "184822.045000", "184823.535000", "184825.025000", "184826.515000", "184828.005000", "184829.495000", "184830.985000", "184832.475000", "184833.965000", "184835.455000", "184836.945000", "184838.435000", "184839.925000", "184841.415000", "184842.905000", "184844.395000", "184845.885000", "184847.375000", "184848.865000", "184850.355000", "184851.845000", "184853.335000", "184854.825000", "184856.315000", "184857.805000", "184859.295000", "184900.785000", "184902.275000", "184903.765000", "184905.255000", "184906.745000", "184908.235000", "184909.725000", "184911.215000", "184912.705000", "184914.195000", "184915.685000", "184917.175000", "184918.665000", "184920.155000", "184921.645000", "184923.135000", "184924.625000", "184926.115000", "184927.605000", "184929.095000", "184930.585000", "184932.075000", "184933.565000", "184935.055000", "184936.545000", "184938.035000", "184939.525000", "184941.015000", "184942.505000", "184943.995000", "184945.485000", "184946.975000", "184948.465000", "184949.955000", "184951.445000", "184952.935000", "184954.425000", "184955.915000", "184957.405000", "184958.895000", "185000.385000", "185001.875000", "185003.365000", "185004.855000", "185006.345000", "185007.835000", "185009.325000", "185010.815000", "185012.305000", "185013.795000", "185015.285000", "185016.775000", "185018.265000", "185019.755000", "185021.245000", "185022.735000", "185024.225000", "185025.715000", "185027.205000", "185028.695000", "185030.185000", "185031.675000", "185033.165000", "185034.655000", "185036.145000", "185037.635000", "185039.125000", "185040.615000", "185042.105000", "185043.595000", "185045.085000", "185046.575000", "185048.065000", "185049.555000", "185051.045000", "185052.535000", "185054.025000", "185055.515000", "185057.005000", "185058.495000", "185059.985000", "185101.475000", "185102.965000", "185104.455000", "185105.945000", "185107.435000", "185108.925000", "185110.415000", "185111.905000", "185113.395000", "185114.885000", "185116.375000", "185117.865000", "185119.355000", "185120.845000", "185122.335000", "185123.825000", "185125.315000", "185126.805000", "185128.295000", "185129.785000", "185131.275000", "185132.765000", "185134.255000", "185135.745000", "185137.235000", "185138.725000", "185140.215000", "185141.705000", "185143.195000", "185144.685000", "185146.175000", "185147.665000", "185149.155000", "185150.645000", "185152.135000", "185153.625000", "185155.115000", "185156.605000", "185158.095000", "185159.585000", "185201.075000", "185202.565000", "185204.055000", "185205.545000", "185207.035000", "185208.525000", "185210.015000", "185211.505000", "185212.995000", "185214.485000", "185215.975000", "185217.465000", "185218.955000", "185220.445000", "185221.935000", "185223.425000", "185224.915000", "185226.405000", "185227.895000", "185229.385000", "185230.875000", "185232.365000", "185233.855000", "185235.345000", "185236.835000", "185238.325000", "185239.815000", "185241.305000", "185242.795000", "185244.285000", "185245.775000", "185247.265000", "185248.755000", "185250.245000", "185251.735000", "185253.225000", "185254.715000", "185256.205000", "185257.695000", "185259.185000", "185300.675000", "185302.165000", "185303.655000", "185305.145000", "185306.635000", "185308.125000", "185309.615000", "185311.105000", "185312.595000", "185314.085000", "185315.575000", "185317.065000", "185318.555000", "185320.045000", "185321.535000", "185323.025000", "185324.515000", "185326.005000", "185327.495000", "185328.985000", "185330.475000", "185331.965000", "185333.455000", "185334.945000", "185336.435000", "185337.925000", "185339.415000", "185340.905000", "185342.395000", "185343.885000", "185345.375000", "185346.865000", "185348.355000", "185349.845000", "185351.335000", "185352.825000", "185354.315000", "185355.805000", "185357.295000", "185358.785000", "185400.275000", "185401.765000", "185403.255000", "185404.745000", "185406.235000", "185407.725000", "185409.215000", "185410.705000", "185412.195000", "185413.685000", "185415.175000", "185416.665000", "185418.155000", "185419.645000", "185421.135000", "185422.625000", "185424.115000", "185425.605000", "185427.095000", "185428.585000", "185430.075000", "185431.565000", "185433.055000", "185434.545000", "185436.035000", "185437.525000", "185439.015000", "185440.505000", "185441.995000", "185443.485000", "185444.975000", "185446.465000", "185447.955000", "185449.445000", "185450.935000", "185452.425000", "185453.915000", "185455.405000", "185456.895000", "185458.385000", "185459.875000", "185501.365000", "185502.855000", "185504.345000", "185505.835000", "185507.325000", "185508.815000", "185510.305000", "185511.795000", "185513.285000", "185514.775000", "185516.265000", "185517.755000", "185519.245000", "185520.735000", "185522.225000", "185523.715000", "185525.205000", "185526.695000", "185528.185000", "185529.675000", "185531.165000", "185532.655000", "185534.145000", "185535.635000", "185537.125000", "185538.615000", "185540.105000", "185541.595000", "185543.085000", "185544.575000", "185546.065000", "185547.555000", "185549.045000", "185550.535000", "185552.025000", "185553.515000", "185555.005000", "185556.495000", "185557.985000", "185559.475000", "185600.965000", "185602.455000", "185603.945000", "185605.435000", "185606.925000", "185608.415000", "185609.905000", "185611.395000"],
      "ContentTime": ["184522.311000", "184522.315000", "184522.318000", "184522.321000", "184522.324000", "184522.326000", "184522.329000", "184522.332000", "184522.335000", "184522.338000", "184522.341000", "184522.344000", "184522.347000", "184522.350000", "184522.353000", "184522.355000", "184522.358000", "184522.361000", "184522.364000", "184522.367000", "184522.370000", "184522.373000", "184522.376000", "184522.384000", "184522.387000", "184522.390000", "184522.392000", "184522.395000", "184522.398000", "184522.401000", "184522.404000", "184522.407000", "184522.410000", "184542.276000", "184542.279000", "184542.282000", "184542.285000", "184542.288000", "184542.291000", "184542.294000", "184542.296000", "184542.299000", "184542.302000", "184542.305000", "184542.308000", "184542.311000", "184542.314000", "184542.317000", "184542.319000", "184542.322000", "184542.325000", "184542.328000", "184542.331000", "184602.276000", "184602.279000", "184602.282000", "184602.285000", "184602.288000", "184602.291000", "184602.293000", "184602.296000", "184602.299000", "184602.302000", "184602.305000", "184602.308000", "184602.311000", "184602.314000", "184602.317000", "184602.319000", "184602.322000", "184602.325000", "184602.328000", "184602.331000", "184622.276000", "184622.279000", "184622.282000", "184622.285000", "184622.288000", "184622.291000", "184622.294000", "184622.296000", "184622.301000", "184622.304000", "184622.307000", "184622.310000", "184622.313000", "184622.316000", "184622.318000", "184622.321000", "184622.324000", "184622.327000", "184622.330000", "184622.333000", "184702.277000", "184702.280000", "184702.283000", "184702.286000", "184702.289000", "184702.292000", "184702.295000", "184702.298000", "184702.300000", "184702.303000", "184702.307000", "184702.310000", "184702.312000", "184702.315000", "184702.318000", "184702.321000", "184702.324000", "184702.327000", "184702.330000", "184702.333000", "184702.336000", "184702.338000", "184702.341000", "184702.344000", "184702.347000", "184702.350000", "184702.353000", "184702.356000", "184702.359000", "184742.276000", "184742.279000", "184742.282000", "184742.285000", "184742.288000", "184742.291000", "184742.294000", "184742.296000", "184742.299000", "184742.302000", "184742.305000", "184742.308000", "184742.311000", "184742.314000", "184742.317000", "184742.320000", "184742.323000", "184742.326000", "184742.329000", "184742.332000", "184742.334000", "184742.337000", "184742.340000", "184742.343000", "184742.346000", "184742.349000", "184742.352000", "184822.276000", "184822.279000", "184822.282000", "184822.285000", "184822.288000", "184822.291000", "184822.294000", "184822.296000", "184822.299000", "184822.302000", "184822.305000", "184822.308000", "184822.311000", "184822.314000", "184822.317000", "184822.320000", "184822.323000", "184822.325000", "184822.328000", "184822.342000", "184822.345000", "184822.348000", "184822.351000", "184822.354000", "184822.371000", "184822.374000", "184822.377000", "184902.277000", "184902.281000", "184902.283000", "184902.287000", "184902.289000", "184902.293000", "184902.296000", "184902.299000", "184902.302000", "184902.304000", "184902.307000", "184902.310000", "184902.313000", "184902.316000", "184902.319000", "184902.322000", "184902.325000", "184902.328000", "184902.331000", "184902.334000", "184902.337000", "184902.340000", "184902.343000", "184902.346000", "184902.349000", "184902.352000", "184902.355000", "184942.277000", "184942.280000", "184942.283000", "184942.286000", "184942.289000", "184942.292000", "184942.295000", "184942.298000", "184942.300000", "184942.303000", "184942.306000", "184942.309000", "184942.312000", "184942.315000", "184942.318000", "184942.321000", "184942.324000", "184942.327000", "184942.330000", "184942.332000", "184942.335000", "184942.338000", "184942.341000", "184942.344000", "184942.347000", "184942.350000", "184942.353000", "185022.276000", "185022.279000", "185022.282000", "185022.285000", "185022.288000", "185022.291000", "185022.294000", "185022.297000", "185022.300000", "185022.302000", "185022.305000", "185022.308000", "185022.311000", "185022.314000", "185022.317000", "185022.320000", "185022.323000", "185022.326000", "185022.329000", "185022.332000", "185022.335000", "185022.338000", "185022.340000", "185022.343000", "185022.346000", "185022.349000", "185022.352000", "185102.276000", "185102.279000", "185102.282000", "185102.285000", "185102.288000", "185102.291000", "185102.294000", "185102.297000", "185102.299000", "185102.302000", "185102.305000", "185102.308000", "185102.311000", "185102.314000", "185102.317000", "185102.320000", "185102.323000", "185102.326000", "185102.329000", "185102.332000", "185102.335000", "185102.338000", "185102.341000", "185102.343000", "185102.346000", "185102.349000", "185142.277000", "185142.280000", "185142.283000", "185142.286000", "185142.289000", "185142.292000", "185142.295000", "185142.298000", "185142.301000", "185142.304000", "185142.307000", "185142.310000", "185142.312000", "185142.315000", "185142.318000", "185142.321000", "185142.324000", "185142.327000", "185142.330000", "185142.333000", "185142.336000", "185142.339000", "185142.342000", "185142.345000", "185142.348000", "185142.351000", "185142.354000", "185222.276000", "185222.279000", "185222.282000", "185222.285000", "185222.288000", "185222.291000", "185222.294000", "185222.297000", "185222.300000", "185222.303000", "185222.306000", "185222.309000", "185222.312000", "185222.315000", "185222.318000", "185222.321000", "185222.323000", "185222.326000", "185222.329000", "185222.332000", "185222.335000", "185222.338000", "185222.341000", "185222.344000", "185222.347000", "185222.350000", "185222.353000", "185302.276000", "185302.279000", "185302.282000", "185302.285000", "185302.288000", "185302.291000", "185302.293000", "185302.296000", "185302.299000", "185302.302000", "185302.305000", "185302.308000", "185302.311000", "185302.314000", "185302.317000", "185302.320000", "185302.323000", "185302.326000", "185302.329000", "185302.331000", "185302.334000", "185302.337000", "185302.340000", "185302.343000", "185302.346000", "185302.363000", "185302.366000", "185342.277000", "185342.280000", "185342.283000", "185342.286000", "185342.289000", "185342.292000", "185342.295000", "185342.298000", "185342.301000", "185342.303000", "185342.306000", "185342.309000", "185342.312000", "185342.315000", "185342.318000", "185342.321000", "185342.324000", "185342.327000", "185342.330000", "185342.333000", "185342.336000", "185342.339000", "185342.342000", "185342.344000", "185342.347000", "185342.350000", "185342.353000", "185422.276000", "185422.279000", "185422.282000", "185422.285000", "185422.288000", "185422.291000", "185422.294000", "185422.297000", "185422.300000", "185422.303000", "185422.306000", "185422.309000", "185422.311000", "185422.314000", "185422.317000", "185422.320000", "185422.323000", "185422.326000", "185422.329000", "185422.332000", "185422.335000", "185422.338000", "185422.340000", "185422.343000", "185422.346000", "185422.349000", "185422.352000", "185502.276000", "185502.279000", "185502.282000", "185502.285000", "185502.288000", "185502.291000", "185502.294000", "185502.297000", "185502.300000", "185502.303000", "185502.306000", "185502.309000", "185502.312000", "185502.315000", "185502.318000", "185502.321000", "185502.324000", "185502.327000", "185502.330000", "185502.333000", "185502.336000", "185502.339000", "185502.342000", "185502.345000", "185502.348000", "185502.351000", "185542.276000", "185542.279000", "185542.282000", "185542.285000", "185542.288000", "185542.291000", "185542.294000", "185542.305000", "185542.308000", "185542.311000", "185542.314000", "185542.317000", "185542.319000", "185542.322000", "185542.325000", "185542.328000", "185542.331000", "185542.334000", "185542.337000", "185542.340000", "185542.343000", "185542.346000", "185542.349000", "185542.352000", "185542.355000", "185542.358000", "185542.360000", "185613.844000", "185613.847000", "185613.850000", "185613.853000", "185613.856000", "185613.859000", "185613.862000", "185613.865000", "185613.868000", "185613.871000", "185613.874000", "185613.877000", "185613.880000", "185613.883000", "185613.886000", "185613.889000", "185613.892000", "185613.895000", "185613.898000", "185613.901000", "185613.904000", "185613.907000"],
