{
  "AcquisitionMatrixPE": 104,
  "AcquisitionNumber": 1,
  "AcquisitionTime": "15:55:56.940000",
  "BandwidthPerPixelPhaseEncode": 17.17,
  "BaseResolution": 104,
  "BodyPartExamined": "BRAIN",
  "CoilCombinationMethod": "Sum of Squares",
  "ConsistencyInfo": "N4_VE11C_LATEST_20160120",
  "ConversionSoftware": "dcm2niix",
  "ConversionSoftwareVersion": "v1.0.20211006",
  "DerivedVendorReportedEchoSpacing": 0.000560011,
  "DeviceSerialNumber": "167006",
  "DwellTime": 2.1e-06,
  "EchoTime": 0.037,
  "EchoTrainLength": 104,
  "EffectiveEchoSpacing": 0.000560011,
  "FlipAngle": 52,
  "HeudiconvVersion": "0.11.3.post9+gc939bf8",
  "ImageComments": "Unaliased MB4/PE3/LB",
  "ImageOrientationPatientDICOM": [0.999439, -0.021691, -0.025506, 0.0116877, 0.939874, -0.341321],
  "ImageOrientationText": "Tra>Cor(-19.9)>Sag(-1.8)",
  "ImageType": [
    "ORIGINAL",
    "PRIMARY",
    "M",
    "MB",
    "ND",
    "MOSAIC"
],
  "ImagingFrequency": 123.259,
  "InPlanePhaseEncodingDirectionDICOM": "COL",
  "InstitutionAddress": "Chemin Queen-Mary 4565,Montreal,District,CA,H3W 1W5",
  "InstitutionName": "IUGM",
  "InstitutionalDepartmentName": "Department",
  "MRAcquisitionType": "2D",
  "MagneticFieldStrength": 3,
  "Manufacturer": "Siemens",
  "ManufacturersModelName": "Prisma_fit",
  "MatrixCoilMode": "SENSE",
  "Modality": "MR",
  "MultibandAccelerationFactor": 4,
  "PartialFourier": 1,
  "PatientPosition": "HFS",
  "PercentPhaseFOV": 100,
  "PercentSampling": 100,
  "PhaseEncodingDirection": "j",
  "PhaseEncodingSteps": 104,
  "PhaseResolution": 1,
  "PixelBandwidth": 2290,
  "ProcedureStepDescription": "video^friends",
  "ProtocolName": "func_task-friends-s06e22a",
  "PulseSequenceDetails": "%CustomerSeq%\\cmrr_mbep2d_bold",
  "ReceiveCoilActiveElements": "HC1-7;NC1,2",
  "ReceiveCoilName": "HeadNeck_64",
  "ReconMatrixPE": 104,
  "RepetitionTime": 1.49,
  "SAR": 0.0586991,
  "ScanOptions": "FS",
  "ScanningSequence": "EP",
  "SequenceName": "epfid2d1_104",
  "SequenceVariant": "SK\\SS",
  "SeriesDescription": "func_task-friends-s06e22a",
  "SeriesNumber": 12,
  "ShimSetting": [617, -7259, -8837, 533, 19, -234, -59, -24],
  "SliceThickness": 2,
  "SliceTiming": [0, 0.785, 0.0975, 0.8825, 0.195, 0.98, 0.295, 1.0775, 0.3925, 1.175, 0.49, 1.275, 0.5875, 1.3725, 0.685, 0, 0.785, 0.0975, 0.8825, 0.195, 0.98, 0.295, 1.0775, 0.3925, 1.175, 0.49, 1.275, 0.5875, 1.3725, 0.685, 0, 0.785, 0.0975, 0.8825, 0.195, 0.98, 0.295, 1.0775, 0.3925, 1.175, 0.49, 1.275, 0.5875, 1.3725, 0.685, 0, 0.785, 0.0975, 0.8825, 0.195, 0.98, 0.295, 1.0775, 0.3925, 1.175, 0.49, 1.275, 0.5875, 1.3725, 0.685],
  "SoftwareVersions": "syngo MR E11",
  "SpacingBetweenSlices": 2,
  "StationName": "MRC35049",
  "TaskName": "s06e22a",
  "TotalReadoutTime": 0.0576811,
  "TxRefAmp": 275.715,
  "WipMemBlock": "fa708399-de21-4418-83f6-6a4582d01c75||Sequence: R016 ve11c/master r/e634e98; Dec 19 2017 11:00:25 by eja",
  "dcmmeta_affine": [
    [-1.9988785982131958, 0.023375321179628372, -0.06275203078985214, 101.97344207763672],
    [0.04338207095861435, 1.879747986793518, -0.6816636323928833, -75.8134994506836],
    [-0.05101194605231285, 0.6826426386833191, 1.879201054573059, -67.49491882324219],
    [0.0, 0.0, 0.0, 1.0]
],
  "dcmmeta_reorient_transform": [
    [0.0, -1.0, 0.0, 103.0],
    [1.0, 0.0, 0.0, 0.0],
    [0.0, 0.0, 1.0, 0.0],
    [0.0, 0.0, 0.0, 1.0]
],
  "dcmmeta_shape": [104, 104, 60, 452],
  "dcmmeta_slice_dim": 2,
  "dcmmeta_version": 0.6,
  "global": {
    "const": {
      "AcquisitionMatrix": [104, 0, 0, 104],
      "AngioFlag": "N",
      "BitsAllocated": 16,
      "BitsStored": 16,
      "BodyPartExamined": "BRAIN",
      "Columns": 832,
      "EchoNumbers": 1,
      "EchoTime": 37.0,
      "EchoTrainLength": 104,
      "FlipAngle": 52.0,
      "HighBit": 15,
      "ImageOrientationPatient": [0.99943931497051, -0.0216910351691, -0.0255059735078, 0.01168766102506, 0.93987401309343, -0.3413213120967],
      "ImagePositionPatient": [-840.48153963769, -786.23775835451, 269.86753795112],
      "ImageType": [
        "ORIGINAL",
        "PRIMARY",
        "M",
        "MB",
        "ND",
        "MOSAIC"
],
      "ImagedNucleus": "1H",
      "ImagingFrequency": 123.258826,
      "InPlanePhaseEncodingDirection": "COL",
      "MRAcquisitionType": "2D",
      "MagneticFieldStrength": 3.0,
      "Manufacturer": "SIEMENS",
      "ManufacturerModelName": "Prisma_fit",
      "Modality": "MR",
      "NumberOfAverages": 1.0,
      "NumberOfPhaseEncodingSteps": 104,
      "PercentPhaseFieldOfView": 100.0,
      "PercentSampling": 100.0,
      "PerformedProcedureStepStartTime": "153614.012000",
      "PhotometricInterpretation": "MONOCHROME2",
      "PixelBandwidth": 2290.0,
      "PixelRepresentation": 0,
      "PixelSpacing": [2.0, 2.0],
      "ProtocolName": "func_task-friends-s06e22a",
      "RepetitionTime": 1490.0,
      "Rows": 832,
      "SAR": 0.0586990935615,
      "SamplesPerPixel": 1,
      "ScanOptions": "FS",
      "ScanningSequence": "EP",
      "SequenceName": "epfid2d1_104",
      "SequenceVariant": [
        "SK",
        "SS"
],
      "SeriesDescription": "func_task-friends-s06e22a",
      "SeriesNumber": 12,
      "SeriesTime": "155710.384000",
      "SliceLocation": -40.778128218316,
      "SliceThickness": 2.0,
      "SmallestImagePixelValue": 0,
      "SoftwareVersions": "syngo MR E11",
      "SpacingBetweenSlices": 1.9999999717641,
      "SpecificCharacterSet": "ISO_IR 100",
      "StudyID": "1",
      "StudyTime": "153613.943000",
      "TransmitCoilName": "Body",
      "VariableFlipAngleFlag": "N",
      "WindowCenterWidthExplanation": "Algo1",
      "dBdt": 0.0},
    "slices": {}
  },
  "time": {
    "samples": {
      "AcquisitionNumber": [1, 2, 3, 4, 5, 6, 7, 8, 9, 10, 11, 12, 13, 14, 15, 16, 17, 18, 19, 20, 21, 22, 23, 24, 25, 26, 27, 28, 29, 30, 31, 32, 33, 34, 35, 36, 37, 38, 39, 40, 41, 42, 43, 44, 45, 46, 47, 48, 49, 50, 51, 52, 53, 54, 55, 56, 57, 58, 59, 60, 61, 62, 63, 64, 65, 66, 67, 68, 69, 70, 71, 72, 73, 74, 75, 76, 77, 78, 79, 80, 81, 82, 83, 84, 85, 86, 87, 88, 89, 90, 91, 92, 93, 94, 95, 96, 97, 98, 99, 100, 101, 102, 103, 104, 105, 106, 107, 108, 109, 110, 111, 112, 113, 114, 115, 116, 117, 118, 119, 120, 121, 122, 123, 124, 125, 126, 127, 128, 129, 130, 131, 132, 133, 134, 135, 136, 137, 138, 139, 140, 141, 142, 143, 144, 145, 146, 147, 148, 149, 150, 151, 152, 153, 154, 155, 156, 157, 158, 159, 160, 161, 162, 163, 164, 165, 166, 167, 168, 169, 170, 171, 172, 173, 174, 175, 176, 177, 178, 179, 180, 181, 182, 183, 184, 185, 186, 187, 188, 189, 190, 191, 192, 193, 194, 195, 196, 197, 198, 199, 200, 201, 202, 203, 204, 205, 206, 207, 208, 209, 210, 211, 212, 213, 214, 215, 216, 217, 218, 219, 220, 221, 222, 223, 224, 225, 226, 227, 228, 229, 230, 231, 232, 233, 234, 235, 236, 237, 238, 239, 240, 241, 242, 243, 244, 245, 246, 247, 248, 249, 250, 251, 252, 253, 254, 255, 256, 257, 258, 259, 260, 261, 262, 263, 264, 265, 266, 267, 268, 269, 270, 271, 272, 273, 274, 275, 276, 277, 278, 279, 280, 281, 282, 283, 284, 285, 286, 287, 288, 289, 290, 291, 292, 293, 294, 295, 296, 297, 298, 299, 300, 301, 302, 303, 304, 305, 306, 307, 308, 309, 310, 311, 312, 313, 314, 315, 316, 317, 318, 319, 320, 321, 322, 323, 324, 325, 326, 327, 328, 329, 330, 331, 332, 333, 334, 335, 336, 337, 338, 339, 340, 341, 342, 343, 344, 345, 346, 347, 348, 349, 350, 351, 352, 353, 354, 355, 356, 357, 358, 359, 360, 361, 362, 363, 364, 365, 366, 367, 368, 369, 370, 371, 372, 373, 374, 375, 376, 377, 378, 379, 380, 381, 382, 383, 384, 385, 386, 387, 388, 389, 390, 391, 392, 393, 394, 395, 396, 397, 398, 399, 400, 401, 402, 403, 404, 405, 406, 407, 408, 409, 410, 411, 412, 413, 414, 415, 416, 417, 418, 419, 420, 421, 422, 423, 424, 425, 426, 427, 428, 429, 430, 431, 432, 433, 434, 435, 436, 437, 438, 439, 440, 441, 442, 443, 444, 445, 446, 447, 448, 449, 450, 451, 452],
      "AcquisitionTime": ["155556.940000", "155558.430000", "155559.920000", "155601.410000", "155602.900000", "155604.390000", "155605.880000", "155607.370000", "155608.860000", "155610.350000", "155611.840000", "155613.330000", "155614.820000", "155616.310000", "155617.800000", "155619.290000", "155620.780000", "155622.270000", "155623.760000", "155625.250000", "155626.740000", "155628.230000", "155629.720000", "155631.210000", "155632.700000", "155634.190000", "155635.680000", "155637.170000", "155638.660000", "155640.150000", "155641.640000", "155643.130000", "155644.620000", "155646.110000", "155647.600000", "155649.090000", "155650.580000", "155652.070000", "155653.560000", "155655.050000", "155656.540000", "155658.030000", "155659.520000", "155701.010000", "155702.500000", "155703.990000", "155705.480000", "155706.970000", "155708.460000", "155709.950000", "155711.440000", "155712.930000", "155714.420000", "155715.910000", "155717.400000", "155718.890000", "155720.380000", "155721.870000", "155723.360000", "155724.850000", "155726.340000", "155727.830000", "155729.320000", "155730.810000", "155732.300000", "155733.790000", "155735.280000", "155736.770000", "155738.260000", "155739.750000", "155741.240000", "155742.730000", "155744.220000", "155745.710000", "155747.200000", "155748.690000", "155750.180000", "155751.670000", "155753.160000", "155754.650000", "155756.140000", "155757.630000", "155759.120000", "155800.610000", "155802.100000", "155803.590000", "155805.080000", "155806.570000", "155808.060000", "155809.550000", "155811.040000", "155812.530000", "155814.020000", "155815.510000", "155817.000000", "155818.490000", "155819.980000", "155821.470000", "155822.960000", "155824.450000", "155825.940000", "155827.430000", "155828.920000", "155830.410000", "155831.900000", "155833.390000", "155834.880000", "155836.370000", "155837.860000", "155839.350000", "155840.840000", "155842.330000", "155843.820000", "155845.310000", "155846.800000", "155848.290000", "155849.780000", "155851.270000", "155852.760000", "155854.250000", "155855.740000", "155857.230000", "155858.720000", "155900.210000", "155901.700000", "155903.190000", "155904.680000", "155906.170000", "155907.660000", "155909.150000", "155910.640000", "155912.130000", "155913.620000", "155915.110000", "155916.600000", "155918.090000", "155919.580000", "155921.070000", "155922.560000", "155924.050000", "155925.540000", "155927.030000", "155928.520000", "155930.010000", "155931.500000", "155932.990000", "155934.480000", "155935.970000", "155937.460000", "155938.950000", "155940.440000", "155941.930000", "155943.420000", "155944.910000", "155946.400000", "155947.890000", "155949.380000", "155950.870000", "155952.360000", "155953.850000", "155955.340000", "155956.830000", "155958.320000", "155959.810000", "160001.300000", "160002.790000", "160004.280000", "160005.770000", "160007.260000", "160008.750000", "160010.240000", "160011.730000", "160013.220000", "160014.710000", "160016.200000", "160017.690000", "160019.180000", "160020.670000", "160022.160000", "160023.650000", "160025.140000", "160026.630000", "160028.120000", "160029.610000", "160031.100000", "160032.590000", "160034.080000", "160035.570000", "160037.060000", "160038.550000", "160040.040000", "160041.530000", "160043.020000", "160044.510000", "160046.000000", "160047.490000", "160048.980000", "160050.470000", "160051.960000", "160053.450000", "160054.940000", "160056.430000", "160057.920000", "160059.410000", "160100.900000", "160102.390000", "160103.880000", "160105.370000", "160106.860000", "160108.350000", "160109.840000", "160111.330000", "160112.820000", "160114.310000", "160115.800000", "160117.290000", "160118.780000", "160120.270000", "160121.760000", "160123.250000", "160124.740000", "160126.230000", "160127.720000", "160129.210000", "160130.700000", "160132.190000", "160133.680000", "160135.170000", "160136.660000", "160138.150000", "160139.640000", "160141.130000", "160142.620000", "160144.110000", "160145.600000", "160147.090000", "160148.580000", "160150.070000", "160151.560000", "160153.050000", "160154.540000", "160156.030000", "160157.520000", "160159.010000", "160200.500000", "160201.990000", "160203.480000", "160204.970000", "160206.460000", "160207.950000", "160209.440000", "160210.930000", "160212.420000", "160213.910000", "160215.400000", "160216.890000", "160218.380000", "160219.870000", "160221.360000", "160222.850000", "160224.340000", "160225.830000", "160227.320000", "160228.810000", "160230.300000", "160231.790000", "160233.280000", "160234.770000", "160236.260000", "160237.750000", "160239.240000", "160240.730000", "160242.220000", "160243.710000", "160245.200000", "160246.690000", "160248.180000", "160249.670000", "160251.160000", "160252.650000", "160254.140000", "160255.630000", "160257.120000", "160258.610000", "160300.100000", "160301.590000", "160303.080000", "160304.570000", "160306.060000", "160307.550000", "160309.040000", "160310.530000", "160312.020000", "160313.510000", "160315.000000", "160316.490000", "160317.980000", "160319.470000", "160320.960000", "160322.450000", "160323.940000", "160325.430000", "160326.920000", "160328.410000", "160329.900000", "160331.390000", "160332.880000", "160334.370000", "160335.860000", "160337.350000", "160338.840000", "160340.330000", "160341.820000", "160343.310000", "160344.800000", "160346.290000", "160347.780000", "160349.270000", "160350.760000", "160352.250000", "160353.740000", "160355.230000", "160356.720000", "160358.210000", "160359.700000", "160401.190000", "160402.680000", "160404.170000", "160405.660000", "160407.150000", "160408.640000", "160410.130000", "160411.620000", "160413.110000", "160414.600000", "160416.090000", "160417.580000", "160419.070000", "160420.560000", "160422.050000", "160423.540000", "160425.030000", "160426.520000", "160428.010000", "160429.500000", "160430.990000", "160432.480000", "160433.970000", "160435.460000", "160436.950000", "160438.440000", "160439.930000", "160441.420000", "160442.910000", "160444.400000", "160445.890000", "160447.380000", "160448.870000", "160450.360000", "160451.850000", "160453.340000", "160454.830000", "160456.320000", "160457.810000", "160459.300000", "160500.790000", "160502.280000", "160503.770000", "160505.260000", "160506.750000", "160508.240000", "160509.730000", "160511.220000", "160512.710000", "160514.200000", "160515.690000", "160517.180000", "160518.670000", "160520.160000", "160521.650000", "160523.140000", "160524.630000", "160526.120000", "160527.610000", "160529.100000", "160530.590000", "160532.080000", "160533.570000", "160535.060000", "160536.550000", "160538.040000", "160539.530000", "160541.020000", "160542.510000", "160544.000000", "160545.490000", "160546.980000", "160548.470000", "160549.960000", "160551.450000", "160552.940000", "160554.430000", "160555.920000", "160557.410000", "160558.900000", "160600.390000", "160601.880000", "160603.370000", "160604.860000", "160606.350000", "160607.840000", "160609.330000", "160610.820000", "160612.310000", "160613.800000", "160615.290000", "160616.780000", "160618.270000", "160619.760000", "160621.250000", "160622.740000", "160624.230000", "160625.720000", "160627.210000", "160628.700000", "160630.190000", "160631.680000", "160633.170000", "160634.660000", "160636.150000", "160637.640000", "160639.130000", "160640.620000", "160642.110000", "160643.600000", "160645.090000", "160646.580000", "160648.070000", "160649.560000", "160651.050000", "160652.540000", "160654.030000", "160655.520000", "160657.010000", "160658.500000", "160659.990000", "160701.480000", "160702.970000", "160704.460000", "160705.950000", "160707.440000", "160708.930000"],
      "ContentTime": ["155710.387000", "155710.391000", "155710.394000", "155710.397000", "155710.400000", "155710.403000", "155710.406000", "155710.409000", "155710.411000", "155710.414000", "155710.417000", "155710.420000", "155710.423000", "155710.426000", "155710.432000", "155710.434000", "155710.437000", "155710.440000", "155710.443000", "155710.446000", "155730.345000", "155730.349000", "155730.352000", "155730.355000", "155730.372000", "155730.375000", "155730.378000", "155730.389000", "155730.391000", "155730.394000", "155730.397000", "155730.400000", "155730.403000", "155730.406000", "155730.408000", "155730.411000", "155730.414000", "155730.417000", "155730.420000", "155730.423000", "155730.425000", "155750.346000", "155750.352000", "155750.355000", "155750.358000", "155750.361000", "155750.363000", "155750.366000", "155750.369000", "155750.372000", "155750.375000", "155750.377000", "155750.380000", "155750.383000", "155750.386000", "155750.389000", "155750.395000", "155750.398000", "155750.400000", "155750.403000", "155750.406000", "155810.345000", "155810.348000", "155810.351000", "155810.354000", "155810.356000", "155810.359000", "155810.362000", "155810.365000", "155810.367000", "155810.370000", "155810.373000", "155810.382000", "155810.385000", "155810.388000", "155810.391000", "155810.393000", "155810.396000", "155810.399000", "155810.402000", "155810.405000", "155830.345000", "155830.348000", "155830.351000", "155830.353000", "155830.356000", "155830.359000", "155830.362000", "155830.365000", "155830.367000", "155830.370000", "155830.373000", "155830.376000", "155830.379000", "155830.381000", "155830.384000", "155830.387000", "155830.390000", "155830.393000", "155830.395000", "155830.398000", "155910.345000", "155910.348000", "155910.351000", "155910.354000", "155910.356000", "155910.359000", "155910.362000", "155910.365000", "155910.368000", "155910.370000", "155910.373000", "155910.383000", "155910.386000", "155910.388000", "155910.391000", "155910.394000", "155910.397000", "155910.400000", "155910.403000", "155910.405000", "155910.408000", "155910.411000", "155910.414000", "155910.417000", "155910.419000", "155910.422000", "155910.425000", "155910.428000", "155950.345000", "155950.348000", "155950.351000", "155950.354000", "155950.357000", "155950.359000", "155950.362000", "155950.365000", "155950.368000", "155950.371000", "155950.374000", "155950.377000", "155950.380000", "155950.382000", "155950.385000", "155950.388000", "155950.391000", "155950.394000", "155950.397000", "155950.400000", "155950.402000", "155950.405000", "155950.408000", "155950.411000", "155950.414000", "155950.417000", "155950.419000", "160030.345000", "160030.348000", "160030.351000", "160030.354000", "160030.356000", "160030.359000", "160030.362000", "160030.365000", "160030.368000", "160030.370000", "160030.373000", "160030.376000", "160030.379000", "160030.382000", "160030.385000", "160030.387000", "160030.390000", "160030.393000", "160030.405000", "160030.408000", "160030.411000", "160030.414000", "160030.416000", "160030.419000", "160030.422000", "160030.425000", "160030.428000", "160110.345000", "160110.348000", "160110.351000", "160110.354000", "160110.357000", "160110.360000", "160110.362000", "160110.365000", "160110.368000", "160110.371000", "160110.374000", "160110.377000", "160110.380000", "160110.383000", "160110.385000", "160110.388000", "160110.391000", "160110.394000", "160110.397000", "160110.400000", "160110.403000", "160110.406000", "160110.408000", "160110.411000", "160110.414000", "160110.417000", "160110.420000", "160150.345000", "160150.348000", "160150.351000", "160150.354000", "160150.356000", "160150.359000", "160150.362000", "160150.365000", "160150.368000", "160150.371000", "160150.374000", "160150.387000", "160150.390000", "160150.393000", "160150.395000", "160150.398000", "160150.401000", "160150.404000", "160150.407000", "160150.410000", "160150.413000", "160150.416000", "160150.418000", "160150.421000", "160150.424000", "160150.427000", "160150.430000", "160230.346000", "160230.349000", "160230.352000", "160230.355000", "160230.358000", "160230.361000", "160230.363000", "160230.366000", "160230.369000", "160230.372000", "160230.375000", "160230.378000", "160230.381000", "160230.384000", "160230.386000", "160230.389000", "160230.392000", "160230.395000", "160230.398000", "160230.401000", "160230.403000", "160230.406000", "160230.410000", "160230.413000", "160230.416000", "160230.419000", "160310.345000", "160310.348000", "160310.351000", "160310.354000", "160310.357000", "160310.359000", "160310.362000", "160310.365000", "160310.368000", "160310.371000", "160310.374000", "160310.377000", "160310.379000", "160310.382000", "160310.385000", "160310.388000", "160310.391000", "160310.394000", "160310.397000", "160310.400000", "160310.402000", "160310.405000", "160310.408000", "160310.411000", "160310.414000", "160310.417000", "160310.419000", "160350.345000", "160350.348000", "160350.351000", "160350.354000", "160350.356000", "160350.359000", "160350.362000", "160350.365000", "160350.368000", "160350.371000", "160350.373000", "160350.376000", "160350.390000", "160350.393000", "160350.396000", "160350.398000", "160350.401000", "160350.404000", "160350.407000", "160350.410000", "160350.413000", "160350.415000", "160350.418000", "160350.421000", "160350.424000", "160350.427000", "160350.429000", "160430.345000", "160430.348000", "160430.351000", "160430.354000", "160430.356000", "160430.359000", "160430.362000", "160430.365000", "160430.368000", "160430.371000", "160430.374000", "160430.376000", "160430.379000", "160430.382000", "160430.385000", "160430.388000", "160430.391000", "160430.393000", "160430.396000", "160430.399000", "160430.402000", "160430.405000", "160430.407000", "160430.410000", "160430.413000", "160430.416000", "160430.419000", "160510.345000", "160510.348000", "160510.351000", "160510.354000", "160510.356000", "160510.359000", "160510.362000", "160510.365000", "160510.368000", "160510.371000", "160510.374000", "160510.376000", "160510.379000", "160510.382000", "160510.385000", "160510.388000", "160510.391000", "160510.393000", "160510.396000", "160510.399000", "160510.402000", "160510.405000", "160510.407000", "160510.410000", "160510.413000", "160510.416000", "160510.419000", "160550.345000", "160550.348000", "160550.351000", "160550.354000", "160550.356000", "160550.359000", "160550.362000", "160550.365000", "160550.368000", "160550.371000", "160550.374000", "160550.376000", "160550.379000", "160550.382000", "160550.385000", "160550.388000", "160550.391000", "160550.393000", "160550.396000", "160550.399000", "160550.402000", "160550.405000", "160550.408000", "160550.411000", "160550.413000", "160550.416000", "160550.419000", "160630.345000", "160630.348000", "160630.351000", "160630.354000", "160630.357000", "160630.360000", "160630.362000", "160630.383000", "160630.386000", "160630.389000", "160630.392000", "160630.395000", "160630.398000", "160630.400000", "160630.403000", "160630.406000", "160630.409000", "160630.412000", "160630.415000", "160630.418000", "160630.421000", "160630.424000", "160630.426000", "160630.430000", "160630.433000", "160630.436000", "160710.346000", "160710.349000", "160710.352000", "160710.355000", "160710.357000", "160710.360000", "160710.363000", "160710.366000", "160710.369000", "160710.372000", "160710.374000", "160710.377000", "160710.380000", "160710.383000", "160710.386000", "160710.389000", "160710.391000", "160710.394000", "160710.397000", "160710.400000", "160710.403000", "160710.406000", "160710.408000", "160710.411000", "160710.414000", "160710.417000", "160710.420000", "160710.707000"],
