{
  "AcquisitionMatrixPE": 104,
  "AcquisitionNumber": 1,
  "AcquisitionTime": "15:41:54.487500",
  "BandwidthPerPixelPhaseEncode": 17.17,
  "BaseResolution": 104,
  "BodyPartExamined": "BRAIN",
  "CoilCombinationMethod": "Sum of Squares",
  "ConsistencyInfo": "N4_VE11C_LATEST_20160120",
  "ConversionSoftware": "dcm2niix",
  "ConversionSoftwareVersion": "v1.0.20211006",
  "DerivedVendorReportedEchoSpacing": 0.000560011,
  "DeviceSerialNumber": "167006",
  "DwellTime": 2.1e-06,
  "EchoTime": 0.037,
  "EchoTrainLength": 104,
  "EffectiveEchoSpacing": 0.000560011,
  "FlipAngle": 52,
  "HeudiconvVersion": "0.11.3.post9+gc939bf8",
  "ImageComments": "Unaliased MB4/PE3/LB",
  "ImageOrientationPatientDICOM": [0.999439, -0.021691, -0.025506, 0.0116877, 0.939874, -0.341321],
  "ImageOrientationText": "Tra>Cor(-19.9)>Sag(-1.8)",
  "ImageType": [
    "ORIGINAL",
    "PRIMARY",
    "M",
    "MB",
    "ND",
    "MOSAIC"
],
  "ImagingFrequency": 123.259,
  "InPlanePhaseEncodingDirectionDICOM": "COL",
  "InstitutionAddress": "Chemin Queen-Mary 4565,Montreal,District,CA,H3W 1W5",
  "InstitutionName": "IUGM",
  "InstitutionalDepartmentName": "Department",
  "MRAcquisitionType": "2D",
  "MagneticFieldStrength": 3,
  "Manufacturer": "Siemens",
  "ManufacturersModelName": "Prisma_fit",
  "MatrixCoilMode": "SENSE",
  "Modality": "MR",
  "MultibandAccelerationFactor": 4,
  "PartialFourier": 1,
  "PatientPosition": "HFS",
  "PercentPhaseFOV": 100,
  "PercentSampling": 100,
  "PhaseEncodingDirection": "j",
  "PhaseEncodingSteps": 104,
  "PhaseResolution": 1,
  "PixelBandwidth": 2290,
  "ProcedureStepDescription": "video^friends",
  "ProtocolName": "func_task-friends-s06e21b",
  "PulseSequenceDetails": "%CustomerSeq%\\cmrr_mbep2d_bold",
  "ReceiveCoilActiveElements": "HC1-7;NC1,2",
  "ReceiveCoilName": "HeadNeck_64",
  "ReconMatrixPE": 104,
  "RepetitionTime": 1.49,
  "SAR": 0.0587209,
  "ScanOptions": "FS",
  "ScanningSequence": "EP",
  "SequenceName": "epfid2d1_104",
  "SequenceVariant": "SK\\SS",
  "SeriesDescription": "func_task-friends-s06e21b",
  "SeriesNumber": 10,
  "ShimSetting": [617, -7259, -8837, 533, 19, -234, -59, -24],
  "SliceThickness": 2,
  "SliceTiming": [0, 0.785, 0.0975, 0.8825, 0.195, 0.98, 0.295, 1.0775, 0.3925, 1.175, 0.49, 1.275, 0.5875, 1.3725, 0.685, 0, 0.785, 0.0975, 0.8825, 0.195, 0.98, 0.295, 1.0775, 0.3925, 1.175, 0.49, 1.275, 0.5875, 1.3725, 0.685, 0, 0.785, 0.0975, 0.8825, 0.195, 0.98, 0.295, 1.0775, 0.3925, 1.175, 0.49, 1.275, 0.5875, 1.3725, 0.685, 0, 0.785, 0.0975, 0.8825, 0.195, 0.98, 0.295, 1.0775, 0.3925, 1.175, 0.49, 1.275, 0.5875, 1.3725, 0.685],
  "SoftwareVersions": "syngo MR E11",
  "SpacingBetweenSlices": 2,
  "StationName": "MRC35049",
  "TaskName": "s06e21b",
  "TotalReadoutTime": 0.0576811,
  "TxRefAmp": 275.715,
  "WipMemBlock": "b41782a9-5e5c-482d-bd77-9e27a1214e6a||Sequence: R016 ve11c/master r/e634e98; Dec 19 2017 11:00:25 by eja",
  "dcmmeta_affine": [
    [-1.9988785982131958, 0.023375321179628372, -0.06275203078985214, 101.97344207763672],
    [0.04338207095861435, 1.879747986793518, -0.6816636323928833, -75.8134994506836],
    [-0.05101194605231285, 0.6826426386833191, 1.879201054573059, -67.49491882324219],
    [0.0, 0.0, 0.0, 1.0]
],
  "dcmmeta_reorient_transform": [
    [0.0, -1.0, 0.0, 103.0],
    [1.0, 0.0, 0.0, 0.0],
    [0.0, 0.0, 1.0, 0.0],
    [0.0, 0.0, 0.0, 1.0]
],
  "dcmmeta_shape": [104, 104, 60, 494],
  "dcmmeta_slice_dim": 2,
  "dcmmeta_version": 0.6,
  "global": {
    "const": {
      "AcquisitionMatrix": [104, 0, 0, 104],
      "AngioFlag": "N",
      "BitsAllocated": 16,
      "BitsStored": 16,
      "BodyPartExamined": "BRAIN",
      "Columns": 832,
      "EchoNumbers": 1,
      "EchoTime": 37.0,
      "EchoTrainLength": 104,
      "FlipAngle": 52.0,
      "HighBit": 15,
      "ImageOrientationPatient": [0.99943931497051, -0.0216910351691, -0.0255059735078, 0.01168766102506, 0.93987401309343, -0.3413213120967],
      "ImagePositionPatient": [-840.48153963769, -786.23775835451, 269.86753795112],
      "ImageType": [
        "ORIGINAL",
        "PRIMARY",
        "M",
        "MB",
        "ND",
        "MOSAIC"
],
      "ImagedNucleus": "1H",
      "ImagingFrequency": 123.258818,
      "InPlanePhaseEncodingDirection": "COL",
      "MRAcquisitionType": "2D",
      "MagneticFieldStrength": 3.0,
      "Manufacturer": "SIEMENS",
      "ManufacturerModelName": "Prisma_fit",
      "Modality": "MR",
      "NumberOfAverages": 1.0,
      "NumberOfPhaseEncodingSteps": 104,
      "PercentPhaseFieldOfView": 100.0,
      "PercentSampling": 100.0,
      "PerformedProcedureStepStartTime": "153614.012000",
      "PhotometricInterpretation": "MONOCHROME2",
      "PixelBandwidth": 2290.0,
      "PixelRepresentation": 0,
      "PixelSpacing": [2.0, 2.0],
      "ProtocolName": "func_task-friends-s06e21b",
      "RepetitionTime": 1490.0,
      "Rows": 832,
      "SAR": 0.05872090923673,
      "SamplesPerPixel": 1,
      "ScanOptions": "FS",
      "ScanningSequence": "EP",
      "SequenceName": "epfid2d1_104",
      "SequenceVariant": [
        "SK",
        "SS"
],
      "SeriesDescription": "func_task-friends-s06e21b",
      "SeriesNumber": 10,
      "SeriesTime": "154327.871000",
      "SliceLocation": -40.778128218316,
      "SliceThickness": 2.0,
      "SmallestImagePixelValue": 0,
      "SoftwareVersions": "syngo MR E11",
      "SpacingBetweenSlices": 1.9999999717641,
      "SpecificCharacterSet": "ISO_IR 100",
      "StudyID": "1",
      "StudyTime": "153613.943000",
      "TransmitCoilName": "Body",
      "VariableFlipAngleFlag": "N",
      "WindowCenterWidthExplanation": "Algo1",
      "dBdt": 0.0},
    "slices": {}
  },
  "time": {
    "samples": {
      "AcquisitionNumber": [1, 2, 3, 4, 5, 6, 7, 8, 9, 10, 11, 12, 13, 14, 15, 16, 17, 18, 19, 20, 21, 22, 23, 24, 25, 26, 27, 28, 29, 30, 31, 32, 33, 34, 35, 36, 37, 38, 39, 40, 41, 42, 43, 44, 45, 46, 47, 48, 49, 50, 51, 52, 53, 54, 55, 56, 57, 58, 59, 60, 61, 62, 63, 64, 65, 66, 67, 68, 69, 70, 71, 72, 73, 74, 75, 76, 77, 78, 79, 80, 81, 82, 83, 84, 85, 86, 87, 88, 89, 90, 91, 92, 93, 94, 95, 96, 97, 98, 99, 100, 101, 102, 103, 104, 105, 106, 107, 108, 109, 110, 111, 112, 113, 114, 115, 116, 117, 118, 119, 120, 121, 122, 123, 124, 125, 126, 127, 128, 129, 130, 131, 132, 133, 134, 135, 136, 137, 138, 139, 140, 141, 142, 143, 144, 145, 146, 147, 148, 149, 150, 151, 152, 153, 154, 155, 156, 157, 158, 159, 160, 161, 162, 163, 164, 165, 166, 167, 168, 169, 170, 171, 172, 173, 174, 175, 176, 177, 178, 179, 180, 181, 182, 183, 184, 185, 186, 187, 188, 189, 190, 191, 192, 193, 194, 195, 196, 197, 198, 199, 200, 201, 202, 203, 204, 205, 206, 207, 208, 209, 210, 211, 212, 213, 214, 215, 216, 217, 218, 219, 220, 221, 222, 223, 224, 225, 226, 227, 228, 229, 230, 231, 232, 233, 234, 235, 236, 237, 238, 239, 240, 241, 242, 243, 244, 245, 246, 247, 248, 249, 250, 251, 252, 253, 254, 255, 256, 257, 258, 259, 260, 261, 262, 263, 264, 265, 266, 267, 268, 269, 270, 271, 272, 273, 274, 275, 276, 277, 278, 279, 280, 281, 282, 283, 284, 285, 286, 287, 288, 289, 290, 291, 292, 293, 294, 295, 296, 297, 298, 299, 300, 301, 302, 303, 304, 305, 306, 307, 308, 309, 310, 311, 312, 313, 314, 315, 316, 317, 318, 319, 320, 321, 322, 323, 324, 325, 326, 327, 328, 329, 330, 331, 332, 333, 334, 335, 336, 337, 338, 339, 340, 341, 342, 343, 344, 345, 346, 347, 348, 349, 350, 351, 352, 353, 354, 355, 356, 357, 358, 359, 360, 361, 362, 363, 364, 365, 366, 367, 368, 369, 370, 371, 372, 373, 374, 375, 376, 377, 378, 379, 380, 381, 382, 383, 384, 385, 386, 387, 388, 389, 390, 391, 392, 393, 394, 395, 396, 397, 398, 399, 400, 401, 402, 403, 404, 405, 406, 407, 408, 409, 410, 411, 412, 413, 414, 415, 416, 417, 418, 419, 420, 421, 422, 423, 424, 425, 426, 427, 428, 429, 430, 431, 432, 433, 434, 435, 436, 437, 438, 439, 440, 441, 442, 443, 444, 445, 446, 447, 448, 449, 450, 451, 452, 453, 454, 455, 456, 457, 458, 459, 460, 461, 462, 463, 464, 465, 466, 467, 468, 469, 470, 471, 472, 473, 474, 475, 476, 477, 478, 479, 480, 481, 482, 483, 484, 485, 486, 487, 488, 489, 490, 491, 492, 493, 494],
      "AcquisitionTime": ["154154.487500", "154155.977500", "154157.467500", "154158.957500", "154200.447500", "154201.937500", "154203.427500", "154204.917500", "154206.407500", "154207.897500", "154209.387500", "154210.877500", "154212.367500", "154213.857500", "154215.347500", "154216.837500", "154218.327500", "154219.817500", "154221.307500", "154222.797500", "154224.287500", "154225.777500", "154227.267500", "154228.757500", "154230.247500", "154231.737500", "154233.227500", "154234.717500", "154236.207500", "154237.697500", "154239.187500", "154240.677500", "154242.167500", "154243.657500", "154245.147500", "154246.637500", "154248.127500", "154249.617500", "154251.107500", "154252.597500", "154254.087500", "154255.577500", "154257.067500", "154258.557500", "154300.047500", "154301.537500", "154303.027500", "154304.517500", "154306.007500", "154307.497500", "154308.987500", "154310.477500", "154311.967500", "154313.457500", "154314.947500", "154316.437500", "154317.927500", "154319.417500", "154320.907500", "154322.397500", "154323.887500", "154325.377500", "154326.867500", "154328.357500", "154329.847500", "154331.337500", "154332.827500", "154334.317500", "154335.807500", "154337.297500", "154338.787500", "154340.277500", "154341.767500", "154343.257500", "154344.747500", "154346.237500", "154347.727500", "154349.217500", "154350.707500", "154352.197500", "154353.687500", "154355.177500", "154356.667500", "154358.157500", "154359.647500", "154401.137500", "154402.627500", "154404.117500", "154405.607500", "154407.097500", "154408.587500", "154410.077500", "154411.567500", "154413.057500", "154414.547500", "154416.037500", "154417.527500", "154419.017500", "154420.507500", "154421.997500", "154423.487500", "154424.977500", "154426.467500", "154427.957500", "154429.447500", "154430.937500", "154432.427500", "154433.917500", "154435.407500", "154436.897500", "154438.387500", "154439.877500", "154441.367500", "154442.857500", "154444.347500", "154445.837500", "154447.327500", "154448.817500", "154450.307500", "154451.797500", "154453.287500", "154454.777500", "154456.267500", "154457.757500", "154459.247500", "154500.737500", "154502.227500", "154503.717500", "154505.207500", "154506.697500", "154508.187500", "154509.677500", "154511.167500", "154512.657500", "154514.147500", "154515.637500", "154517.127500", "154518.617500", "154520.107500", "154521.597500", "154523.087500", "154524.577500", "154526.067500", "154527.557500", "154529.047500", "154530.537500", "154532.027500", "154533.517500", "154535.007500", "154536.497500", "154537.987500", "154539.477500", "154540.967500", "154542.457500", "154543.947500", "154545.437500", "154546.927500", "154548.417500", "154549.907500", "154551.397500", "154552.887500", "154554.377500", "154555.867500", "154557.357500", "154558.847500", "154600.337500", "154601.827500", "154603.317500", "154604.807500", "154606.297500", "154607.787500", "154609.277500", "154610.767500", "154612.257500", "154613.747500", "154615.237500", "154616.727500", "154618.217500", "154619.707500", "154621.197500", "154622.687500", "154624.177500", "154625.667500", "154627.157500", "154628.647500", "154630.137500", "154631.627500", "154633.117500", "154634.607500", "154636.097500", "154637.587500", "154639.077500", "154640.567500", "154642.057500", "154643.547500", "154645.037500", "154646.527500", "154648.017500", "154649.507500", "154650.997500", "154652.487500", "154653.977500", "154655.467500", "154656.957500", "154658.447500", "154659.937500", "154701.427500", "154702.917500", "154704.407500", "154705.897500", "154707.387500", "154708.877500", "154710.367500", "154711.857500", "154713.347500", "154714.837500", "154716.327500", "154717.817500", "154719.307500", "154720.797500", "154722.287500", "154723.777500", "154725.267500", "154726.757500", "154728.247500", "154729.737500", "154731.227500", "154732.717500", "154734.207500", "154735.697500", "154737.187500", "154738.677500", "154740.167500", "154741.657500", "154743.147500", "154744.637500", "154746.127500", "154747.617500", "154749.107500", "154750.597500", "154752.087500", "154753.577500", "154755.067500", "154756.557500", "154758.047500", "154759.537500", "154801.027500", "154802.517500", "154804.007500", "154805.497500", "154806.987500", "154808.477500", "154809.967500", "154811.457500", "154812.947500", "154814.437500", "154815.927500", "154817.417500", "154818.907500", "154820.397500", "154821.887500", "154823.377500", "154824.867500", "154826.357500", "154827.847500", "154829.337500", "154830.827500", "154832.317500", "154833.807500", "154835.297500", "154836.787500", "154838.277500", "154839.767500", "154841.257500", "154842.747500", "154844.237500", "154845.727500", "154847.217500", "154848.707500", "154850.197500", "154851.687500", "154853.177500", "154854.667500", "154856.157500", "154857.647500", "154859.137500", "154900.627500", "154902.117500", "154903.607500", "154905.097500", "154906.587500", "154908.077500", "154909.567500", "154911.057500", "154912.547500", "154914.037500", "154915.527500", "154917.017500", "154918.507500", "154919.997500", "154921.487500", "154922.977500", "154924.467500", "154925.957500", "154927.447500", "154928.937500", "154930.427500", "154931.917500", "154933.407500", "154934.897500", "154936.387500", "154937.877500", "154939.367500", "154940.857500", "154942.347500", "154943.837500", "154945.327500", "154946.817500", "154948.307500", "154949.797500", "154951.287500", "154952.777500", "154954.267500", "154955.757500", "154957.247500", "154958.737500", "155000.227500", "155001.717500", "155003.207500", "155004.697500", "155006.187500", "155007.677500", "155009.167500", "155010.657500", "155012.147500", "155013.637500", "155015.127500", "155016.617500", "155018.107500", "155019.597500", "155021.087500", "155022.577500", "155024.067500", "155025.557500", "155027.047500", "155028.537500", "155030.027500", "155031.517500", "155033.007500", "155034.497500", "155035.987500", "155037.477500", "155038.967500", "155040.457500", "155041.947500", "155043.437500", "155044.927500", "155046.417500", "155047.907500", "155049.397500", "155050.887500", "155052.377500", "155053.867500", "155055.357500", "155056.847500", "155058.337500", "155059.827500", "155101.317500", "155102.807500", "155104.297500", "155105.787500", "155107.277500", "155108.767500", "155110.257500", "155111.747500", "155113.237500", "155114.727500", "155116.217500", "155117.707500", "155119.197500", "155120.687500", "155122.177500", "155123.667500", "155125.157500", "155126.647500", "155128.137500", "155129.627500", "155131.117500", "155132.607500", "155134.097500", "155135.587500", "155137.077500", "155138.567500", "155140.057500", "155141.547500", "155143.037500", "155144.527500", "155146.017500", "155147.507500", "155148.997500", "155150.487500", "155151.977500", "155153.467500", "155154.957500", "155156.447500", "155157.937500", "155159.427500", "155200.917500", "155202.407500", "155203.897500", "155205.387500", "155206.877500", "155208.367500", "155209.857500", "155211.347500", "155212.837500", "155214.327500", "155215.817500", "155217.307500", "155218.797500", "155220.287500", "155221.777500", "155223.267500", "155224.757500", "155226.247500", "155227.737500", "155229.227500", "155230.717500", "155232.207500", "155233.697500", "155235.187500", "155236.677500", "155238.167500", "155239.657500", "155241.147500", "155242.637500", "155244.127500", "155245.617500", "155247.107500", "155248.597500", "155250.087500", "155251.577500", "155253.067500", "155254.557500", "155256.047500", "155257.537500", "155259.027500", "155300.517500", "155302.007500", "155303.497500", "155304.987500", "155306.477500", "155307.967500", "155309.457500", "155310.947500", "155312.437500", "155313.927500", "155315.417500", "155316.907500", "155318.397500", "155319.887500", "155321.377500", "155322.867500", "155324.357500", "155325.847500", "155327.337500", "155328.827500", "155330.317500", "155331.807500", "155333.297500", "155334.787500", "155336.277500", "155337.767500", "155339.257500", "155340.747500", "155342.237500", "155343.727500", "155345.217500", "155346.707500", "155348.197500", "155349.687500", "155351.177500", "155352.667500", "155354.157500", "155355.647500", "155357.137500", "155358.627500", "155400.117500", "155401.607500", "155403.097500", "155404.587500", "155406.077500", "155407.567500", "155409.057500"],
      "ContentTime": ["154327.873000", "154327.877000", "154327.879000", "154327.882000", "154327.885000", "154327.888000", "154327.891000", "154327.893000", "154327.896000", "154327.899000", "154327.902000", "154327.905000", "154327.907000", "154327.910000", "154327.913000", "154327.916000", "154327.919000", "154327.921000", "154327.924000", "154327.927000", "154327.939000", "154327.941000", "154327.944000", "154327.947000", "154327.950000", "154327.953000", "154327.956000", "154327.958000", "154327.961000", "154327.964000", "154327.967000", "154327.970000", "154327.972000", "154327.975000", "154327.978000", "154327.981000", "154327.984000", "154327.986000", "154347.836000", "154347.839000", "154347.842000", "154347.844000", "154347.847000", "154347.850000", "154347.859000", "154347.862000", "154347.865000", "154347.868000", "154347.870000", "154347.873000", "154347.876000", "154347.879000", "154347.882000", "154347.884000", "154347.887000", "154347.890000", "154347.893000", "154347.896000", "154407.835000", "154407.838000", "154407.841000", "154407.843000", "154407.846000", "154407.849000", "154407.852000", "154407.855000", "154407.857000", "154407.860000", "154407.863000", "154407.866000", "154407.869000", "154407.871000", "154407.874000", "154407.877000", "154407.880000", "154407.883000", "154407.885000", "154407.888000", "154427.836000", "154427.839000", "154427.842000", "154427.844000", "154427.847000", "154427.850000", "154427.853000", "154427.855000", "154427.858000", "154427.861000", "154427.864000", "154427.867000", "154427.870000", "154427.872000", "154427.875000", "154427.878000", "154427.881000", "154427.884000", "154427.886000", "154427.889000", "154427.892000", "154507.836000", "154507.839000", "154507.842000", "154507.845000", "154507.847000", "154507.850000", "154507.853000", "154507.856000", "154507.859000", "154507.861000", "154507.864000", "154507.867000", "154507.870000", "154507.873000", "154507.875000", "154507.878000", "154507.881000", "154507.884000", "154507.887000", "154507.889000", "154507.899000", "154507.902000", "154507.905000", "154507.908000", "154507.911000", "154507.913000", "154507.916000", "154507.919000", "154507.922000", "154507.925000", "154547.836000", "154547.839000", "154547.842000", "154547.845000", "154547.847000", "154547.861000", "154547.863000", "154547.866000", "154547.869000", "154547.872000", "154547.875000", "154547.877000", "154547.880000", "154547.883000", "154547.886000", "154547.889000", "154547.892000", "154547.894000", "154547.897000", "154547.900000", "154547.903000", "154547.906000", "154547.908000", "154547.911000", "154547.914000", "154547.917000", "154547.920000", "154627.835000", "154627.838000", "154627.840000", "154627.843000", "154627.846000", "154627.849000", "154627.852000", "154627.855000", "154627.857000", "154627.860000", "154627.863000", "154627.866000", "154627.876000", "154627.879000", "154627.881000", "154627.884000", "154627.887000", "154627.890000", "154627.893000", "154627.895000", "154627.898000", "154627.901000", "154627.904000", "154627.907000", "154627.909000", "154627.912000", "154707.836000", "154707.839000", "154707.842000", "154707.845000", "154707.847000", "154707.850000", "154707.853000", "154707.856000", "154707.859000", "154707.862000", "154707.864000", "154707.867000", "154707.870000", "154707.873000", "154707.876000", "154707.879000", "154707.881000", "154707.884000", "154707.887000", "154707.890000", "154707.893000", "154707.895000", "154707.898000", "154707.901000", "154707.904000", "154707.907000", "154707.910000", "154747.836000", "154747.839000", "154747.842000", "154747.845000", "154747.848000", "154747.851000", "154747.853000", "154747.856000", "154747.859000", "154747.862000", "154747.865000", "154747.868000", "154747.870000", "154747.873000", "154747.876000", "154747.879000", "154747.882000", "154747.885000", "154747.887000", "154747.890000", "154747.893000", "154747.896000", "154747.899000", "154747.901000", "154747.904000", "154747.907000", "154747.910000", "154827.836000", "154827.839000", "154827.842000", "154827.849000", "154827.851000", "154827.854000", "154827.857000", "154827.860000", "154827.863000", "154827.865000", "154827.868000", "154827.871000", "154827.874000", "154827.877000", "154827.880000", "154827.882000", "154827.892000", "154827.894000", "154827.897000", "154827.900000", "154827.903000", "154827.906000", "154827.908000", "154827.911000", "154827.914000", "154827.917000", "154827.920000", "154907.836000", "154907.839000", "154907.842000", "154907.845000", "154907.847000", "154907.850000", "154907.853000", "154907.856000", "154907.859000", "154907.862000", "154907.864000", "154907.867000", "154907.870000", "154907.873000", "154907.876000", "154907.878000", "154907.881000", "154907.884000", "154907.887000", "154907.890000", "154907.892000", "154907.895000", "154907.898000", "154907.901000", "154907.904000", "154907.907000", "154907.909000", "154947.836000", "154947.839000", "154947.842000", "154947.845000", "154947.848000", "154947.850000", "154947.853000", "154947.856000", "154947.859000", "154947.862000", "154947.865000", "154947.868000", "154947.870000", "154947.873000", "154947.876000", "154947.879000", "154947.882000", "154947.885000", "154947.888000", "154947.890000", "154947.893000", "154947.896000", "154947.899000", "154947.902000", "154947.905000", "154947.908000", "154947.910000", "155027.836000", "155027.839000", "155027.842000", "155027.845000", "155027.848000", "155027.851000", "155027.854000", "155027.857000", "155027.860000", "155027.863000", "155027.865000", "155027.868000", "155027.871000", "155027.874000", "155027.877000", "155027.879000", "155027.882000", "155027.885000", "155027.888000", "155027.891000", "155027.893000", "155027.896000", "155027.899000", "155027.902000", "155027.905000", "155027.907000", "155107.835000", "155107.838000", "155107.841000", "155107.844000", "155107.847000", "155107.849000", "155107.852000", "155107.855000", "155107.858000", "155107.861000", "155107.864000", "155107.867000", "155107.870000", "155107.872000", "155107.875000", "155107.878000", "155107.881000", "155107.893000", "155107.896000", "155107.899000", "155107.901000", "155107.904000", "155107.907000", "155107.910000", "155107.913000", "155107.916000", "155107.919000", "155147.836000", "155147.839000", "155147.842000", "155147.845000", "155147.847000", "155147.850000", "155147.853000", "155147.856000", "155147.859000", "155147.862000", "155147.864000", "155147.867000", "155147.870000", "155147.873000", "155147.876000", "155147.878000", "155147.881000", "155147.884000", "155147.887000", "155147.890000", "155147.893000", "155147.895000", "155147.898000", "155147.901000", "155147.904000", "155147.907000", "155147.910000", "155227.836000", "155227.839000", "155227.842000", "155227.845000", "155227.847000", "155227.850000", "155227.853000", "155227.856000", "155227.859000", "155227.862000", "155227.864000", "155227.867000", "155227.870000", "155227.873000", "155227.876000", "155227.879000", "155227.881000", "155227.884000", "155227.887000", "155227.890000", "155227.893000", "155227.896000", "155227.898000", "155227.901000", "155227.904000", "155227.907000", "155227.910000", "155307.836000", "155307.839000", "155307.842000", "155307.845000", "155307.847000", "155307.850000", "155307.853000", "155307.866000", "155307.869000", "155307.872000", "155307.875000", "155307.878000", "155307.880000", "155307.883000", "155307.886000", "155307.889000", "155307.892000", "155307.895000", "155307.897000", "155307.900000", "155307.903000", "155307.906000", "155307.909000", "155307.912000", "155307.914000", "155307.917000", "155307.920000", "155347.836000", "155347.839000", "155347.842000", "155347.845000", "155347.847000", "155347.850000", "155347.853000", "155347.856000", "155347.859000", "155347.862000", "155347.864000", "155347.867000", "155347.870000", "155347.873000", "155347.876000", "155347.879000", "155347.881000", "155347.884000", "155347.887000", "155347.890000", "155347.893000", "155347.896000", "155347.899000", "155347.902000", "155347.913000", "155347.916000", "155347.919000", "155411.404000", "155411.408000", "155411.411000", "155411.413000", "155411.416000", "155411.419000", "155411.422000", "155411.425000", "155411.428000", "155411.431000", "155411.434000", "155411.437000", "155411.440000", "155411.443000", "155411.446000", "155411.449000"],
