{
  "AcquisitionMatrixPE": 104,
  "AcquisitionNumber": 1,
  "AcquisitionTime": "11:16:52.110000",
  "BandwidthPerPixelPhaseEncode": 17.17,
  "BaseResolution": 104,
  "BodyPartExamined": "BRAIN",
  "CoilCombinationMethod": "Sum of Squares",
  "ConsistencyInfo": "N4_VE11C_LATEST_20160120",
  "ConversionSoftware": "dcm2niix",
  "ConversionSoftwareVersion": "v1.0.20230411",
  "DerivedVendorReportedEchoSpacing": 0.000560011,
  "DeviceSerialNumber": "167006",
  "DwellTime": 2.1e-06,
  "EchoTime": 0.037,
  "EchoTrainLength": 104,
  "EffectiveEchoSpacing": 0.000560011,
  "FlipAngle": 52,
  "HeudiconvVersion": "0.5.3.post861+ge7d3c7f",
  "ImageComments": "Unaliased MB4/PE3/LB",
  "ImageOrientationPatientDICOM": [0.995692, 0.086551, 0.0332737, -0.0727695, 0.951754, -0.29811],
  "ImageOrientationText": "Tra>Cor(-17.2)>Sag(3.3)",
  "ImageType": [
    "ORIGINAL",
    "PRIMARY",
    "M",
    "MB",
    "ND",
    "MOSAIC"
],
  "ImagingFrequency": 123.249544,
  "InPlanePhaseEncodingDirectionDICOM": "COL",
  "InstitutionAddress": "Chemin Queen-Mary 4565,Montreal,District,CA,H3W 1W5",
  "InstitutionName": "Institut Universitaire de Geriatrie de Montreal",
  "InstitutionalDepartmentName": "Department",
  "MRAcquisitionType": "2D",
  "MagneticFieldStrength": 3,
  "Manufacturer": "Siemens",
  "ManufacturersModelName": "Prisma_fit",
  "MatrixCoilMode": "SENSE",
  "Modality": "MR",
  "MultibandAccelerationFactor": 4,
  "NonlinearGradientCorrection": false,
  "PartialFourier": 1,
  "PatientPosition": "HFS",
  "PercentPhaseFOV": 100,
  "PercentSampling": 100,
  "PhaseEncodingDirection": "j",
  "PhaseEncodingSteps": 104,
  "PhaseResolution": 1,
  "PixelBandwidth": 2290,
  "ProcedureStepDescription": "video^friends",
  "ProtocolName": "func_task-friends-s07e23b",
  "PulseSequenceDetails": "%CustomerSeq%\\cmrr_mbep2d_bold",
  "ReceiveCoilActiveElements": "HC1-7;NC1,2",
  "ReceiveCoilName": "HeadNeck_64",
  "ReconMatrixPE": 104,
  "RepetitionTime": 1.49,
  "SAR": 0.0799752,
  "ScanOptions": "FS",
  "ScanningSequence": "EP",
  "SequenceName": "epfid2d1_104",
  "SequenceVariant": "SK\\SS",
  "SeriesDescription": "func_task-friends-s07e23b",
  "SeriesNumber": 12,
  "ShimSetting": [625, -7212, -8792, 652, 145, 10, -59, 51],
  "SliceThickness": 2,
  "SliceTiming": [0, 0.785, 0.1, 0.8825, 0.1975, 0.98, 0.295, 1.0775, 0.3925, 1.1775, 0.49, 1.275, 0.5875, 1.3725, 0.6875, 0, 0.785, 0.1, 0.8825, 0.1975, 0.98, 0.295, 1.0775, 0.3925, 1.1775, 0.49, 1.275, 0.5875, 1.3725, 0.6875, 0, 0.785, 0.1, 0.8825, 0.1975, 0.98, 0.295, 1.0775, 0.3925, 1.1775, 0.49, 1.275, 0.5875, 1.3725, 0.6875, 0, 0.785, 0.1, 0.8825, 0.1975, 0.98, 0.295, 1.0775, 0.3925, 1.1775, 0.49, 1.275, 0.5875, 1.3725, 0.6875],
  "SoftwareVersions": "syngo MR E11",
  "SpacingBetweenSlices": 2,
  "StationName": "MRC35049",
  "TaskName": "s07e23b",
  "TotalReadoutTime": 0.0576811,
  "TxRefAmp": 302.575,
  "WipMemBlock": "465e3753-f2b3-49d5-bec3-343170c50dca||Sequence: R017 ve11c/master r/75a17815+; Jun 28 2022 16:32:11 by eja",
  "dcmmeta_affine": [
    [-1.9913831949234009, -0.1455390453338623, 0.11494020372629166, 107.28140258789062],
    [-0.1731019914150238, 1.9035073518753052, -0.5888084173202515, -62.999202728271484],
    [0.0665474608540535, 0.5962197184562683, 1.9079029560089111, -53.85689163208008],
    [0.0, 0.0, 0.0, 1.0]
],
  "dcmmeta_reorient_transform": [
    [0.0, -1.0, 0.0, 103.0],
    [1.0, 0.0, 0.0, 0.0],
    [0.0, 0.0, 1.0, 0.0],
    [0.0, 0.0, 0.0, 1.0]
],
  "dcmmeta_shape": [104, 104, 60, 484],
  "dcmmeta_slice_dim": 2,
  "dcmmeta_version": 0.6,
  "global": {
    "const": {
      "AcquisitionMatrix": [104, 0, 0, 104],
      "AngioFlag": "N",
      "BitsAllocated": 16,
      "BitsStored": 16,
      "BodyPartExamined": "BRAIN",
      "Columns": 832,
      "EchoNumbers": 1,
      "EchoTime": 37.0,
      "EchoTrainLength": 104,
      "FlipAngle": 52.0,
      "HighBit": 15,
      "ImageOrientationPatient": [0.99569161084781, 0.08655099693622, 0.03327372862541, -0.0727695236868, 0.9517536968868, -0.2981098738464],
      "ImagePositionPatient": [-764.17816332671, -888.94787630872, 200.35445506567],
      "ImageType": [
        "ORIGINAL",
        "PRIMARY",
        "M",
        "MB",
        "ND",
        "MOSAIC"
],
      "ImagedNucleus": "1H",
      "ImagingFrequency": 123.249544,
      "InPlanePhaseEncodingDirection": "COL",
      "MRAcquisitionType": "2D",
      "MagneticFieldStrength": 3.0,
      "Manufacturer": "SIEMENS",
      "ManufacturerModelName": "Prisma_fit",
      "Modality": "MR",
      "NumberOfAverages": 1.0,
      "NumberOfPhaseEncodingSteps": 104,
      "PercentPhaseFieldOfView": 100.0,
      "PercentSampling": 100.0,
      "PerformedProcedureStepStartTime": "103114.788000",
      "PhotometricInterpretation": "MONOCHROME2",
      "PixelBandwidth": 2290.0,
      "PixelRepresentation": 0,
      "PixelSpacing": [2.0, 2.0],
      "ProtocolName": "func_task-friends-s07e23b",
      "RepetitionTime": 1490.0,
      "Rows": 832,
      "SAR": 0.07997524722583,
      "SamplesPerPixel": 1,
      "ScanOptions": "FS",
      "ScanningSequence": "EP",
      "SequenceName": "epfid2d1_104",
      "SequenceVariant": [
        "SK",
        "SS"
],
      "SeriesDescription": "func_task-friends-s07e23b",
      "SeriesNumber": 12,
      "SeriesTime": "111802.144000",
      "SliceLocation": -26.664158476623,
      "SliceThickness": 2.0,
      "SmallestImagePixelValue": 0,
      "SoftwareVersions": "syngo MR E11",
      "SpacingBetweenSlices": 2.0000000593363,
      "SpecificCharacterSet": "ISO_IR 100",
      "StudyID": "1",
      "StudyTime": "103114.672000",
      "TransmitCoilName": "Body",
      "VariableFlipAngleFlag": "N",
      "WindowCenterWidthExplanation": "Algo1",
      "dBdt": 0.0},
    "slices": {}
  },
  "time": {
    "samples": {
      "AcquisitionNumber": [1, 2, 3, 4, 5, 6, 7, 8, 9, 10, 11, 12, 13, 14, 15, 16, 17, 18, 19, 20, 21, 22, 23, 24, 25, 26, 27, 28, 29, 30, 31, 32, 33, 34, 35, 36, 37, 38, 39, 40, 41, 42, 43, 44, 45, 46, 47, 48, 49, 50, 51, 52, 53, 54, 55, 56, 57, 58, 59, 60, 61, 62, 63, 64, 65, 66, 67, 68, 69, 70, 71, 72, 73, 74, 75, 76, 77, 78, 79, 80, 81, 82, 83, 84, 85, 86, 87, 88, 89, 90, 91, 92, 93, 94, 95, 96, 97, 98, 99, 100, 101, 102, 103, 104, 105, 106, 107, 108, 109, 110, 111, 112, 113, 114, 115, 116, 117, 118, 119, 120, 121, 122, 123, 124, 125, 126, 127, 128, 129, 130, 131, 132, 133, 134, 135, 136, 137, 138, 139, 140, 141, 142, 143, 144, 145, 146, 147, 148, 149, 150, 151, 152, 153, 154, 155, 156, 157, 158, 159, 160, 161, 162, 163, 164, 165, 166, 167, 168, 169, 170, 171, 172, 173, 174, 175, 176, 177, 178, 179, 180, 181, 182, 183, 184, 185, 186, 187, 188, 189, 190, 191, 192, 193, 194, 195, 196, 197, 198, 199, 200, 201, 202, 203, 204, 205, 206, 207, 208, 209, 210, 211, 212, 213, 214, 215, 216, 217, 218, 219, 220, 221, 222, 223, 224, 225, 226, 227, 228, 229, 230, 231, 232, 233, 234, 235, 236, 237, 238, 239, 240, 241, 242, 243, 244, 245, 246, 247, 248, 249, 250, 251, 252, 253, 254, 255, 256, 257, 258, 259, 260, 261, 262, 263, 264, 265, 266, 267, 268, 269, 270, 271, 272, 273, 274, 275, 276, 277, 278, 279, 280, 281, 282, 283, 284, 285, 286, 287, 288, 289, 290, 291, 292, 293, 294, 295, 296, 297, 298, 299, 300, 301, 302, 303, 304, 305, 306, 307, 308, 309, 310, 311, 312, 313, 314, 315, 316, 317, 318, 319, 320, 321, 322, 323, 324, 325, 326, 327, 328, 329, 330, 331, 332, 333, 334, 335, 336, 337, 338, 339, 340, 341, 342, 343, 344, 345, 346, 347, 348, 349, 350, 351, 352, 353, 354, 355, 356, 357, 358, 359, 360, 361, 362, 363, 364, 365, 366, 367, 368, 369, 370, 371, 372, 373, 374, 375, 376, 377, 378, 379, 380, 381, 382, 383, 384, 385, 386, 387, 388, 389, 390, 391, 392, 393, 394, 395, 396, 397, 398, 399, 400, 401, 402, 403, 404, 405, 406, 407, 408, 409, 410, 411, 412, 413, 414, 415, 416, 417, 418, 419, 420, 421, 422, 423, 424, 425, 426, 427, 428, 429, 430, 431, 432, 433, 434, 435, 436, 437, 438, 439, 440, 441, 442, 443, 444, 445, 446, 447, 448, 449, 450, 451, 452, 453, 454, 455, 456, 457, 458, 459, 460, 461, 462, 463, 464, 465, 466, 467, 468, 469, 470, 471, 472, 473, 474, 475, 476, 477, 478, 479, 480, 481, 482, 483, 484],
      "AcquisitionTime": ["111652.110000", "111653.600000", "111655.090000", "111656.580000", "111658.070000", "111659.560000", "111701.050000", "111702.540000", "111704.030000", "111705.520000", "111707.010000", "111708.500000", "111709.990000", "111711.480000", "111712.970000", "111714.460000", "111715.950000", "111717.440000", "111718.930000", "111720.420000", "111721.910000", "111723.400000", "111724.890000", "111726.380000", "111727.870000", "111729.360000", "111730.850000", "111732.340000", "111733.830000", "111735.320000", "111736.810000", "111738.300000", "111739.790000", "111741.280000", "111742.770000", "111744.260000", "111745.750000", "111747.240000", "111748.730000", "111750.220000", "111751.710000", "111753.200000", "111754.690000", "111756.180000", "111757.670000", "111759.160000", "111800.650000", "111802.140000", "111803.630000", "111805.120000", "111806.610000", "111808.100000", "111809.590000", "111811.080000", "111812.570000", "111814.060000", "111815.550000", "111817.040000", "111818.530000", "111820.020000", "111821.510000", "111823.000000", "111824.490000", "111825.980000", "111827.470000", "111828.960000", "111830.450000", "111831.940000", "111833.430000", "111834.920000", "111836.410000", "111837.900000", "111839.390000", "111840.880000", "111842.370000", "111843.860000", "111845.350000", "111846.840000", "111848.330000", "111849.820000", "111851.310000", "111852.800000", "111854.290000", "111855.780000", "111857.270000", "111858.760000", "111900.250000", "111901.740000", "111903.230000", "111904.720000", "111906.210000", "111907.700000", "111909.190000", "111910.680000", "111912.170000", "111913.660000", "111915.150000", "111916.640000", "111918.130000", "111919.620000", "111921.110000", "111922.600000", "111924.090000", "111925.580000", "111927.070000", "111928.560000", "111930.050000", "111931.540000", "111933.030000", "111934.520000", "111936.010000", "111937.500000", "111938.990000", "111940.480000", "111941.970000", "111943.460000", "111944.950000", "111946.440000", "111947.930000", "111949.420000", "111950.910000", "111952.400000", "111953.890000", "111955.380000", "111956.870000", "111958.360000", "111959.850000", "112001.340000", "112002.830000", "112004.320000", "112005.810000", "112007.300000", "112008.790000", "112010.280000", "112011.770000", "112013.260000", "112014.750000", "112016.240000", "112017.730000", "112019.220000", "112020.710000", "112022.200000", "112023.690000", "112025.180000", "112026.670000", "112028.160000", "112029.650000", "112031.140000", "112032.630000", "112034.120000", "112035.610000", "112037.100000", "112038.590000", "112040.080000", "112041.570000", "112043.060000", "112044.550000", "112046.040000", "112047.530000", "112049.020000", "112050.510000", "112052.000000", "112053.490000", "112054.980000", "112056.470000", "112057.960000", "112059.450000", "112100.940000", "112102.430000", "112103.920000", "112105.410000", "112106.900000", "112108.390000", "112109.880000", "112111.370000", "112112.860000", "112114.350000", "112115.840000", "112117.330000", "112118.820000", "112120.310000", "112121.800000", "112123.290000", "112124.780000", "112126.270000", "112127.760000", "112129.250000", "112130.740000", "112132.230000", "112133.720000", "112135.210000", "112136.700000", "112138.190000", "112139.680000", "112141.170000", "112142.660000", "112144.150000", "112145.640000", "112147.130000", "112148.620000", "112150.110000", "112151.600000", "112153.090000", "112154.580000", "112156.070000", "112157.560000", "112159.050000", "112200.540000", "112202.030000", "112203.520000", "112205.010000", "112206.500000", "112207.990000", "112209.480000", "112210.970000", "112212.460000", "112213.950000", "112215.440000", "112216.930000", "112218.420000", "112219.910000", "112221.400000", "112222.890000", "112224.380000", "112225.870000", "112227.360000", "112228.850000", "112230.340000", "112231.830000", "112233.320000", "112234.810000", "112236.300000", "112237.790000", "112239.280000", "112240.770000", "112242.260000", "112243.750000", "112245.240000", "112246.730000", "112248.220000", "112249.710000", "112251.200000", "112252.690000", "112254.180000", "112255.670000", "112257.160000", "112258.650000", "112300.140000", "112301.630000", "112303.120000", "112304.610000", "112306.100000", "112307.590000", "112309.080000", "112310.570000", "112312.060000", "112313.550000", "112315.040000", "112316.530000", "112318.020000", "112319.510000", "112321.000000", "112322.490000", "112323.980000", "112325.470000", "112326.960000", "112328.450000", "112329.940000", "112331.430000", "112332.920000", "112334.410000", "112335.900000", "112337.390000", "112338.880000", "112340.370000", "112341.860000", "112343.350000", "112344.840000", "112346.330000", "112347.820000", "112349.310000", "112350.800000", "112352.290000", "112353.780000", "112355.270000", "112356.760000", "112358.250000", "112359.740000", "112401.230000", "112402.720000", "112404.210000", "112405.700000", "112407.190000", "112408.680000", "112410.170000", "112411.660000", "112413.150000", "112414.640000", "112416.130000", "112417.620000", "112419.110000", "112420.600000", "112422.090000", "112423.580000", "112425.070000", "112426.560000", "112428.050000", "112429.540000", "112431.030000", "112432.520000", "112434.010000", "112435.500000", "112436.990000", "112438.480000", "112439.970000", "112441.460000", "112442.950000", "112444.440000", "112445.930000", "112447.420000", "112448.910000", "112450.400000", "112451.890000", "112453.380000", "112454.870000", "112456.360000", "112457.850000", "112459.340000", "112500.830000", "112502.320000", "112503.810000", "112505.300000", "112506.790000", "112508.280000", "112509.770000", "112511.260000", "112512.750000", "112514.240000", "112515.730000", "112517.220000", "112518.710000", "112520.200000", "112521.690000", "112523.180000", "112524.670000", "112526.160000", "112527.650000", "112529.140000", "112530.630000", "112532.120000", "112533.610000", "112535.100000", "112536.590000", "112538.080000", "112539.570000", "112541.060000", "112542.550000", "112544.040000", "112545.530000", "112547.020000", "112548.510000", "112550.000000", "112551.490000", "112552.980000", "112554.470000", "112555.960000", "112557.450000", "112558.940000", "112600.430000", "112601.920000", "112603.410000", "112604.900000", "112606.390000", "112607.880000", "112609.370000", "112610.860000", "112612.350000", "112613.840000", "112615.330000", "112616.820000", "112618.310000", "112619.800000", "112621.290000", "112622.780000", "112624.270000", "112625.760000", "112627.250000", "112628.740000", "112630.230000", "112631.720000", "112633.210000", "112634.700000", "112636.190000", "112637.680000", "112639.170000", "112640.660000", "112642.150000", "112643.640000", "112645.130000", "112646.620000", "112648.110000", "112649.600000", "112651.090000", "112652.580000", "112654.070000", "112655.560000", "112657.050000", "112658.540000", "112700.030000", "112701.520000", "112703.010000", "112704.500000", "112705.990000", "112707.480000", "112708.970000", "112710.460000", "112711.950000", "112713.440000", "112714.930000", "112716.420000", "112717.910000", "112719.400000", "112720.890000", "112722.380000", "112723.870000", "112725.360000", "112726.850000", "112728.340000", "112729.830000", "112731.320000", "112732.810000", "112734.300000", "112735.790000", "112737.280000", "112738.770000", "112740.260000", "112741.750000", "112743.240000", "112744.730000", "112746.220000", "112747.710000", "112749.200000", "112750.690000", "112752.180000", "112753.670000", "112755.160000", "112756.650000", "112758.140000", "112759.630000", "112801.120000", "112802.610000", "112804.100000", "112805.590000", "112807.080000", "112808.570000", "112810.060000", "112811.550000", "112813.040000", "112814.530000", "112816.020000", "112817.510000", "112819.000000", "112820.490000", "112821.980000", "112823.470000", "112824.960000", "112826.450000", "112827.940000", "112829.430000", "112830.920000", "112832.410000", "112833.900000", "112835.390000", "112836.880000", "112838.370000", "112839.860000", "112841.350000", "112842.840000", "112844.330000", "112845.820000", "112847.310000", "112848.800000", "112850.290000", "112851.780000"],
      "ContentTime": ["111802.147000", "111802.150000", "111802.153000", "111802.156000", "111802.159000", "111802.162000", "111802.170000", "111802.173000", "111802.176000", "111802.179000", "111802.182000", "111802.185000", "111802.189000", "111802.192000", "111802.194000", "111802.197000", "111802.200000", "111802.203000", "111802.206000", "111802.209000", "111802.212000", "111822.111000", "111822.114000", "111822.117000", "111822.120000", "111822.123000", "111822.126000", "111822.129000", "111822.132000", "111822.135000", "111822.138000", "111822.141000", "111822.144000", "111822.147000", "111822.149000", "111822.153000", "111822.155000", "111822.158000", "111822.161000", "111822.164000", "111822.167000", "111842.111000", "111842.114000", "111842.117000", "111842.120000", "111842.123000", "111842.126000", "111842.129000", "111842.132000", "111842.135000", "111842.138000", "111842.141000", "111842.144000", "111842.147000", "111842.150000", "111842.153000", "111842.162000", "111842.166000", "111842.168000", "111842.171000", "111842.174000", "111902.111000", "111902.114000", "111902.117000", "111902.120000", "111902.123000", "111902.126000", "111902.129000", "111902.132000", "111902.135000", "111902.138000", "111902.141000", "111902.144000", "111902.147000", "111902.150000", "111902.153000", "111902.156000", "111902.159000", "111902.162000", "111902.165000", "111902.168000", "111902.171000", "111942.111000", "111942.114000", "111942.117000", "111942.120000", "111942.123000", "111942.126000", "111942.129000", "111942.132000", "111942.135000", "111942.138000", "111942.141000", "111942.147000", "111942.150000", "111942.152000", "111942.155000", "111942.158000", "111942.161000", "111942.164000", "111942.167000", "111942.170000", "111942.173000", "111942.176000", "111942.179000", "111942.182000", "111942.185000", "111942.188000", "111942.191000", "111942.194000", "111942.197000", "111942.200000", "111942.203000", "111942.206000", "112022.111000", "112022.114000", "112022.117000", "112022.120000", "112022.123000", "112022.126000", "112022.129000", "112022.132000", "112022.135000", "112022.138000", "112022.141000", "112022.144000", "112022.147000", "112022.150000", "112022.153000", "112022.156000", "112022.159000", "112022.162000", "112022.165000", "112022.168000", "112022.171000", "112022.180000", "112022.183000", "112022.186000", "112022.189000", "112022.192000", "112102.111000", "112102.114000", "112102.117000", "112102.120000", "112102.123000", "112102.126000", "112102.129000", "112102.132000", "112102.135000", "112102.138000", "112102.141000", "112102.144000", "112102.147000", "112102.150000", "112102.153000", "112102.156000", "112102.159000", "112102.162000", "112102.165000", "112102.168000", "112102.171000", "112102.174000", "112102.176000", "112102.179000", "112102.182000", "112102.185000", "112102.188000", "112142.111000", "112142.114000", "112142.117000", "112142.120000", "112142.123000", "112142.126000", "112142.129000", "112142.132000", "112142.135000", "112142.138000", "112142.141000", "112142.144000", "112142.147000", "112142.150000", "112142.153000", "112142.156000", "112142.159000", "112142.162000", "112142.165000", "112142.168000", "112142.171000", "112142.174000", "112142.177000", "112142.180000", "112142.183000", "112142.186000", "112142.189000", "112222.111000", "112222.114000", "112222.117000", "112222.120000", "112222.123000", "112222.126000", "112222.143000", "112222.146000", "112222.149000", "112222.152000", "112222.155000", "112222.158000", "112222.161000", "112222.164000", "112222.167000", "112222.170000", "112222.173000", "112222.176000", "112222.179000", "112222.182000", "112222.185000", "112222.188000", "112222.191000", "112222.194000", "112222.196000", "112222.200000", "112222.202000", "112302.111000", "112302.114000", "112302.117000", "112302.120000", "112302.123000", "112302.126000", "112302.129000", "112302.132000", "112302.135000", "112302.138000", "112302.141000", "112302.144000", "112302.147000", "112302.150000", "112302.153000", "112302.156000", "112302.159000", "112302.162000", "112302.165000", "112302.168000", "112302.171000", "112302.174000", "112302.176000", "112302.179000", "112302.182000", "112302.185000", "112302.188000", "112322.111000", "112322.114000", "112322.117000", "112322.120000", "112322.123000", "112322.126000", "112322.129000", "112322.132000", "112322.135000", "112322.138000", "112322.141000", "112322.144000", "112322.147000", "112402.111000", "112402.114000", "112402.117000", "112402.120000", "112402.123000", "112402.126000", "112402.129000", "112402.132000", "112402.135000", "112402.138000", "112402.141000", "112402.144000", "112402.147000", "112402.150000", "112402.153000", "112402.156000", "112402.159000", "112402.162000", "112402.165000", "112402.168000", "112402.171000", "112402.174000", "112402.177000", "112402.180000", "112402.184000", "112402.186000", "112402.189000", "112442.111000", "112442.114000", "112442.117000", "112442.120000", "112442.123000", "112442.126000", "112442.129000", "112442.132000", "112442.135000", "112442.138000", "112442.141000", "112442.144000", "112442.147000", "112442.150000", "112442.153000", "112442.156000", "112442.159000", "112442.162000", "112442.165000", "112442.168000", "112442.171000", "112442.174000", "112442.177000", "112442.180000", "112442.183000", "112442.186000", "112442.189000", "112522.111000", "112522.114000", "112522.117000", "112522.120000", "112522.123000", "112522.126000", "112522.129000", "112522.132000", "112522.135000", "112522.138000", "112522.141000", "112522.144000", "112522.147000", "112522.150000", "112522.153000", "112522.156000", "112522.159000", "112522.162000", "112522.165000", "112522.168000", "112522.171000", "112522.174000", "112522.177000", "112522.180000", "112522.183000", "112522.186000", "112522.189000", "112602.111000", "112602.114000", "112602.117000", "112602.120000", "112602.123000", "112602.126000", "112602.137000", "112602.140000", "112602.143000", "112602.146000", "112602.149000", "112602.152000", "112602.155000", "112602.158000", "112602.161000", "112602.164000", "112602.167000", "112602.170000", "112602.173000", "112602.176000", "112602.178000", "112602.181000", "112602.184000", "112602.187000", "112602.190000", "112602.193000", "112602.196000", "112642.111000", "112642.114000", "112642.117000", "112642.120000", "112642.123000", "112642.126000", "112642.129000", "112642.132000", "112642.135000", "112642.138000", "112642.141000", "112642.144000", "112642.147000", "112642.150000", "112642.153000", "112642.156000", "112642.159000", "112642.162000", "112642.165000", "112642.168000", "112642.171000", "112642.174000", "112642.177000", "112642.180000", "112642.183000", "112642.186000", "112642.189000", "112722.111000", "112722.114000", "112722.117000", "112722.120000", "112722.123000", "112722.126000", "112722.129000", "112722.132000", "112722.135000", "112722.138000", "112722.141000", "112722.144000", "112722.147000", "112722.150000", "112722.153000", "112722.156000", "112722.159000", "112722.162000", "112722.165000", "112722.168000", "112722.171000", "112722.174000", "112722.177000", "112722.180000", "112722.184000", "112722.187000", "112802.111000", "112802.114000", "112802.117000", "112802.120000", "112802.123000", "112802.126000", "112802.129000", "112802.132000", "112802.135000", "112802.138000", "112802.141000", "112802.144000", "112802.147000", "112802.150000", "112802.153000", "112802.156000", "112802.159000", "112802.162000", "112802.165000", "112802.168000", "112802.171000", "112802.175000", "112802.177000", "112802.180000", "112802.183000", "112802.186000", "112802.189000", "112842.111000", "112842.114000", "112842.117000", "112842.120000", "112842.123000", "112842.126000", "112842.129000", "112842.132000", "112842.135000", "112842.138000", "112842.141000", "112842.149000", "112842.152000", "112842.155000", "112842.158000", "112842.161000", "112842.164000", "112842.167000", "112842.170000", "112842.172000", "112842.176000", "112842.179000", "112842.181000", "112842.184000", "112842.187000", "112842.190000", "112842.193000", "112853.250000", "112853.259000", "112853.262000", "112853.265000", "112853.268000", "112853.271000", "112853.274000", "112853.277000"],
