{
  "AcquisitionMatrixPE": 104,
  "AcquisitionNumber": 1,
  "AcquisitionTime": "11:30:34.487500",
  "BandwidthPerPixelPhaseEncode": 17.17,
  "BaseResolution": 104,
  "BodyPartExamined": "BRAIN",
  "CoilCombinationMethod": "Sum of Squares",
  "ConsistencyInfo": "N4_VE11C_LATEST_20160120",
  "ConversionSoftware": "dcm2niix",
  "ConversionSoftwareVersion": "v1.0.20230411",
  "DerivedVendorReportedEchoSpacing": 0.000560011,
  "DeviceSerialNumber": "167006",
  "DwellTime": 2.1e-06,
  "EchoTime": 0.037,
  "EchoTrainLength": 104,
  "EffectiveEchoSpacing": 0.000560011,
  "FlipAngle": 52,
  "HeudiconvVersion": "0.5.3.post861+ge7d3c7f",
  "ImageComments": "Unaliased MB4/PE3/LB",
  "ImageOrientationPatientDICOM": [0.995692, 0.086551, 0.0332737, -0.0727695, 0.951754, -0.29811],
  "ImageOrientationText": "Tra>Cor(-17.2)>Sag(3.3)",
  "ImageType": [
    "ORIGINAL",
    "PRIMARY",
    "M",
    "MB",
    "ND",
    "MOSAIC"
],
  "ImagingFrequency": 123.249547,
  "InPlanePhaseEncodingDirectionDICOM": "COL",
  "InstitutionAddress": "Chemin Queen-Mary 4565,Montreal,District,CA,H3W 1W5",
  "InstitutionName": "Institut Universitaire de Geriatrie de Montreal",
  "InstitutionalDepartmentName": "Department",
  "MRAcquisitionType": "2D",
  "MagneticFieldStrength": 3,
  "Manufacturer": "Siemens",
  "ManufacturersModelName": "Prisma_fit",
  "MatrixCoilMode": "SENSE",
  "Modality": "MR",
  "MultibandAccelerationFactor": 4,
  "NonlinearGradientCorrection": false,
  "PartialFourier": 1,
  "PatientPosition": "HFS",
  "PercentPhaseFOV": 100,
  "PercentSampling": 100,
  "PhaseEncodingDirection": "j",
  "PhaseEncodingSteps": 104,
  "PhaseResolution": 1,
  "PixelBandwidth": 2290,
  "ProcedureStepDescription": "video^friends",
  "ProtocolName": "func_task-friends-s07e23c",
  "PulseSequenceDetails": "%CustomerSeq%\\cmrr_mbep2d_bold",
  "ReceiveCoilActiveElements": "HC1-7;NC1,2",
  "ReceiveCoilName": "HeadNeck_64",
  "ReconMatrixPE": 104,
  "RepetitionTime": 1.49,
  "SAR": 0.0799752,
  "ScanOptions": "FS",
  "ScanningSequence": "EP",
  "SequenceName": "epfid2d1_104",
  "SequenceVariant": "SK\\SS",
  "SeriesDescription": "func_task-friends-s07e23c",
  "SeriesNumber": 14,
  "ShimSetting": [625, -7212, -8792, 652, 145, 10, -59, 51],
  "SliceThickness": 2,
  "SliceTiming": [0, 0.785, 0.0975, 0.8825, 0.195, 0.98, 0.295, 1.0775, 0.3925, 1.175, 0.49, 1.275, 0.5875, 1.3725, 0.685, 0, 0.785, 0.0975, 0.8825, 0.195, 0.98, 0.295, 1.0775, 0.3925, 1.175, 0.49, 1.275, 0.5875, 1.3725, 0.685, 0, 0.785, 0.0975, 0.8825, 0.195, 0.98, 0.295, 1.0775, 0.3925, 1.175, 0.49, 1.275, 0.5875, 1.3725, 0.685, 0, 0.785, 0.0975, 0.8825, 0.195, 0.98, 0.295, 1.0775, 0.3925, 1.175, 0.49, 1.275, 0.5875, 1.3725, 0.685],
  "SoftwareVersions": "syngo MR E11",
  "SpacingBetweenSlices": 2,
  "StationName": "MRC35049",
  "TaskName": "s07e23c",
  "TotalReadoutTime": 0.0576811,
  "TxRefAmp": 302.575,
  "WipMemBlock": "11f610d1-5421-4276-ad67-448fe7fba16f||Sequence: R017 ve11c/master r/75a17815+; Jun 28 2022 16:32:11 by eja",
  "dcmmeta_affine": [
    [-1.9913831949234009, -0.1455390453338623, 0.11494020372629166, 107.28140258789062],
    [-0.1731019914150238, 1.9035073518753052, -0.5888084173202515, -62.999202728271484],
    [0.0665474608540535, 0.5962197184562683, 1.9079029560089111, -53.85689163208008],
    [0.0, 0.0, 0.0, 1.0]
],
  "dcmmeta_reorient_transform": [
    [0.0, -1.0, 0.0, 103.0],
    [1.0, 0.0, 0.0, 0.0],
    [0.0, 0.0, 1.0, 0.0],
    [0.0, 0.0, 0.0, 1.0]
],
  "dcmmeta_shape": [104, 104, 60, 484],
  "dcmmeta_slice_dim": 2,
  "dcmmeta_version": 0.6,
  "global": {
    "const": {
      "AcquisitionMatrix": [104, 0, 0, 104],
      "AngioFlag": "N",
      "BitsAllocated": 16,
      "BitsStored": 16,
      "BodyPartExamined": "BRAIN",
      "Columns": 832,
      "EchoNumbers": 1,
      "EchoTime": 37.0,
      "EchoTrainLength": 104,
      "FlipAngle": 52.0,
      "HighBit": 15,
      "ImageOrientationPatient": [0.99569161084781, 0.08655099693622, 0.03327372862541, -0.0727695236868, 0.9517536968868, -0.2981098738464],
      "ImagePositionPatient": [-764.17816332671, -888.94787630872, 200.35445506567],
      "ImageType": [
        "ORIGINAL",
        "PRIMARY",
        "M",
        "MB",
        "ND",
        "MOSAIC"
],
      "ImagedNucleus": "1H",
      "ImagingFrequency": 123.249547,
      "InPlanePhaseEncodingDirection": "COL",
      "MRAcquisitionType": "2D",
      "MagneticFieldStrength": 3.0,
      "Manufacturer": "SIEMENS",
      "ManufacturerModelName": "Prisma_fit",
      "Modality": "MR",
      "NumberOfAverages": 1.0,
      "NumberOfPhaseEncodingSteps": 104,
      "PercentPhaseFieldOfView": 100.0,
      "PercentSampling": 100.0,
      "PerformedProcedureStepStartTime": "103114.788000",
      "PhotometricInterpretation": "MONOCHROME2",
      "PixelBandwidth": 2290.0,
      "PixelRepresentation": 0,
      "PixelSpacing": [2.0, 2.0],
      "ProtocolName": "func_task-friends-s07e23c",
      "RepetitionTime": 1490.0,
      "Rows": 832,
      "SAR": 0.07997524722583,
      "SamplesPerPixel": 1,
      "ScanOptions": "FS",
      "ScanningSequence": "EP",
      "SequenceName": "epfid2d1_104",
      "SequenceVariant": [
        "SK",
        "SS"
],
      "SeriesDescription": "func_task-friends-s07e23c",
      "SeriesNumber": 14,
      "SeriesTime": "113142.027000",
      "SliceLocation": -26.664158476623,
      "SliceThickness": 2.0,
      "SmallestImagePixelValue": 0,
      "SoftwareVersions": "syngo MR E11",
      "SpacingBetweenSlices": 2.0000000593363,
      "SpecificCharacterSet": "ISO_IR 100",
      "StudyID": "1",
      "StudyTime": "103114.672000",
      "TransmitCoilName": "Body",
      "VariableFlipAngleFlag": "N",
      "WindowCenterWidthExplanation": "Algo1",
      "dBdt": 0.0},
    "slices": {}
  },
  "time": {
    "samples": {
      "AcquisitionNumber": [1, 2, 3, 4, 5, 6, 7, 8, 9, 10, 11, 12, 13, 14, 15, 16, 17, 18, 19, 20, 21, 22, 23, 24, 25, 26, 27, 28, 29, 30, 31, 32, 33, 34, 35, 36, 37, 38, 39, 40, 41, 42, 43, 44, 45, 46, 47, 48, 49, 50, 51, 52, 53, 54, 55, 56, 57, 58, 59, 60, 61, 62, 63, 64, 65, 66, 67, 68, 69, 70, 71, 72, 73, 74, 75, 76, 77, 78, 79, 80, 81, 82, 83, 84, 85, 86, 87, 88, 89, 90, 91, 92, 93, 94, 95, 96, 97, 98, 99, 100, 101, 102, 103, 104, 105, 106, 107, 108, 109, 110, 111, 112, 113, 114, 115, 116, 117, 118, 119, 120, 121, 122, 123, 124, 125, 126, 127, 128, 129, 130, 131, 132, 133, 134, 135, 136, 137, 138, 139, 140, 141, 142, 143, 144, 145, 146, 147, 148, 149, 150, 151, 152, 153, 154, 155, 156, 157, 158, 159, 160, 161, 162, 163, 164, 165, 166, 167, 168, 169, 170, 171, 172, 173, 174, 175, 176, 177, 178, 179, 180, 181, 182, 183, 184, 185, 186, 187, 188, 189, 190, 191, 192, 193, 194, 195, 196, 197, 198, 199, 200, 201, 202, 203, 204, 205, 206, 207, 208, 209, 210, 211, 212, 213, 214, 215, 216, 217, 218, 219, 220, 221, 222, 223, 224, 225, 226, 227, 228, 229, 230, 231, 232, 233, 234, 235, 236, 237, 238, 239, 240, 241, 242, 243, 244, 245, 246, 247, 248, 249, 250, 251, 252, 253, 254, 255, 256, 257, 258, 259, 260, 261, 262, 263, 264, 265, 266, 267, 268, 269, 270, 271, 272, 273, 274, 275, 276, 277, 278, 279, 280, 281, 282, 283, 284, 285, 286, 287, 288, 289, 290, 291, 292, 293, 294, 295, 296, 297, 298, 299, 300, 301, 302, 303, 304, 305, 306, 307, 308, 309, 310, 311, 312, 313, 314, 315, 316, 317, 318, 319, 320, 321, 322, 323, 324, 325, 326, 327, 328, 329, 330, 331, 332, 333, 334, 335, 336, 337, 338, 339, 340, 341, 342, 343, 344, 345, 346, 347, 348, 349, 350, 351, 352, 353, 354, 355, 356, 357, 358, 359, 360, 361, 362, 363, 364, 365, 366, 367, 368, 369, 370, 371, 372, 373, 374, 375, 376, 377, 378, 379, 380, 381, 382, 383, 384, 385, 386, 387, 388, 389, 390, 391, 392, 393, 394, 395, 396, 397, 398, 399, 400, 401, 402, 403, 404, 405, 406, 407, 408, 409, 410, 411, 412, 413, 414, 415, 416, 417, 418, 419, 420, 421, 422, 423, 424, 425, 426, 427, 428, 429, 430, 431, 432, 433, 434, 435, 436, 437, 438, 439, 440, 441, 442, 443, 444, 445, 446, 447, 448, 449, 450, 451, 452, 453, 454, 455, 456, 457, 458, 459, 460, 461, 462, 463, 464, 465, 466, 467, 468, 469, 470, 471, 472, 473, 474, 475, 476, 477, 478, 479, 480, 481, 482, 483, 484],
      "AcquisitionTime": ["113034.487500", "113035.977500", "113037.467500", "113038.957500", "113040.447500", "113041.937500", "113043.427500", "113044.917500", "113046.407500", "113047.897500", "113049.387500", "113050.877500", "113052.367500", "113053.857500", "113055.347500", "113056.837500", "113058.327500", "113059.817500", "113101.307500", "113102.797500", "113104.287500", "113105.777500", "113107.267500", "113108.757500", "113110.247500", "113111.737500", "113113.227500", "113114.717500", "113116.207500", "113117.697500", "113119.187500", "113120.677500", "113122.167500", "113123.657500", "113125.147500", "113126.637500", "113128.127500", "113129.617500", "113131.107500", "113132.597500", "113134.087500", "113135.577500", "113137.067500", "113138.557500", "113140.047500", "113141.537500", "113143.027500", "113144.517500", "113146.007500", "113147.497500", "113148.987500", "113150.477500", "113151.967500", "113153.457500", "113154.947500", "113156.437500", "113157.927500", "113159.417500", "113200.907500", "113202.397500", "113203.887500", "113205.377500", "113206.867500", "113208.357500", "113209.847500", "113211.337500", "113212.827500", "113214.317500", "113215.807500", "113217.297500", "113218.787500", "113220.277500", "113221.767500", "113223.257500", "113224.747500", "113226.237500", "113227.727500", "113229.217500", "113230.707500", "113232.197500", "113233.687500", "113235.177500", "113236.667500", "113238.157500", "113239.647500", "113241.137500", "113242.627500", "113244.117500", "113245.607500", "113247.097500", "113248.587500", "113250.077500", "113251.567500", "113253.057500", "113254.547500", "113256.037500", "113257.527500", "113259.017500", "113300.507500", "113301.997500", "113303.487500", "113304.977500", "113306.467500", "113307.957500", "113309.447500", "113310.937500", "113312.427500", "113313.917500", "113315.407500", "113316.897500", "113318.387500", "113319.877500", "113321.367500", "113322.857500", "113324.347500", "113325.837500", "113327.327500", "113328.817500", "113330.307500", "113331.797500", "113333.287500", "113334.777500", "113336.267500", "113337.757500", "113339.247500", "113340.737500", "113342.227500", "113343.717500", "113345.207500", "113346.697500", "113348.187500", "113349.677500", "113351.167500", "113352.657500", "113354.147500", "113355.637500", "113357.127500", "113358.617500", "113400.107500", "113401.597500", "113403.087500", "113404.577500", "113406.067500", "113407.557500", "113409.047500", "113410.537500", "113412.027500", "113413.517500", "113415.007500", "113416.497500", "113417.987500", "113419.477500", "113420.967500", "113422.457500", "113423.947500", "113425.437500", "113426.927500", "113428.417500", "113429.907500", "113431.397500", "113432.887500", "113434.377500", "113435.867500", "113437.357500", "113438.847500", "113440.337500", "113441.827500", "113443.317500", "113444.807500", "113446.297500", "113447.787500", "113449.277500", "113450.767500", "113452.257500", "113453.747500", "113455.237500", "113456.727500", "113458.217500", "113459.707500", "113501.197500", "113502.687500", "113504.177500", "113505.667500", "113507.157500", "113508.647500", "113510.137500", "113511.627500", "113513.117500", "113514.607500", "113516.097500", "113517.587500", "113519.077500", "113520.567500", "113522.057500", "113523.547500", "113525.037500", "113526.527500", "113528.017500", "113529.507500", "113530.997500", "113532.487500", "113533.977500", "113535.467500", "113536.957500", "113538.447500", "113539.937500", "113541.427500", "113542.917500", "113544.407500", "113545.897500", "113547.387500", "113548.877500", "113550.367500", "113551.857500", "113553.347500", "113554.837500", "113556.327500", "113557.817500", "113559.307500", "113600.797500", "113602.287500", "113603.777500", "113605.267500", "113606.757500", "113608.247500", "113609.737500", "113611.227500", "113612.717500", "113614.207500", "113615.697500", "113617.187500", "113618.677500", "113620.167500", "113621.657500", "113623.147500", "113624.637500", "113626.127500", "113627.617500", "113629.107500", "113630.597500", "113632.087500", "113633.577500", "113635.067500", "113636.557500", "113638.047500", "113639.537500", "113641.027500", "113642.517500", "113644.007500", "113645.497500", "113646.987500", "113648.477500", "113649.967500", "113651.457500", "113652.947500", "113654.437500", "113655.927500", "113657.417500", "113658.907500", "113700.397500", "113701.887500", "113703.377500", "113704.867500", "113706.357500", "113707.847500", "113709.337500", "113710.827500", "113712.317500", "113713.807500", "113715.297500", "113716.787500", "113718.277500", "113719.767500", "113721.257500", "113722.747500", "113724.237500", "113725.727500", "113727.217500", "113728.707500", "113730.197500", "113731.687500", "113733.177500", "113734.667500", "113736.157500", "113737.647500", "113739.137500", "113740.627500", "113742.117500", "113743.607500", "113745.097500", "113746.587500", "113748.077500", "113749.567500", "113751.057500", "113752.547500", "113754.037500", "113755.527500", "113757.017500", "113758.507500", "113759.997500", "113801.487500", "113802.977500", "113804.467500", "113805.957500", "113807.447500", "113808.937500", "113810.427500", "113811.917500", "113813.407500", "113814.897500", "113816.387500", "113817.877500", "113819.367500", "113820.857500", "113822.347500", "113823.837500", "113825.327500", "113826.817500", "113828.307500", "113829.797500", "113831.287500", "113832.777500", "113834.267500", "113835.757500", "113837.247500", "113838.737500", "113840.227500", "113841.717500", "113843.207500", "113844.697500", "113846.187500", "113847.677500", "113849.167500", "113850.657500", "113852.147500", "113853.637500", "113855.127500", "113856.617500", "113858.107500", "113859.597500", "113901.087500", "113902.577500", "113904.067500", "113905.557500", "113907.047500", "113908.537500", "113910.027500", "113911.517500", "113913.007500", "113914.497500", "113915.987500", "113917.477500", "113918.967500", "113920.457500", "113921.947500", "113923.437500", "113924.927500", "113926.417500", "113927.907500", "113929.397500", "113930.887500", "113932.377500", "113933.867500", "113935.357500", "113936.847500", "113938.337500", "113939.827500", "113941.317500", "113942.807500", "113944.297500", "113945.787500", "113947.277500", "113948.767500", "113950.257500", "113951.747500", "113953.237500", "113954.727500", "113956.217500", "113957.707500", "113959.197500", "114000.687500", "114002.177500", "114003.667500", "114005.157500", "114006.647500", "114008.137500", "114009.627500", "114011.117500", "114012.607500", "114014.097500", "114015.587500", "114017.077500", "114018.567500", "114020.057500", "114021.547500", "114023.037500", "114024.527500", "114026.017500", "114027.507500", "114028.997500", "114030.487500", "114031.977500", "114033.467500", "114034.957500", "114036.447500", "114037.937500", "114039.427500", "114040.917500", "114042.407500", "114043.897500", "114045.387500", "114046.877500", "114048.367500", "114049.857500", "114051.347500", "114052.837500", "114054.327500", "114055.817500", "114057.307500", "114058.797500", "114100.287500", "114101.777500", "114103.267500", "114104.757500", "114106.247500", "114107.737500", "114109.227500", "114110.717500", "114112.207500", "114113.697500", "114115.187500", "114116.677500", "114118.167500", "114119.657500", "114121.147500", "114122.637500", "114124.127500", "114125.617500", "114127.107500", "114128.597500", "114130.087500", "114131.577500", "114133.067500", "114134.557500", "114136.047500", "114137.537500", "114139.027500", "114140.517500", "114142.007500", "114143.497500", "114144.987500", "114146.477500", "114147.967500", "114149.457500", "114150.947500", "114152.437500", "114153.927500", "114155.417500", "114156.907500", "114158.397500", "114159.887500", "114201.377500", "114202.867500", "114204.357500", "114205.847500", "114207.337500", "114208.827500", "114210.317500", "114211.807500", "114213.297500", "114214.787500", "114216.277500", "114217.767500", "114219.257500", "114220.747500", "114222.237500", "114223.727500", "114225.217500", "114226.707500", "114228.197500", "114229.687500", "114231.177500", "114232.667500", "114234.157500"],
      "ContentTime": ["113142.029000", "113142.033000", "113142.036000", "113142.039000", "113142.042000", "113142.045000", "113142.048000", "113142.057000", "113142.061000", "113142.064000", "113142.067000", "113142.070000", "113142.073000", "113142.076000", "113142.079000", "113142.082000", "113142.085000", "113142.088000", "113142.091000", "113142.094000", "113201.967000", "113201.970000", "113201.973000", "113201.976000", "113201.979000", "113202.002000", "113202.005000", "113202.008000", "113202.011000", "113202.014000", "113202.017000", "113202.020000", "113202.023000", "113202.026000", "113202.029000", "113202.032000", "113202.035000", "113202.038000", "113202.041000", "113202.044000", "113202.047000", "113221.967000", "113221.970000", "113221.973000", "113221.976000", "113221.984000", "113221.987000", "113221.989000", "113221.992000", "113221.996000", "113221.998000", "113222.002000", "113222.005000", "113222.008000", "113222.011000", "113222.014000", "113222.017000", "113222.020000", "113222.023000", "113222.026000", "113222.029000", "113241.967000", "113241.970000", "113241.973000", "113241.976000", "113241.979000", "113241.982000", "113241.985000", "113241.988000", "113241.991000", "113241.994000", "113241.997000", "113242.001000", "113242.004000", "113242.007000", "113242.010000", "113242.012000", "113242.016000", "113242.018000", "113242.021000", "113242.024000", "113321.967000", "113321.970000", "113321.974000", "113321.977000", "113321.980000", "113321.982000", "113321.986000", "113321.988000", "113321.991000", "113321.994000", "113321.997000", "113322.001000", "113322.004000", "113322.007000", "113322.010000", "113322.013000", "113322.016000", "113322.019000", "113322.022000", "113322.025000", "113322.028000", "113322.031000", "113322.034000", "113322.037000", "113322.040000", "113322.043000", "113322.046000", "113322.049000", "113322.052000", "113322.055000", "113322.058000", "113401.967000", "113401.970000", "113401.973000", "113401.976000", "113401.980000", "113401.983000", "113401.986000", "113401.989000", "113401.992000", "113401.995000", "113401.998000", "113402.002000", "113402.005000", "113402.008000", "113402.011000", "113402.014000", "113402.016000", "113402.020000", "113402.022000", "113402.032000", "113402.035000", "113402.038000", "113402.041000", "113402.044000", "113402.047000", "113402.050000", "113402.053000", "113441.967000", "113441.970000", "113441.973000", "113441.976000", "113441.979000", "113441.982000", "113441.985000", "113441.988000", "113441.991000", "113441.994000", "113441.997000", "113442.001000", "113442.004000", "113442.007000", "113442.010000", "113442.013000", "113442.016000", "113442.019000", "113442.022000", "113442.025000", "113442.028000", "113442.031000", "113442.034000", "113442.037000", "113442.040000", "113442.043000", "113442.046000", "113521.967000", "113521.970000", "113521.973000", "113521.976000", "113521.979000", "113521.982000", "113521.985000", "113521.988000", "113521.991000", "113521.994000", "113521.997000", "113522.001000", "113522.004000", "113522.007000", "113522.010000", "113522.013000", "113522.016000", "113522.019000", "113522.022000", "113522.025000", "113522.028000", "113522.031000", "113522.034000", "113522.037000", "113522.040000", "113522.043000", "113522.046000", "113601.967000", "113601.970000", "113601.973000", "113601.976000", "113601.979000", "113601.982000", "113601.985000", "113601.988000", "113601.991000", "113601.994000", "113601.997000", "113602.001000", "113602.005000", "113602.007000", "113602.011000", "113602.014000", "113602.017000", "113602.019000", "113602.023000", "113602.026000", "113602.029000", "113602.031000", "113602.035000", "113602.038000", "113602.040000", "113602.043000", "113602.046000", "113641.967000", "113641.970000", "113641.973000", "113641.976000", "113641.979000", "113641.982000", "113641.986000", "113642.004000", "113642.007000", "113642.010000", "113642.012000", "113642.016000", "113642.018000", "113642.021000", "113642.024000", "113642.027000", "113642.030000", "113642.033000", "113642.036000", "113642.039000", "113642.042000", "113642.045000", "113642.048000", "113642.051000", "113642.054000", "113642.057000", "113721.967000", "113721.970000", "113721.973000", "113721.976000", "113721.979000", "113721.982000", "113721.985000", "113721.988000", "113721.991000", "113721.994000", "113722.008000", "113722.011000", "113722.014000", "113722.017000", "113722.020000", "113722.023000", "113722.026000", "113722.029000", "113722.032000", "113722.035000", "113722.038000", "113722.041000", "113722.044000", "113722.048000", "113722.051000", "113722.053000", "113722.056000", "113801.967000", "113801.970000", "113801.973000", "113801.976000", "113801.979000", "113801.982000", "113801.985000", "113801.988000", "113801.991000", "113801.994000", "113801.997000", "113802.001000", "113802.005000", "113802.008000", "113802.011000", "113802.014000", "113802.017000", "113802.020000", "113802.023000", "113802.026000", "113802.029000", "113802.032000", "113802.035000", "113802.038000", "113802.041000", "113802.044000", "113802.047000", "113841.967000", "113841.970000", "113841.973000", "113841.976000", "113841.979000", "113841.983000", "113841.985000", "113841.988000", "113841.991000", "113841.994000", "113841.997000", "113842.001000", "113842.004000", "113842.007000", "113842.010000", "113842.013000", "113842.016000", "113842.019000", "113842.022000", "113842.025000", "113842.028000", "113842.031000", "113842.034000", "113842.037000", "113842.040000", "113842.043000", "113842.046000", "113921.967000", "113921.970000", "113921.973000", "113921.976000", "113921.979000", "113921.982000", "113921.985000", "113921.988000", "113921.991000", "113921.994000", "113921.997000", "113922.001000", "113922.004000", "113922.007000", "113922.010000", "113922.013000", "113922.016000", "113922.019000", "113922.022000", "113922.025000", "113922.028000", "113922.031000", "113922.034000", "113922.037000", "113922.040000", "113922.043000", "113922.046000", "114001.967000", "114001.970000", "114001.973000", "114001.976000", "114001.979000", "114001.982000", "114001.985000", "114001.988000", "114001.991000", "114001.994000", "114001.997000", "114002.001000", "114002.004000", "114002.007000", "114002.010000", "114002.013000", "114002.016000", "114002.019000", "114002.022000", "114002.025000", "114002.028000", "114002.031000", "114002.034000", "114002.037000", "114002.040000", "114002.043000", "114002.046000", "114041.967000", "114041.970000", "114041.973000", "114041.976000", "114041.979000", "114041.982000", "114041.985000", "114041.988000", "114041.991000", "114041.994000", "114041.997000", "114042.001000", "114042.004000", "114042.007000", "114042.010000", "114042.013000", "114042.016000", "114042.019000", "114042.022000", "114042.025000", "114042.029000", "114042.032000", "114042.035000", "114042.038000", "114042.041000", "114042.044000", "114121.967000", "114121.970000", "114121.973000", "114121.976000", "114121.979000", "114121.982000", "114121.985000", "114121.988000", "114122.011000", "114122.014000", "114122.017000", "114122.020000", "114122.023000", "114122.026000", "114122.029000", "114122.032000", "114122.035000", "114122.038000", "114122.041000", "114122.044000", "114122.047000", "114122.050000", "114122.053000", "114122.056000", "114122.059000", "114122.062000", "114122.065000", "114201.967000", "114201.970000", "114201.973000", "114201.976000", "114201.979000", "114201.982000", "114201.985000", "114201.988000", "114201.991000", "114201.994000", "114201.997000", "114202.001000", "114202.004000", "114202.007000", "114202.010000", "114202.013000", "114202.016000", "114202.019000", "114202.022000", "114202.025000", "114202.028000", "114202.031000", "114202.034000", "114202.037000", "114202.040000", "114202.043000", "114202.046000", "114235.321000", "114235.330000", "114235.333000", "114235.336000", "114235.339000", "114235.342000", "114235.345000", "114235.348000", "114235.351000", "114235.354000", "114235.357000", "114235.360000", "114235.363000", "114235.366000", "114235.369000", "114235.372000", "114235.375000", "114235.378000", "114235.381000", "114235.384000", "114235.387000", "114235.390000", "114235.393000"],
