{
  "AcquisitionMatrixPE": 104,
  "AcquisitionNumber": 1,
  "AcquisitionTime": "09:26:43.947500",
  "BandwidthPerPixelPhaseEncode": 17.17,
  "BaseResolution": 104,
  "BodyPartExamined": "BRAIN",
  "CoilString": "HC1-7;NC1_2",
  "ConsistencyInfo": "N4_VE11C_LATEST_20160120",
  "ConversionSoftware": "dcm2niix",
  "ConversionSoftwareVersion": "v1.0.20190902",
  "DerivedVendorReportedEchoSpacing": 0.000560011,
  "DeviceSerialNumber": "167006",
  "DwellTime": 2.1e-06,
  "EchoTime": 0.037,
  "EchoTrainLength": 104,
  "EffectiveEchoSpacing": 0.000560011,
  "FlipAngle": 52,
  "ImageComments": "Unaliased_MB4_PE3_LB",
  "ImageOrientationPatientDICOM": [0.999983, 0.00415258, 0.00403995, -0.00157072, 0.865525, -0.500863],
  "ImageType": [
    "ORIGINAL",
    "PRIMARY",
    "M",
    "MB",
    "ND",
    "MOSAIC"
],
  "ImagingFrequency": 123.259,
  "InPlanePhaseEncodingDirectionDICOM": "COL",
  "InstitutionAddress": "Chemin_Queen-Mary_4565_Montreal_District_CA_H3W_1W5",
  "InstitutionName": "IUGM",
  "InstitutionalDepartmentName": "Department",
  "MRAcquisitionType": "2D",
  "MagneticFieldStrength": 3,
  "Manufacturer": "Siemens",
  "ManufacturersModelName": "Prisma_fit",
  "Modality": "MR",
  "MultibandAccelerationFactor": 4,
  "PartialFourier": 1,
  "PatientPosition": "HFS",
  "PercentPhaseFOV": 100,
  "PhaseEncodingDirection": "j",
  "PhaseEncodingSteps": 104,
  "PhaseResolution": 1,
  "PixelBandwidth": 2290,
  "ProcedureStepDescription": "video_friends",
  "ProtocolName": "func_task-friends-s03e18a",
  "PulseSequenceDetails": "%CustomerSeq%_cmrr_mbep2d_bold",
  "ReceiveCoilActiveElements": "HC1-7;NC1,2",
  "ReceiveCoilName": "HeadNeck_64",
  "ReconMatrixPE": 104,
  "RepetitionTime": 1.49,
  "SAR": 0.0352669,
  "ScanOptions": "FS",
  "ScanningSequence": "EP",
  "SequenceName": "epfid2d1_104",
  "SequenceVariant": "SK_SS",
  "SeriesDescription": "func_task-friends-s03e18a",
  "SeriesNumber": 9,
  "ShimSetting": [615, -7202, -8865, 429, -40, -230, -17, -24],
  "SliceThickness": 2,
  "SliceTiming": [0, 0.7825, 0.0975, 0.88, 0.195, 0.98, 0.2925, 1.0775, 0.39, 1.175, 0.49, 1.2725, 0.5875, 1.37, 0.685, 0, 0.7825, 0.0975, 0.88, 0.195, 0.98, 0.2925, 1.0775, 0.39, 1.175, 0.49, 1.2725, 0.5875, 1.37, 0.685, 0, 0.7825, 0.0975, 0.88, 0.195, 0.98, 0.2925, 1.0775, 0.39, 1.175, 0.49, 1.2725, 0.5875, 1.37, 0.685, 0, 0.7825, 0.0975, 0.88, 0.195, 0.98, 0.2925, 1.0775, 0.39, 1.175, 0.49, 1.2725, 0.5875, 1.37, 0.685],
  "SoftwareVersions": "syngo_MR_E11",
  "SpacingBetweenSlices": 2,
  "StationName": "MRC35049",
  "TaskName": "s03e18a",
  "TotalReadoutTime": 0.0576811,
  "TxRefAmp": 249.255,
  "WipMemBlock": "6b4ec6d8-48b9-4c78-94e2-7e442386bd18||Sequence: R016 ve11c/master r/e634e98; Dec 19 2017 11:00:25 by eja",
  "dcmmeta_affine": [
    [-1.9999663829803467, -0.003141447901725769, 0.01115310937166214, 102.83450317382812],
    [-0.008305161260068417, 1.7310497760772705, -1.0016974210739136, -59.18754577636719],
    [0.008079903200268745, 1.0017269849777222, 1.7310336828231812, -101.20421600341797],
    [0.0, 0.0, 0.0, 1.0]
],
  "dcmmeta_reorient_transform": [
    [0.0, -1.0, 0.0, 103.0],
    [1.0, 0.0, 0.0, 0.0],
    [0.0, 0.0, 1.0, 0.0],
    [0.0, 0.0, 0.0, 1.0]
],
  "dcmmeta_shape": [104, 104, 60, 469],
  "dcmmeta_slice_dim": 2,
  "dcmmeta_version": 0.6,
  "global": {
    "const": {
      "AcquisitionMatrix": [104, 0, 0, 104],
      "AngioFlag": "N",
      "BitsAllocated": 16,
      "BitsStored": 16,
      "BodyPartExamined": "BRAIN",
      "Columns": 832,
      "EchoNumbers": 1,
      "EchoTime": 37.0,
      "EchoTrainLength": 104,
      "FlipAngle": 52.0,
      "HighBit": 15,
      "ImageOrientationPatient": [0.99998321729065, 0.00415258076416, 0.00403995173609, -0.0015707239182, 0.86552486492405, -0.5008634954003],
      "ImagePositionPatient": [-829.35523263189, -752.2357564404, 363.66120444188],
      "ImageType": [
        "ORIGINAL",
        "PRIMARY",
        "M",
        "MB",
        "ND",
        "MOSAIC"
],
      "ImagedNucleus": "1H",
      "ImagingFrequency": 123.259343,
      "InPlanePhaseEncodingDirection": "COL",
      "MRAcquisitionType": "2D",
      "MagneticFieldStrength": 3.0,
      "Manufacturer": "SIEMENS",
      "ManufacturerModelName": "Prisma_fit",
      "Modality": "MR",
      "NumberOfAverages": 1.0,
      "NumberOfPhaseEncodingSteps": 104,
      "PercentPhaseFieldOfView": 100.0,
      "PercentSampling": 100.0,
      "PerformedProcedureStepStartTime": "085739.582000",
      "PhotometricInterpretation": "MONOCHROME2",
      "PixelBandwidth": 2290.0,
      "PixelRepresentation": 0,
      "PixelSpacing": [2.0, 2.0],
      "ProtocolName": "func_task-friends-s03e18a",
      "RepetitionTime": 1490.0,
      "Rows": 832,
      "SAR": 0.03526694408526,
      "SamplesPerPixel": 1,
      "ScanOptions": "FS",
      "ScanningSequence": "EP",
      "SequenceName": "epfid2d1_104",
      "SequenceVariant": [
        "SK",
        "SS"
],
      "SeriesDescription": "func_task-friends-s03e18a",
      "SeriesNumber": 9,
      "SeriesTime": "092814.100000",
      "SliceLocation": -57.37648446749,
      "SliceThickness": 2.0,
      "SmallestImagePixelValue": 0,
      "SoftwareVersions": "syngo MR E11",
      "SpacingBetweenSlices": 1.9999999850889,
      "SpecificCharacterSet": "ISO_IR 100",
      "StudyID": "1",
      "StudyTime": "085739.415000",
      "TransmitCoilName": "Body",
      "VariableFlipAngleFlag": "N",
      "WindowCenterWidthExplanation": "Algo1",
      "dBdt": 0.0},
    "slices": {}
  },
  "time": {
    "samples": {
      "AcquisitionNumber": [1, 2, 3, 4, 5, 6, 7, 8, 9, 10, 11, 12, 13, 14, 15, 16, 17, 18, 19, 20, 21, 22, 23, 24, 25, 26, 27, 28, 29, 30, 31, 32, 33, 34, 35, 36, 37, 38, 39, 40, 41, 42, 43, 44, 45, 46, 47, 48, 49, 50, 51, 52, 53, 54, 55, 56, 57, 58, 59, 60, 61, 62, 63, 64, 65, 66, 67, 68, 69, 70, 71, 72, 73, 74, 75, 76, 77, 78, 79, 80, 81, 82, 83, 84, 85, 86, 87, 88, 89, 90, 91, 92, 93, 94, 95, 96, 97, 98, 99, 100, 101, 102, 103, 104, 105, 106, 107, 108, 109, 110, 111, 112, 113, 114, 115, 116, 117, 118, 119, 120, 121, 122, 123, 124, 125, 126, 127, 128, 129, 130, 131, 132, 133, 134, 135, 136, 137, 138, 139, 140, 141, 142, 143, 144, 145, 146, 147, 148, 149, 150, 151, 152, 153, 154, 155, 156, 157, 158, 159, 160, 161, 162, 163, 164, 165, 166, 167, 168, 169, 170, 171, 172, 173, 174, 175, 176, 177, 178, 179, 180, 181, 182, 183, 184, 185, 186, 187, 188, 189, 190, 191, 192, 193, 194, 195, 196, 197, 198, 199, 200, 201, 202, 203, 204, 205, 206, 207, 208, 209, 210, 211, 212, 213, 214, 215, 216, 217, 218, 219, 220, 221, 222, 223, 224, 225, 226, 227, 228, 229, 230, 231, 232, 233, 234, 235, 236, 237, 238, 239, 240, 241, 242, 243, 244, 245, 246, 247, 248, 249, 250, 251, 252, 253, 254, 255, 256, 257, 258, 259, 260, 261, 262, 263, 264, 265, 266, 267, 268, 269, 270, 271, 272, 273, 274, 275, 276, 277, 278, 279, 280, 281, 282, 283, 284, 285, 286, 287, 288, 289, 290, 291, 292, 293, 294, 295, 296, 297, 298, 299, 300, 301, 302, 303, 304, 305, 306, 307, 308, 309, 310, 311, 312, 313, 314, 315, 316, 317, 318, 319, 320, 321, 322, 323, 324, 325, 326, 327, 328, 329, 330, 331, 332, 333, 334, 335, 336, 337, 338, 339, 340, 341, 342, 343, 344, 345, 346, 347, 348, 349, 350, 351, 352, 353, 354, 355, 356, 357, 358, 359, 360, 361, 362, 363, 364, 365, 366, 367, 368, 369, 370, 371, 372, 373, 374, 375, 376, 377, 378, 379, 380, 381, 382, 383, 384, 385, 386, 387, 388, 389, 390, 391, 392, 393, 394, 395, 396, 397, 398, 399, 400, 401, 402, 403, 404, 405, 406, 407, 408, 409, 410, 411, 412, 413, 414, 415, 416, 417, 418, 419, 420, 421, 422, 423, 424, 425, 426, 427, 428, 429, 430, 431, 432, 433, 434, 435, 436, 437, 438, 439, 440, 441, 442, 443, 444, 445, 446, 447, 448, 449, 450, 451, 452, 453, 454, 455, 456, 457, 458, 459, 460, 461, 462, 463, 464, 465, 466, 467, 468, 469],
      "AcquisitionTime": ["092643.947500", "092645.437500", "092646.927500", "092648.417500", "092649.907500", "092651.397500", "092652.887500", "092654.377500", "092655.867500", "092657.357500", "092658.847500", "092700.337500", "092701.827500", "092703.317500", "092704.807500", "092706.297500", "092707.787500", "092709.277500", "092710.767500", "092712.257500", "092713.747500", "092715.237500", "092716.727500", "092718.217500", "092719.707500", "092721.197500", "092722.687500", "092724.177500", "092725.667500", "092727.157500", "092728.647500", "092730.137500", "092731.627500", "092733.117500", "092734.607500", "092736.097500", "092737.587500", "092739.077500", "092740.567500", "092742.057500", "092743.547500", "092745.037500", "092746.527500", "092748.017500", "092749.507500", "092750.997500", "092752.487500", "092753.977500", "092755.467500", "092756.957500", "092758.447500", "092759.937500", "092801.427500", "092802.917500", "092804.407500", "092805.897500", "092807.387500", "092808.877500", "092810.367500", "092811.857500", "092813.347500", "092814.837500", "092816.327500", "092817.817500", "092819.307500", "092820.797500", "092822.287500", "092823.777500", "092825.267500", "092826.757500", "092828.247500", "092829.737500", "092831.227500", "092832.717500", "092834.207500", "092835.697500", "092837.187500", "092838.677500", "092840.167500", "092841.657500", "092843.147500", "092844.637500", "092846.127500", "092847.617500", "092849.107500", "092850.597500", "092852.087500", "092853.577500", "092855.067500", "092856.557500", "092858.047500", "092859.537500", "092901.027500", "092902.517500", "092904.007500", "092905.497500", "092906.987500", "092908.477500", "092909.967500", "092911.457500", "092912.947500", "092914.437500", "092915.927500", "092917.417500", "092918.907500", "092920.397500", "092921.887500", "092923.377500", "092924.867500", "092926.357500", "092927.847500", "092929.337500", "092930.827500", "092932.317500", "092933.807500", "092935.297500", "092936.787500", "092938.277500", "092939.767500", "092941.257500", "092942.747500", "092944.237500", "092945.727500", "092947.217500", "092948.707500", "092950.197500", "092951.687500", "092953.177500", "092954.667500", "092956.157500", "092957.647500", "092959.137500", "093000.627500", "093002.117500", "093003.607500", "093005.097500", "093006.587500", "093008.077500", "093009.567500", "093011.057500", "093012.547500", "093014.037500", "093015.527500", "093017.017500", "093018.507500", "093019.997500", "093021.487500", "093022.977500", "093024.467500", "093025.957500", "093027.447500", "093028.937500", "093030.427500", "093031.917500", "093033.407500", "093034.897500", "093036.387500", "093037.877500", "093039.367500", "093040.857500", "093042.347500", "093043.837500", "093045.327500", "093046.817500", "093048.307500", "093049.797500", "093051.287500", "093052.777500", "093054.267500", "093055.757500", "093057.247500", "093058.737500", "093100.227500", "093101.717500", "093103.207500", "093104.697500", "093106.187500", "093107.677500", "093109.167500", "093110.657500", "093112.147500", "093113.637500", "093115.127500", "093116.617500", "093118.107500", "093119.597500", "093121.087500", "093122.577500", "093124.067500", "093125.557500", "093127.047500", "093128.537500", "093130.027500", "093131.517500", "093133.007500", "093134.497500", "093135.987500", "093137.477500", "093138.967500", "093140.457500", "093141.947500", "093143.437500", "093144.927500", "093146.417500", "093147.907500", "093149.397500", "093150.887500", "093152.377500", "093153.867500", "093155.357500", "093156.847500", "093158.337500", "093159.827500", "093201.317500", "093202.807500", "093204.297500", "093205.787500", "093207.277500", "093208.767500", "093210.257500", "093211.747500", "093213.237500", "093214.727500", "093216.217500", "093217.707500", "093219.197500", "093220.687500", "093222.177500", "093223.667500", "093225.157500", "093226.647500", "093228.137500", "093229.627500", "093231.117500", "093232.607500", "093234.097500", "093235.587500", "093237.077500", "093238.567500", "093240.057500", "093241.547500", "093243.037500", "093244.527500", "093246.017500", "093247.507500", "093248.997500", "093250.487500", "093251.977500", "093253.467500", "093254.957500", "093256.447500", "093257.937500", "093259.427500", "093300.917500", "093302.407500", "093303.897500", "093305.387500", "093306.877500", "093308.367500", "093309.857500", "093311.347500", "093312.837500", "093314.327500", "093315.817500", "093317.307500", "093318.797500", "093320.287500", "093321.777500", "093323.267500", "093324.757500", "093326.247500", "093327.737500", "093329.227500", "093330.717500", "093332.207500", "093333.697500", "093335.187500", "093336.677500", "093338.167500", "093339.657500", "093341.147500", "093342.637500", "093344.127500", "093345.617500", "093347.107500", "093348.597500", "093350.087500", "093351.577500", "093353.067500", "093354.557500", "093356.047500", "093357.537500", "093359.027500", "093400.517500", "093402.007500", "093403.497500", "093404.987500", "093406.477500", "093407.967500", "093409.457500", "093410.947500", "093412.437500", "093413.927500", "093415.417500", "093416.907500", "093418.397500", "093419.887500", "093421.377500", "093422.867500", "093424.357500", "093425.847500", "093427.337500", "093428.827500", "093430.317500", "093431.807500", "093433.297500", "093434.787500", "093436.277500", "093437.767500", "093439.257500", "093440.747500", "093442.237500", "093443.727500", "093445.217500", "093446.707500", "093448.197500", "093449.687500", "093451.177500", "093452.667500", "093454.157500", "093455.647500", "093457.137500", "093458.627500", "093500.117500", "093501.607500", "093503.097500", "093504.587500", "093506.077500", "093507.567500", "093509.057500", "093510.547500", "093512.037500", "093513.527500", "093515.017500", "093516.507500", "093517.997500", "093519.487500", "093520.977500", "093522.467500", "093523.957500", "093525.447500", "093526.937500", "093528.427500", "093529.917500", "093531.407500", "093532.897500", "093534.387500", "093535.877500", "093537.367500", "093538.857500", "093540.347500", "093541.837500", "093543.327500", "093544.817500", "093546.307500", "093547.797500", "093549.287500", "093550.777500", "093552.267500", "093553.757500", "093555.247500", "093556.737500", "093558.227500", "093559.717500", "093601.207500", "093602.697500", "093604.187500", "093605.677500", "093607.167500", "093608.657500", "093610.147500", "093611.637500", "093613.127500", "093614.617500", "093616.107500", "093617.597500", "093619.087500", "093620.577500", "093622.067500", "093623.557500", "093625.047500", "093626.537500", "093628.027500", "093629.517500", "093631.007500", "093632.497500", "093633.987500", "093635.477500", "093636.967500", "093638.457500", "093639.947500", "093641.437500", "093642.927500", "093644.417500", "093645.907500", "093647.397500", "093648.887500", "093650.377500", "093651.867500", "093653.357500", "093654.847500", "093656.337500", "093657.827500", "093659.317500", "093700.807500", "093702.297500", "093703.787500", "093705.277500", "093706.767500", "093708.257500", "093709.747500", "093711.237500", "093712.727500", "093714.217500", "093715.707500", "093717.197500", "093718.687500", "093720.177500", "093721.667500", "093723.157500", "093724.647500", "093726.137500", "093727.627500", "093729.117500", "093730.607500", "093732.097500", "093733.587500", "093735.077500", "093736.567500", "093738.057500", "093739.547500", "093741.037500", "093742.527500", "093744.017500", "093745.507500", "093746.997500", "093748.487500", "093749.977500", "093751.467500", "093752.957500", "093754.447500", "093755.937500", "093757.427500", "093758.917500", "093800.407500", "093801.897500", "093803.387500", "093804.877500", "093806.367500", "093807.857500", "093809.347500", "093810.837500", "093812.327500", "093813.817500", "093815.307500", "093816.797500", "093818.287500", "093819.777500", "093821.267500"],
      "ContentTime": ["092814.102000", "092814.106000", "092814.109000", "092814.113000", "092814.116000", "092814.119000", "092814.122000", "092814.125000", "092814.128000", "092814.130000", "092814.133000", "092814.136000", "092814.139000", "092814.142000", "092814.145000", "092814.154000", "092814.157000", "092814.160000", "092814.163000", "092814.166000", "092814.169000", "092814.172000", "092814.174000", "092814.177000", "092814.180000", "092814.183000", "092814.186000", "092814.189000", "092814.192000", "092814.195000", "092814.198000", "092814.201000", "092814.204000", "092814.206000", "092814.209000", "092814.212000", "092814.215000", "092834.067000", "092834.070000", "092834.073000", "092834.076000", "092834.079000", "092834.082000", "092834.084000", "092834.087000", "092834.090000", "092834.093000", "092834.096000", "092834.099000", "092834.102000", "092834.104000", "092834.107000", "092834.110000", "092834.113000", "092834.116000", "092834.119000", "092834.122000", "092854.066000", "092854.069000", "092854.072000", "092854.075000", "092854.078000", "092854.081000", "092854.083000", "092854.086000", "092854.089000", "092854.092000", "092854.095000", "092854.098000", "092854.101000", "092854.104000", "092854.106000", "092854.125000", "092854.128000", "092854.131000", "092854.134000", "092854.137000", "092914.066000", "092914.069000", "092914.072000", "092914.075000", "092914.078000", "092914.081000", "092914.083000", "092914.086000", "092914.089000", "092914.092000", "092914.095000", "092914.098000", "092914.101000", "092914.104000", "092914.107000", "092914.109000", "092914.112000", "092914.115000", "092914.118000", "092914.121000", "092954.066000", "092954.069000", "092954.072000", "092954.075000", "092954.078000", "092954.081000", "092954.083000", "092954.086000", "092954.089000", "092954.092000", "092954.095000", "092954.098000", "092954.101000", "092954.104000", "092954.107000", "092954.110000", "092954.113000", "092954.115000", "092954.118000", "092954.121000", "092954.124000", "092954.127000", "092954.130000", "092954.133000", "092954.136000", "092954.139000", "092954.142000", "092954.144000", "092954.147000", "092954.150000", "093034.066000", "093034.069000", "093034.073000", "093034.076000", "093034.079000", "093034.082000", "093034.107000", "093034.110000", "093034.113000", "093034.116000", "093034.119000", "093034.122000", "093034.125000", "093034.127000", "093034.130000", "093034.133000", "093034.136000", "093034.139000", "093034.142000", "093034.145000", "093034.148000", "093034.151000", "093034.153000", "093034.156000", "093034.159000", "093034.162000", "093114.066000", "093114.069000", "093114.072000", "093114.075000", "093114.078000", "093114.081000", "093114.084000", "093114.087000", "093114.090000", "093114.092000", "093114.095000", "093114.098000", "093114.101000", "093114.104000", "093114.113000", "093114.116000", "093114.119000", "093114.122000", "093114.124000", "093114.127000", "093114.130000", "093114.133000", "093114.136000", "093114.139000", "093114.142000", "093114.145000", "093114.148000", "093154.066000", "093154.069000", "093154.072000", "093154.075000", "093154.078000", "093154.081000", "093154.084000", "093154.087000", "093154.089000", "093154.092000", "093154.095000", "093154.098000", "093154.101000", "093154.104000", "093154.107000", "093154.110000", "093154.112000", "093154.115000", "093154.118000", "093154.121000", "093154.124000", "093154.127000", "093154.130000", "093154.133000", "093154.136000", "093154.139000", "093154.142000", "093234.066000", "093234.069000", "093234.072000", "093234.075000", "093234.078000", "093234.081000", "093234.084000", "093234.087000", "093234.090000", "093234.093000", "093234.095000", "093234.098000", "093234.101000", "093234.104000", "093234.107000", "093234.110000", "093234.113000", "093234.116000", "093234.119000", "093234.122000", "093234.125000", "093234.128000", "093234.130000", "093234.133000", "093234.136000", "093234.139000", "093234.142000", "093314.067000", "093314.070000", "093314.073000", "093314.076000", "093314.079000", "093314.082000", "093314.085000", "093314.088000", "093314.090000", "093314.093000", "093314.096000", "093314.099000", "093314.102000", "093314.105000", "093314.108000", "093314.111000", "093314.114000", "093314.116000", "093314.119000", "093314.122000", "093314.125000", "093314.128000", "093314.131000", "093314.134000", "093314.137000", "093314.140000", "093314.142000", "093354.066000", "093354.069000", "093354.072000", "093354.075000", "093354.078000", "093354.081000", "093354.084000", "093354.087000", "093354.090000", "093354.092000", "093354.095000", "093354.098000", "093354.101000", "093354.104000", "093354.107000", "093354.110000", "093354.113000", "093354.116000", "093354.119000", "093354.122000", "093354.125000", "093354.127000", "093354.130000", "093354.133000", "093354.136000", "093354.139000", "093354.142000", "093434.066000", "093434.069000", "093434.072000", "093434.075000", "093434.078000", "093434.081000", "093434.084000", "093434.087000", "093434.090000", "093434.092000", "093434.095000", "093434.098000", "093434.101000", "093434.104000", "093434.107000", "093434.110000", "093434.113000", "093434.116000", "093434.119000", "093434.121000", "093434.124000", "093434.127000", "093434.130000", "093434.133000", "093434.136000", "093434.139000", "093434.142000", "093514.066000", "093514.069000", "093514.072000", "093514.076000", "093514.079000", "093514.082000", "093514.101000", "093514.104000", "093514.107000", "093514.110000", "093514.113000", "093514.116000", "093514.119000", "093514.122000", "093514.125000", "093514.128000", "093514.131000", "093514.134000", "093514.136000", "093514.139000", "093514.142000", "093514.145000", "093514.148000", "093514.151000", "093514.154000", "093514.157000", "093554.066000", "093554.069000", "093554.072000", "093554.075000", "093554.082000", "093554.085000", "093554.087000", "093554.090000", "093554.093000", "093554.096000", "093554.099000", "093554.102000", "093554.105000", "093554.108000", "093554.111000", "093554.114000", "093554.117000", "093554.120000", "093554.123000", "093554.125000", "093554.128000", "093554.131000", "093554.134000", "093554.137000", "093554.140000", "093554.143000", "093554.146000", "093634.066000", "093634.069000", "093634.072000", "093634.075000", "093634.078000", "093634.081000", "093634.084000", "093634.087000", "093634.090000", "093634.093000", "093634.096000", "093634.099000", "093634.102000", "093634.105000", "093634.108000", "093634.111000", "093634.113000", "093634.116000", "093634.119000", "093634.122000", "093634.125000", "093634.128000", "093634.131000", "093634.134000", "093634.137000", "093634.140000", "093634.143000", "093714.066000", "093714.069000", "093714.072000", "093714.075000", "093714.078000", "093714.081000", "093714.084000", "093714.087000", "093714.089000", "093714.092000", "093714.095000", "093714.098000", "093714.101000", "093714.104000", "093714.107000", "093714.110000", "093714.113000", "093714.115000", "093714.118000", "093714.121000", "093714.124000", "093714.127000", "093714.130000", "093714.133000", "093714.136000", "093714.139000", "093714.142000", "093754.067000", "093754.070000", "093754.073000", "093754.076000", "093754.079000", "093754.082000", "093754.085000", "093754.088000", "093754.091000", "093754.094000", "093754.096000", "093754.099000", "093754.102000", "093754.105000", "093754.108000", "093754.111000", "093754.114000", "093754.117000", "093754.120000", "093754.123000", "093754.126000", "093754.128000", "093754.131000", "093754.134000", "093754.137000", "093754.140000", "093754.143000", "093823.479000", "093823.482000", "093823.485000", "093823.488000", "093823.491000", "093823.494000", "093823.497000", "093823.500000", "093823.503000", "093823.506000", "093823.509000", "093823.512000", "093823.515000", "093823.518000", "093823.521000", "093823.524000", "093823.527000", "093823.530000", "093823.533000", "093823.536000"],
