{
  "AcquisitionMatrixPE": 104,
  "AcquisitionNumber": 1,
  "AcquisitionTime": "10:03:0.482500",
  "BandwidthPerPixelPhaseEncode": 17.17,
  "BaseResolution": 104,
  "BodyPartExamined": "BRAIN",
  "CoilString": "HC1-7;NC1_2",
  "ConsistencyInfo": "N4_VE11C_LATEST_20160120",
  "ConversionSoftware": "dcm2niix",
  "ConversionSoftwareVersion": "v1.0.20190902",
  "DerivedVendorReportedEchoSpacing": 0.000560011,
  "DeviceSerialNumber": "167006",
  "DwellTime": 2.1e-06,
  "EchoTime": 0.037,
  "EchoTrainLength": 104,
  "EffectiveEchoSpacing": 0.000560011,
  "FlipAngle": 52,
  "ImageComments": "Unaliased_MB4_PE3_LB",
  "ImageOrientationPatientDICOM": [0.999983, 0.00415258, 0.00403995, -0.00157072, 0.865525, -0.500863],
  "ImageType": [
    "ORIGINAL",
    "PRIMARY",
    "M",
    "MB",
    "ND",
    "MOSAIC"
],
  "ImagingFrequency": 123.259,
  "InPlanePhaseEncodingDirectionDICOM": "COL",
  "InstitutionAddress": "Chemin_Queen-Mary_4565_Montreal_District_CA_H3W_1W5",
  "InstitutionName": "IUGM",
  "InstitutionalDepartmentName": "Department",
  "MRAcquisitionType": "2D",
  "MagneticFieldStrength": 3,
  "Manufacturer": "Siemens",
  "ManufacturersModelName": "Prisma_fit",
  "Modality": "MR",
  "MultibandAccelerationFactor": 4,
  "PartialFourier": 1,
  "PatientPosition": "HFS",
  "PercentPhaseFOV": 100,
  "PhaseEncodingDirection": "j",
  "PhaseEncodingSteps": 104,
  "PhaseResolution": 1,
  "PixelBandwidth": 2290,
  "ProcedureStepDescription": "video_friends",
  "ProtocolName": "func_task-friends-s03e19b",
  "PulseSequenceDetails": "%CustomerSeq%_cmrr_mbep2d_bold",
  "ReceiveCoilActiveElements": "HC1-7;NC1,2",
  "ReceiveCoilName": "HeadNeck_64",
  "ReconMatrixPE": 104,
  "RepetitionTime": 1.49,
  "SAR": 0.0352666,
  "ScanOptions": "FS",
  "ScanningSequence": "EP",
  "SequenceName": "epfid2d1_104",
  "SequenceVariant": "SK_SS",
  "SeriesDescription": "func_task-friends-s03e19b",
  "SeriesNumber": 15,
  "ShimSetting": [615, -7202, -8865, 429, -40, -230, -17, -24],
  "SliceThickness": 2,
  "SliceTiming": [0, 0.7825, 0.0975, 0.88, 0.195, 0.98, 0.2925, 1.0775, 0.39, 1.175, 0.49, 1.2725, 0.5875, 1.37, 0.685, 0, 0.7825, 0.0975, 0.88, 0.195, 0.98, 0.2925, 1.0775, 0.39, 1.175, 0.49, 1.2725, 0.5875, 1.37, 0.685, 0, 0.7825, 0.0975, 0.88, 0.195, 0.98, 0.2925, 1.0775, 0.39, 1.175, 0.49, 1.2725, 0.5875, 1.37, 0.685, 0, 0.7825, 0.0975, 0.88, 0.195, 0.98, 0.2925, 1.0775, 0.39, 1.175, 0.49, 1.2725, 0.5875, 1.37, 0.685],
  "SoftwareVersions": "syngo_MR_E11",
  "SpacingBetweenSlices": 2,
  "StationName": "MRC35049",
  "TaskName": "s03e19b",
  "TotalReadoutTime": 0.0576811,
  "TxRefAmp": 249.255,
  "WipMemBlock": "fb2236ee-518a-4547-93b5-a30eb1f4c354||Sequence: R016 ve11c/master r/e634e98; Dec 19 2017 11:00:25 by eja",
  "dcmmeta_affine": [
    [-1.9999663829803467, -0.003141447901725769, 0.01115310937166214, 102.83450317382812],
    [-0.008305161260068417, 1.7310497760772705, -1.0016974210739136, -59.18754577636719],
    [0.008079903200268745, 1.0017269849777222, 1.7310336828231812, -101.20421600341797],
    [0.0, 0.0, 0.0, 1.0]
],
  "dcmmeta_reorient_transform": [
    [0.0, -1.0, 0.0, 103.0],
    [1.0, 0.0, 0.0, 0.0],
    [0.0, 0.0, 1.0, 0.0],
    [0.0, 0.0, 0.0, 1.0]
],
  "dcmmeta_shape": [104, 104, 60, 468],
  "dcmmeta_slice_dim": 2,
  "dcmmeta_version": 0.6,
  "global": {
    "const": {
      "AcquisitionMatrix": [104, 0, 0, 104],
      "AngioFlag": "N",
      "BitsAllocated": 16,
      "BitsStored": 16,
      "BodyPartExamined": "BRAIN",
      "Columns": 832,
      "EchoNumbers": 1,
      "EchoTime": 37.0,
      "EchoTrainLength": 104,
      "FlipAngle": 52.0,
      "HighBit": 15,
      "ImageOrientationPatient": [0.99998321729065, 0.00415258076416, 0.00403995173609, -0.0015707239182, 0.86552486492405, -0.5008634954003],
      "ImagePositionPatient": [-829.35523263189, -752.2357564404, 363.66120444188],
      "ImageType": [
        "ORIGINAL",
        "PRIMARY",
        "M",
        "MB",
        "ND",
        "MOSAIC"
],
      "ImagedNucleus": "1H",
      "ImagingFrequency": 123.259374,
      "InPlanePhaseEncodingDirection": "COL",
      "MRAcquisitionType": "2D",
      "MagneticFieldStrength": 3.0,
      "Manufacturer": "SIEMENS",
      "ManufacturerModelName": "Prisma_fit",
      "Modality": "MR",
      "NumberOfAverages": 1.0,
      "NumberOfPhaseEncodingSteps": 104,
      "PercentPhaseFieldOfView": 100.0,
      "PercentSampling": 100.0,
      "PerformedProcedureStepStartTime": "085739.582000",
      "PhotometricInterpretation": "MONOCHROME2",
      "PixelBandwidth": 2290.0,
      "PixelRepresentation": 0,
      "PixelSpacing": [2.0, 2.0],
      "ProtocolName": "func_task-friends-s03e19b",
      "RepetitionTime": 1490.0,
      "Rows": 832,
      "SAR": 0.03526662801651,
      "SamplesPerPixel": 1,
      "ScanOptions": "FS",
      "ScanningSequence": "EP",
      "SequenceName": "epfid2d1_104",
      "SequenceVariant": [
        "SK",
        "SS"
],
      "SeriesDescription": "func_task-friends-s03e19b",
      "SeriesNumber": 15,
      "SeriesTime": "100414.099000",
      "SliceLocation": -57.37648446749,
      "SliceThickness": 2.0,
      "SmallestImagePixelValue": 0,
      "SoftwareVersions": "syngo MR E11",
      "SpacingBetweenSlices": 1.9999999850889,
      "SpecificCharacterSet": "ISO_IR 100",
      "StudyID": "1",
      "StudyTime": "085739.415000",
      "TransmitCoilName": "Body",
      "VariableFlipAngleFlag": "N",
      "WindowCenterWidthExplanation": "Algo1",
      "dBdt": 0.0},
    "slices": {}
  },
  "time": {
    "samples": {
      "AcquisitionNumber": [1, 2, 3, 4, 5, 6, 7, 8, 9, 10, 11, 12, 13, 14, 15, 16, 17, 18, 19, 20, 21, 22, 23, 24, 25, 26, 27, 28, 29, 30, 31, 32, 33, 34, 35, 36, 37, 38, 39, 40, 41, 42, 43, 44, 45, 46, 47, 48, 49, 50, 51, 52, 53, 54, 55, 56, 57, 58, 59, 60, 61, 62, 63, 64, 65, 66, 67, 68, 69, 70, 71, 72, 73, 74, 75, 76, 77, 78, 79, 80, 81, 82, 83, 84, 85, 86, 87, 88, 89, 90, 91, 92, 93, 94, 95, 96, 97, 98, 99, 100, 101, 102, 103, 104, 105, 106, 107, 108, 109, 110, 111, 112, 113, 114, 115, 116, 117, 118, 119, 120, 121, 122, 123, 124, 125, 126, 127, 128, 129, 130, 131, 132, 133, 134, 135, 136, 137, 138, 139, 140, 141, 142, 143, 144, 145, 146, 147, 148, 149, 150, 151, 152, 153, 154, 155, 156, 157, 158, 159, 160, 161, 162, 163, 164, 165, 166, 167, 168, 169, 170, 171, 172, 173, 174, 175, 176, 177, 178, 179, 180, 181, 182, 183, 184, 185, 186, 187, 188, 189, 190, 191, 192, 193, 194, 195, 196, 197, 198, 199, 200, 201, 202, 203, 204, 205, 206, 207, 208, 209, 210, 211, 212, 213, 214, 215, 216, 217, 218, 219, 220, 221, 222, 223, 224, 225, 226, 227, 228, 229, 230, 231, 232, 233, 234, 235, 236, 237, 238, 239, 240, 241, 242, 243, 244, 245, 246, 247, 248, 249, 250, 251, 252, 253, 254, 255, 256, 257, 258, 259, 260, 261, 262, 263, 264, 265, 266, 267, 268, 269, 270, 271, 272, 273, 274, 275, 276, 277, 278, 279, 280, 281, 282, 283, 284, 285, 286, 287, 288, 289, 290, 291, 292, 293, 294, 295, 296, 297, 298, 299, 300, 301, 302, 303, 304, 305, 306, 307, 308, 309, 310, 311, 312, 313, 314, 315, 316, 317, 318, 319, 320, 321, 322, 323, 324, 325, 326, 327, 328, 329, 330, 331, 332, 333, 334, 335, 336, 337, 338, 339, 340, 341, 342, 343, 344, 345, 346, 347, 348, 349, 350, 351, 352, 353, 354, 355, 356, 357, 358, 359, 360, 361, 362, 363, 364, 365, 366, 367, 368, 369, 370, 371, 372, 373, 374, 375, 376, 377, 378, 379, 380, 381, 382, 383, 384, 385, 386, 387, 388, 389, 390, 391, 392, 393, 394, 395, 396, 397, 398, 399, 400, 401, 402, 403, 404, 405, 406, 407, 408, 409, 410, 411, 412, 413, 414, 415, 416, 417, 418, 419, 420, 421, 422, 423, 424, 425, 426, 427, 428, 429, 430, 431, 432, 433, 434, 435, 436, 437, 438, 439, 440, 441, 442, 443, 444, 445, 446, 447, 448, 449, 450, 451, 452, 453, 454, 455, 456, 457, 458, 459, 460, 461, 462, 463, 464, 465, 466, 467, 468],
      "AcquisitionTime": ["100300.482500", "100301.972500", "100303.462500", "100304.952500", "100306.442500", "100307.932500", "100309.422500", "100310.912500", "100312.402500", "100313.892500", "100315.382500", "100316.872500", "100318.362500", "100319.852500", "100321.342500", "100322.832500", "100324.322500", "100325.812500", "100327.302500", "100328.792500", "100330.282500", "100331.772500", "100333.262500", "100334.752500", "100336.242500", "100337.732500", "100339.222500", "100340.712500", "100342.202500", "100343.692500", "100345.182500", "100346.672500", "100348.162500", "100349.652500", "100351.142500", "100352.632500", "100354.122500", "100355.612500", "100357.102500", "100358.592500", "100400.082500", "100401.572500", "100403.062500", "100404.552500", "100406.042500", "100407.532500", "100409.022500", "100410.512500", "100412.002500", "100413.492500", "100414.982500", "100416.472500", "100417.962500", "100419.452500", "100420.942500", "100422.432500", "100423.922500", "100425.412500", "100426.902500", "100428.392500", "100429.882500", "100431.372500", "100432.862500", "100434.352500", "100435.842500", "100437.332500", "100438.822500", "100440.312500", "100441.802500", "100443.292500", "100444.782500", "100446.272500", "100447.762500", "100449.252500", "100450.742500", "100452.232500", "100453.722500", "100455.212500", "100456.702500", "100458.192500", "100459.682500", "100501.172500", "100502.662500", "100504.152500", "100505.642500", "100507.132500", "100508.622500", "100510.112500", "100511.602500", "100513.092500", "100514.582500", "100516.072500", "100517.562500", "100519.052500", "100520.542500", "100522.032500", "100523.522500", "100525.012500", "100526.502500", "100527.992500", "100529.482500", "100530.972500", "100532.462500", "100533.952500", "100535.442500", "100536.932500", "100538.422500", "100539.912500", "100541.402500", "100542.892500", "100544.382500", "100545.872500", "100547.362500", "100548.852500", "100550.342500", "100551.832500", "100553.322500", "100554.812500", "100556.302500", "100557.792500", "100559.282500", "100600.772500", "100602.262500", "100603.752500", "100605.242500", "100606.732500", "100608.222500", "100609.712500", "100611.202500", "100612.692500", "100614.182500", "100615.672500", "100617.162500", "100618.652500", "100620.142500", "100621.632500", "100623.122500", "100624.612500", "100626.102500", "100627.592500", "100629.082500", "100630.572500", "100632.062500", "100633.552500", "100635.042500", "100636.532500", "100638.022500", "100639.512500", "100641.002500", "100642.492500", "100643.982500", "100645.472500", "100646.962500", "100648.452500", "100649.942500", "100651.432500", "100652.922500", "100654.412500", "100655.902500", "100657.392500", "100658.882500", "100700.372500", "100701.862500", "100703.352500", "100704.842500", "100706.332500", "100707.822500", "100709.312500", "100710.802500", "100712.292500", "100713.782500", "100715.272500", "100716.762500", "100718.252500", "100719.742500", "100721.232500", "100722.722500", "100724.212500", "100725.702500", "100727.192500", "100728.682500", "100730.172500", "100731.662500", "100733.152500", "100734.642500", "100736.132500", "100737.622500", "100739.112500", "100740.602500", "100742.092500", "100743.582500", "100745.072500", "100746.562500", "100748.052500", "100749.542500", "100751.032500", "100752.522500", "100754.012500", "100755.502500", "100756.992500", "100758.482500", "100759.972500", "100801.462500", "100802.952500", "100804.442500", "100805.932500", "100807.422500", "100808.912500", "100810.402500", "100811.892500", "100813.382500", "100814.872500", "100816.362500", "100817.852500", "100819.342500", "100820.832500", "100822.322500", "100823.812500", "100825.302500", "100826.792500", "100828.282500", "100829.772500", "100831.262500", "100832.752500", "100834.242500", "100835.732500", "100837.222500", "100838.712500", "100840.202500", "100841.692500", "100843.182500", "100844.672500", "100846.162500", "100847.652500", "100849.142500", "100850.632500", "100852.122500", "100853.612500", "100855.102500", "100856.592500", "100858.082500", "100859.572500", "100901.062500", "100902.552500", "100904.042500", "100905.532500", "100907.022500", "100908.512500", "100910.002500", "100911.492500", "100912.982500", "100914.472500", "100915.962500", "100917.452500", "100918.942500", "100920.432500", "100921.922500", "100923.412500", "100924.902500", "100926.392500", "100927.882500", "100929.372500", "100930.862500", "100932.352500", "100933.842500", "100935.332500", "100936.822500", "100938.312500", "100939.802500", "100941.292500", "100942.782500", "100944.272500", "100945.762500", "100947.252500", "100948.742500", "100950.232500", "100951.722500", "100953.212500", "100954.702500", "100956.192500", "100957.682500", "100959.172500", "101000.662500", "101002.152500", "101003.642500", "101005.132500", "101006.622500", "101008.112500", "101009.602500", "101011.092500", "101012.582500", "101014.072500", "101015.562500", "101017.052500", "101018.542500", "101020.032500", "101021.522500", "101023.012500", "101024.502500", "101025.992500", "101027.482500", "101028.972500", "101030.462500", "101031.952500", "101033.442500", "101034.932500", "101036.422500", "101037.912500", "101039.402500", "101040.892500", "101042.382500", "101043.872500", "101045.362500", "101046.852500", "101048.342500", "101049.832500", "101051.322500", "101052.812500", "101054.302500", "101055.792500", "101057.282500", "101058.772500", "101100.262500", "101101.752500", "101103.242500", "101104.732500", "101106.222500", "101107.712500", "101109.202500", "101110.692500", "101112.182500", "101113.672500", "101115.162500", "101116.652500", "101118.142500", "101119.632500", "101121.122500", "101122.612500", "101124.102500", "101125.592500", "101127.082500", "101128.572500", "101130.062500", "101131.552500", "101133.042500", "101134.532500", "101136.022500", "101137.512500", "101139.002500", "101140.492500", "101141.982500", "101143.472500", "101144.962500", "101146.452500", "101147.942500", "101149.432500", "101150.922500", "101152.412500", "101153.902500", "101155.392500", "101156.882500", "101158.372500", "101159.862500", "101201.352500", "101202.842500", "101204.332500", "101205.822500", "101207.312500", "101208.802500", "101210.292500", "101211.782500", "101213.272500", "101214.762500", "101216.252500", "101217.742500", "101219.232500", "101220.722500", "101222.212500", "101223.702500", "101225.192500", "101226.682500", "101228.172500", "101229.662500", "101231.152500", "101232.642500", "101234.132500", "101235.622500", "101237.112500", "101238.602500", "101240.092500", "101241.582500", "101243.072500", "101244.562500", "101246.052500", "101247.542500", "101249.032500", "101250.522500", "101252.012500", "101253.502500", "101254.992500", "101256.482500", "101257.972500", "101259.462500", "101300.952500", "101302.442500", "101303.932500", "101305.422500", "101306.912500", "101308.402500", "101309.892500", "101311.382500", "101312.872500", "101314.362500", "101315.852500", "101317.342500", "101318.832500", "101320.322500", "101321.812500", "101323.302500", "101324.792500", "101326.282500", "101327.772500", "101329.262500", "101330.752500", "101332.242500", "101333.732500", "101335.222500", "101336.712500", "101338.202500", "101339.692500", "101341.182500", "101342.672500", "101344.162500", "101345.652500", "101347.142500", "101348.632500", "101350.122500", "101351.612500", "101353.102500", "101354.592500", "101356.082500", "101357.572500", "101359.062500", "101400.552500", "101402.042500", "101403.532500", "101405.022500", "101406.512500", "101408.002500", "101409.492500", "101410.982500", "101412.472500", "101413.962500", "101415.452500", "101416.942500", "101418.432500", "101419.922500", "101421.412500", "101422.902500", "101424.392500", "101425.882500", "101427.372500", "101428.862500", "101430.352500", "101431.842500", "101433.332500", "101434.822500", "101436.312500"],
      "ContentTime": ["100414.102000", "100414.105000", "100414.108000", "100414.111000", "100414.114000", "100414.117000", "100414.120000", "100414.123000", "100414.126000", "100414.137000", "100414.141000", "100414.144000", "100414.146000", "100414.149000", "100414.157000", "100414.160000", "100414.163000", "100414.166000", "100414.169000", "100434.066000", "100434.069000", "100434.072000", "100434.075000", "100434.078000", "100434.099000", "100434.102000", "100434.105000", "100434.107000", "100434.110000", "100434.113000", "100434.116000", "100434.119000", "100434.122000", "100434.125000", "100434.128000", "100434.131000", "100434.134000", "100434.137000", "100434.140000", "100454.066000", "100454.069000", "100454.072000", "100454.075000", "100454.078000", "100454.081000", "100454.084000", "100454.087000", "100454.090000", "100454.093000", "100454.096000", "100454.099000", "100454.102000", "100454.104000", "100454.108000", "100454.110000", "100454.113000", "100454.120000", "100454.123000", "100454.126000", "100514.066000", "100514.069000", "100514.072000", "100514.075000", "100514.078000", "100514.081000", "100514.084000", "100514.087000", "100514.090000", "100514.093000", "100514.096000", "100514.099000", "100514.102000", "100514.105000", "100514.108000", "100514.110000", "100514.113000", "100514.116000", "100514.119000", "100514.122000", "100534.067000", "100534.070000", "100534.073000", "100534.076000", "100534.079000", "100534.082000", "100534.085000", "100534.088000", "100534.091000", "100534.094000", "100534.097000", "100534.100000", "100534.103000", "100534.106000", "100534.109000", "100534.112000", "100534.115000", "100534.118000", "100534.121000", "100534.124000", "100614.066000", "100614.069000", "100614.072000", "100614.075000", "100614.078000", "100614.081000", "100614.084000", "100614.087000", "100614.090000", "100614.093000", "100614.096000", "100614.099000", "100614.102000", "100614.104000", "100614.108000", "100614.110000", "100614.113000", "100614.116000", "100614.119000", "100614.122000", "100614.125000", "100614.128000", "100614.131000", "100614.134000", "100614.137000", "100614.140000", "100614.143000", "100614.146000", "100614.149000", "100614.152000", "100654.066000", "100654.069000", "100654.072000", "100654.075000", "100654.078000", "100654.081000", "100654.084000", "100654.087000", "100654.090000", "100654.093000", "100654.096000", "100654.099000", "100654.102000", "100654.105000", "100654.108000", "100654.111000", "100654.114000", "100654.117000", "100654.120000", "100654.123000", "100654.126000", "100654.128000", "100654.131000", "100654.134000", "100654.137000", "100654.140000", "100654.143000", "100734.066000", "100734.075000", "100734.078000", "100734.081000", "100734.084000", "100734.087000", "100734.090000", "100734.093000", "100734.096000", "100734.099000", "100734.102000", "100734.105000", "100734.108000", "100734.111000", "100734.114000", "100734.117000", "100734.120000", "100734.123000", "100734.126000", "100734.129000", "100734.132000", "100734.135000", "100734.138000", "100734.140000", "100734.143000", "100734.146000", "100734.149000", "100814.066000", "100814.069000", "100814.072000", "100814.075000", "100814.078000", "100814.081000", "100814.084000", "100814.087000", "100814.090000", "100814.093000", "100814.096000", "100814.100000", "100814.103000", "100814.106000", "100814.109000", "100814.112000", "100814.115000", "100814.118000", "100814.121000", "100814.124000", "100814.127000", "100814.130000", "100814.133000", "100814.136000", "100814.139000", "100814.142000", "100854.066000", "100854.069000", "100854.072000", "100854.075000", "100854.078000", "100854.081000", "100854.084000", "100854.087000", "100854.090000", "100854.093000", "100854.096000", "100854.098000", "100854.125000", "100854.128000", "100854.131000", "100854.134000", "100854.136000", "100854.139000", "100854.142000", "100854.145000", "100854.148000", "100854.151000", "100854.154000", "100854.157000", "100854.160000", "100854.163000", "100854.166000", "100934.066000", "100934.069000", "100934.072000", "100934.075000", "100934.078000", "100934.081000", "100934.084000", "100934.087000", "100934.090000", "100934.093000", "100934.095000", "100934.098000", "100934.101000", "100934.104000", "100934.107000", "100934.110000", "100934.113000", "100934.116000", "100934.119000", "100934.122000", "100934.125000", "100934.128000", "100934.131000", "100934.134000", "100934.137000", "100934.140000", "100934.143000", "101014.067000", "101014.070000", "101014.073000", "101014.076000", "101014.079000", "101014.082000", "101014.085000", "101014.088000", "101014.091000", "101014.094000", "101014.097000", "101014.100000", "101014.103000", "101014.106000", "101014.108000", "101014.111000", "101014.114000", "101014.117000", "101014.120000", "101014.123000", "101014.126000", "101014.129000", "101014.132000", "101014.135000", "101014.138000", "101014.141000", "101014.144000", "101054.066000", "101054.069000", "101054.072000", "101054.075000", "101054.078000", "101054.081000", "101054.084000", "101054.095000", "101054.098000", "101054.101000", "101054.104000", "101054.107000", "101054.110000", "101054.113000", "101054.116000", "101054.119000", "101054.122000", "101054.125000", "101054.128000", "101054.131000", "101054.134000", "101054.137000", "101054.139000", "101054.142000", "101054.145000", "101054.148000", "101054.151000", "101134.066000", "101134.069000", "101134.072000", "101134.075000", "101134.078000", "101134.081000", "101134.084000", "101134.087000", "101134.090000", "101134.093000", "101134.099000", "101134.102000", "101134.104000", "101134.107000", "101134.110000", "101134.113000", "101134.116000", "101134.119000", "101134.122000", "101134.125000", "101134.128000", "101134.131000", "101134.134000", "101134.137000", "101134.140000", "101134.143000", "101134.146000", "101214.066000", "101214.069000", "101214.072000", "101214.075000", "101214.078000", "101214.081000", "101214.084000", "101214.087000", "101214.090000", "101214.093000", "101214.096000", "101214.099000", "101214.102000", "101214.105000", "101214.108000", "101214.111000", "101214.114000", "101214.117000", "101214.120000", "101214.123000", "101214.126000", "101214.129000", "101214.132000", "101214.135000", "101214.138000", "101214.141000", "101214.144000", "101254.066000", "101254.069000", "101254.072000", "101254.075000", "101254.078000", "101254.082000", "101254.085000", "101254.088000", "101254.091000", "101254.094000", "101254.097000", "101254.100000", "101254.103000", "101254.106000", "101254.109000", "101254.112000", "101254.115000", "101254.118000", "101254.121000", "101254.124000", "101254.127000", "101254.130000", "101254.133000", "101254.136000", "101254.139000", "101254.142000", "101314.066000", "101314.069000", "101314.072000", "101314.075000", "101314.078000", "101314.081000", "101314.084000", "101314.087000", "101314.101000", "101314.104000", "101314.107000", "101314.110000", "101314.113000", "101314.116000", "101354.066000", "101354.069000", "101354.072000", "101354.075000", "101354.078000", "101354.081000", "101354.084000", "101354.087000", "101354.090000", "101354.093000", "101354.096000", "101354.099000", "101354.102000", "101354.105000", "101354.107000", "101354.110000", "101354.113000", "101354.116000", "101354.119000", "101354.122000", "101354.125000", "101354.128000", "101354.131000", "101354.134000", "101354.137000", "101354.140000", "101354.143000", "101434.066000", "101434.069000", "101434.072000", "101434.075000", "101434.078000", "101434.081000", "101434.084000", "101434.087000", "101434.090000", "101434.093000", "101434.096000", "101434.099000", "101434.102000", "101434.105000", "101434.108000", "101434.116000", "101434.119000", "101434.122000", "101434.125000", "101434.128000", "101434.131000", "101434.134000", "101434.137000", "101434.140000", "101434.143000", "101434.146000", "101434.149000", "101438.576000", "101438.579000", "101438.582000"],
