{
  "AcquisitionMatrixPE": 104,
  "AcquisitionNumber": 1,
  "AcquisitionTime": "10:57:47.402500",
  "BandwidthPerPixelPhaseEncode": 17.17,
  "BaseResolution": 104,
  "BodyPartExamined": "BRAIN",
  "CoilString": "HC1-7;NC1_2",
  "ConsistencyInfo": "N4_VE11C_LATEST_20160120",
  "ConversionSoftware": "dcm2niix",
  "ConversionSoftwareVersion": "v1.0.20190720  (JP2:OpenJPEG) GCC7.3.0",
  "DerivedVendorReportedEchoSpacing": 0.000560011,
  "DeviceSerialNumber": "167006",
  "DwellTime": 2.1e-06,
  "EchoTime": 0.037,
  "EchoTrainLength": 104,
  "EffectiveEchoSpacing": 0.000560011,
  "FlipAngle": 52,
  "ImageComments": "Unaliased_MB4_PE3_LB",
  "ImageOrientationPatientDICOM": [0.996846, 0.0173463, -0.0774415, -0.0348106, 0.972507, -0.230256],
  "ImageType": [
    "ORIGINAL",
    "PRIMARY",
    "M",
    "MB",
    "ND",
    "MOSAIC"
],
  "ImagingFrequency": 123.259,
  "InPlanePhaseEncodingDirectionDICOM": "COL",
  "InstitutionAddress": "Chemin_Queen-Mary_4565_Montreal_District_CA_H3W_1W5",
  "InstitutionName": "IUGM",
  "InstitutionalDepartmentName": "Department",
  "MRAcquisitionType": "2D",
  "MagneticFieldStrength": 3,
  "Manufacturer": "Siemens",
  "ManufacturersModelName": "Prisma_fit",
  "Modality": "MR",
  "MultibandAccelerationFactor": 4,
  "PartialFourier": 1,
  "PatientPosition": "HFS",
  "PercentPhaseFOV": 100,
  "PhaseEncodingDirection": "j",
  "PhaseEncodingSteps": 104,
  "PhaseResolution": 1,
  "PixelBandwidth": 2290,
  "ProcedureStepDescription": "video_friends",
  "ProtocolName": "func_task-s01e05b",
  "PulseSequenceDetails": "%CustomerSeq%_cmrr_mbep2d_bold",
  "ReceiveCoilActiveElements": "HC1-7;NC1,2",
  "ReceiveCoilName": "HeadNeck_64",
  "ReconMatrixPE": 104,
  "RepetitionTime": 1.49,
  "SAR": 0.0337331,
  "ScanOptions": "FS",
  "ScanningSequence": "EP",
  "SequenceName": "epfid2d1_104",
  "SequenceVariant": "SK_SS",
  "SeriesDescription": "func_task-s01e05b",
  "SeriesNumber": 15,
  "ShimSetting": [597, -7253, -8839, 558, -49, -264, 7, 58],
  "SliceThickness": 2,
  "SliceTiming": [0, 0.785, 0.0975, 0.8825, 0.1975, 0.98, 0.295, 1.0775, 0.3925, 1.1775, 0.49, 1.275, 0.5875, 1.3725, 0.6875, 0, 0.785, 0.0975, 0.8825, 0.1975, 0.98, 0.295, 1.0775, 0.3925, 1.1775, 0.49, 1.275, 0.5875, 1.3725, 0.6875, 0, 0.785, 0.0975, 0.8825, 0.1975, 0.98, 0.295, 1.0775, 0.3925, 1.1775, 0.49, 1.275, 0.5875, 1.3725, 0.6875, 0, 0.785, 0.0975, 0.8825, 0.1975, 0.98, 0.295, 1.0775, 0.3925, 1.1775, 0.49, 1.275, 0.5875, 1.3725, 0.6875],
  "SoftwareVersions": "syngo_MR_E11",
  "SpacingBetweenSlices": 2,
  "StationName": "MRC35049",
  "TaskName": "friends",
  "TotalReadoutTime": 0.0576811,
  "TxRefAmp": 220.08,
  "WipMemBlock": "5614e2fb-a431-42fb-b910-70559f21a215||Sequence: R016 ve11c/master r/e634e98; Dec 19 2017 11:00:25 by eja",
  "dcmmeta_affine": [
    [-1.9936919212341309, -0.069621242582798, -0.1426365226507187, 105.87299346923828],
    [-0.0346926674246788, 1.9450143575668335, -0.4644520580768585, -80.86349487304688],
    [-0.15488290786743164, 0.4605129361152649, 1.9400874376296997, -48.75729751586914],
    [0.0, 0.0, 0.0, 1.0]
],
  "dcmmeta_reorient_transform": [
    [0.0, -1.0, 0.0, 103.0],
    [1.0, 0.0, 0.0, 0.0],
    [0.0, 0.0, 1.0, 0.0],
    [0.0, 0.0, 0.0, 1.0]
],
  "dcmmeta_shape": [104, 104, 60, 488],
  "dcmmeta_slice_dim": 2,
  "dcmmeta_version": 0.6,
  "global": {
    "const": {
      "AcquisitionMatrix": [104, 0, 0, 104],
      "AngioFlag": "N",
      "BitsAllocated": 16,
      "BitsStored": 16,
      "BodyPartExamined": "BRAIN",
      "Columns": 832,
      "EchoNumbers": 1,
      "EchoTime": 37.0,
      "EchoTrainLength": 104,
      "FlipAngle": 52.0,
      "HighBit": 15,
      "ImageOrientationPatient": [0.99684598930748, 0.01734633404694, -0.0774414507659, -0.0348106221913, 0.97250716137125, -0.2302564693213],
      "ImagePositionPatient": [-799.06375085822, -840.08632359626, 222.6796191585],
      "ImageType": [
        "ORIGINAL",
        "PRIMARY",
        "M",
        "MB",
        "ND",
        "MOSAIC"
],
      "ImagedNucleus": "1H",
      "ImagingFrequency": 123.259143,
      "InPlanePhaseEncodingDirection": "COL",
      "MRAcquisitionType": "2D",
      "MagneticFieldStrength": 3.0,
      "Manufacturer": "SIEMENS",
      "ManufacturerModelName": "Prisma_fit",
      "Modality": "MR",
      "NumberOfAverages": 1.0,
      "NumberOfPhaseEncodingSteps": 104,
      "PercentPhaseFieldOfView": 100.0,
      "PercentSampling": 100.0,
      "PerformedProcedureStepStartTime": "100210.226000",
      "PhotometricInterpretation": "MONOCHROME2",
      "PixelBandwidth": 2290.0,
      "PixelRepresentation": 0,
      "PixelSpacing": [2.0, 2.0],
      "ProtocolName": "func_task-s01e05b",
      "RepetitionTime": 1490.0,
      "Rows": 832,
      "SAR": 0.0337330932512,
      "SamplesPerPixel": 1,
      "ScanOptions": "FS",
      "ScanningSequence": "EP",
      "SequenceName": "epfid2d1_104",
      "SequenceVariant": [
        "SK",
        "SS"
],
      "SeriesDescription": "func_task-s01e05b",
      "SeriesNumber": 15,
      "SeriesTime": "105846.188000",
      "SliceLocation": -36.068780439971,
      "SliceThickness": 2.0,
      "SmallestImagePixelValue": 0,
      "SoftwareVersions": "syngo MR E11",
      "SpacingBetweenSlices": 2.0000000071786,
      "SpecificCharacterSet": "ISO_IR 100",
      "StudyID": "1",
      "StudyTime": "100210.056000",
      "TransmitCoilName": "Body",
      "VariableFlipAngleFlag": "N",
      "WindowCenterWidthExplanation": "Algo1",
      "dBdt": 0.0},
    "slices": {}
  },
  "time": {
    "samples": {
      "AcquisitionNumber": [1, 2, 3, 4, 5, 6, 7, 8, 9, 10, 11, 12, 13, 14, 15, 16, 17, 18, 19, 20, 21, 22, 23, 24, 25, 26, 27, 28, 29, 30, 31, 32, 33, 34, 35, 36, 37, 38, 39, 40, 41, 42, 43, 44, 45, 46, 47, 48, 49, 50, 51, 52, 53, 54, 55, 56, 57, 58, 59, 60, 61, 62, 63, 64, 65, 66, 67, 68, 69, 70, 71, 72, 73, 74, 75, 76, 77, 78, 79, 80, 81, 82, 83, 84, 85, 86, 87, 88, 89, 90, 91, 92, 93, 94, 95, 96, 97, 98, 99, 100, 101, 102, 103, 104, 105, 106, 107, 108, 109, 110, 111, 112, 113, 114, 115, 116, 117, 118, 119, 120, 121, 122, 123, 124, 125, 126, 127, 128, 129, 130, 131, 132, 133, 134, 135, 136, 137, 138, 139, 140, 141, 142, 143, 144, 145, 146, 147, 148, 149, 150, 151, 152, 153, 154, 155, 156, 157, 158, 159, 160, 161, 162, 163, 164, 165, 166, 167, 168, 169, 170, 171, 172, 173, 174, 175, 176, 177, 178, 179, 180, 181, 182, 183, 184, 185, 186, 187, 188, 189, 190, 191, 192, 193, 194, 195, 196, 197, 198, 199, 200, 201, 202, 203, 204, 205, 206, 207, 208, 209, 210, 211, 212, 213, 214, 215, 216, 217, 218, 219, 220, 221, 222, 223, 224, 225, 226, 227, 228, 229, 230, 231, 232, 233, 234, 235, 236, 237, 238, 239, 240, 241, 242, 243, 244, 245, 246, 247, 248, 249, 250, 251, 252, 253, 254, 255, 256, 257, 258, 259, 260, 261, 262, 263, 264, 265, 266, 267, 268, 269, 270, 271, 272, 273, 274, 275, 276, 277, 278, 279, 280, 281, 282, 283, 284, 285, 286, 287, 288, 289, 290, 291, 292, 293, 294, 295, 296, 297, 298, 299, 300, 301, 302, 303, 304, 305, 306, 307, 308, 309, 310, 311, 312, 313, 314, 315, 316, 317, 318, 319, 320, 321, 322, 323, 324, 325, 326, 327, 328, 329, 330, 331, 332, 333, 334, 335, 336, 337, 338, 339, 340, 341, 342, 343, 344, 345, 346, 347, 348, 349, 350, 351, 352, 353, 354, 355, 356, 357, 358, 359, 360, 361, 362, 363, 364, 365, 366, 367, 368, 369, 370, 371, 372, 373, 374, 375, 376, 377, 378, 379, 380, 381, 382, 383, 384, 385, 386, 387, 388, 389, 390, 391, 392, 393, 394, 395, 396, 397, 398, 399, 400, 401, 402, 403, 404, 405, 406, 407, 408, 409, 410, 411, 412, 413, 414, 415, 416, 417, 418, 419, 420, 421, 422, 423, 424, 425, 426, 427, 428, 429, 430, 431, 432, 433, 434, 435, 436, 437, 438, 439, 440, 441, 442, 443, 444, 445, 446, 447, 448, 449, 450, 451, 452, 453, 454, 455, 456, 457, 458, 459, 460, 461, 462, 463, 464, 465, 466, 467, 468, 469, 470, 471, 472, 473, 474, 475, 476, 477, 478, 479, 480, 481, 482, 483, 484, 485, 486, 487, 488],
      "AcquisitionTime": ["105747.402500", "105748.892500", "105750.382500", "105751.872500", "105753.362500", "105754.852500", "105756.342500", "105757.832500", "105759.322500", "105800.812500", "105802.302500", "105803.792500", "105805.282500", "105806.772500", "105808.262500", "105809.752500", "105811.242500", "105812.732500", "105814.222500", "105815.712500", "105817.202500", "105818.692500", "105820.182500", "105821.672500", "105823.162500", "105824.652500", "105826.142500", "105827.632500", "105829.122500", "105830.612500", "105832.102500", "105833.592500", "105835.082500", "105836.572500", "105838.062500", "105839.552500", "105841.042500", "105842.532500", "105844.022500", "105845.512500", "105847.002500", "105848.492500", "105849.982500", "105851.472500", "105852.962500", "105854.452500", "105855.942500", "105857.432500", "105858.922500", "105900.412500", "105901.902500", "105903.392500", "105904.882500", "105906.372500", "105907.862500", "105909.352500", "105910.842500", "105912.332500", "105913.822500", "105915.312500", "105916.802500", "105918.292500", "105919.782500", "105921.272500", "105922.762500", "105924.252500", "105925.742500", "105927.232500", "105928.722500", "105930.212500", "105931.702500", "105933.192500", "105934.682500", "105936.172500", "105937.662500", "105939.152500", "105940.642500", "105942.132500", "105943.622500", "105945.112500", "105946.602500", "105948.092500", "105949.582500", "105951.072500", "105952.562500", "105954.052500", "105955.542500", "105957.032500", "105958.522500", "110000.012500", "110001.502500", "110002.992500", "110004.482500", "110005.972500", "110007.462500", "110008.952500", "110010.442500", "110011.932500", "110013.422500", "110014.912500", "110016.402500", "110017.892500", "110019.382500", "110020.872500", "110022.362500", "110023.852500", "110025.342500", "110026.832500", "110028.322500", "110029.812500", "110031.302500", "110032.792500", "110034.282500", "110035.772500", "110037.262500", "110038.752500", "110040.242500", "110041.732500", "110043.222500", "110044.712500", "110046.202500", "110047.692500", "110049.182500", "110050.672500", "110052.162500", "110053.652500", "110055.142500", "110056.632500", "110058.122500", "110059.612500", "110101.102500", "110102.592500", "110104.082500", "110105.572500", "110107.062500", "110108.552500", "110110.042500", "110111.532500", "110113.022500", "110114.512500", "110116.002500", "110117.492500", "110118.982500", "110120.472500", "110121.962500", "110123.452500", "110124.942500", "110126.432500", "110127.922500", "110129.412500", "110130.902500", "110132.392500", "110133.882500", "110135.372500", "110136.862500", "110138.352500", "110139.842500", "110141.332500", "110142.822500", "110144.312500", "110145.802500", "110147.292500", "110148.782500", "110150.272500", "110151.762500", "110153.252500", "110154.742500", "110156.232500", "110157.722500", "110159.212500", "110200.702500", "110202.192500", "110203.682500", "110205.172500", "110206.662500", "110208.152500", "110209.642500", "110211.132500", "110212.622500", "110214.112500", "110215.602500", "110217.092500", "110218.582500", "110220.072500", "110221.562500", "110223.052500", "110224.542500", "110226.032500", "110227.522500", "110229.012500", "110230.502500", "110231.992500", "110233.482500", "110234.972500", "110236.462500", "110237.952500", "110239.442500", "110240.932500", "110242.422500", "110243.912500", "110245.402500", "110246.892500", "110248.382500", "110249.872500", "110251.362500", "110252.852500", "110254.342500", "110255.832500", "110257.322500", "110258.812500", "110300.302500", "110301.792500", "110303.282500", "110304.772500", "110306.262500", "110307.752500", "110309.242500", "110310.732500", "110312.222500", "110313.712500", "110315.202500", "110316.692500", "110318.182500", "110319.672500", "110321.162500", "110322.652500", "110324.142500", "110325.632500", "110327.122500", "110328.612500", "110330.102500", "110331.592500", "110333.082500", "110334.572500", "110336.062500", "110337.552500", "110339.042500", "110340.532500", "110342.022500", "110343.512500", "110345.002500", "110346.492500", "110347.982500", "110349.472500", "110350.962500", "110352.452500", "110353.942500", "110355.432500", "110356.922500", "110358.412500", "110359.902500", "110401.392500", "110402.882500", "110404.372500", "110405.862500", "110407.352500", "110408.842500", "110410.332500", "110411.822500", "110413.312500", "110414.802500", "110416.292500", "110417.782500", "110419.272500", "110420.762500", "110422.252500", "110423.742500", "110425.232500", "110426.722500", "110428.212500", "110429.702500", "110431.192500", "110432.682500", "110434.172500", "110435.662500", "110437.152500", "110438.642500", "110440.132500", "110441.622500", "110443.112500", "110444.602500", "110446.092500", "110447.582500", "110449.072500", "110450.562500", "110452.052500", "110453.542500", "110455.032500", "110456.522500", "110458.012500", "110459.502500", "110500.992500", "110502.482500", "110503.972500", "110505.462500", "110506.952500", "110508.442500", "110509.932500", "110511.422500", "110512.912500", "110514.402500", "110515.892500", "110517.382500", "110518.872500", "110520.362500", "110521.852500", "110523.342500", "110524.832500", "110526.322500", "110527.812500", "110529.302500", "110530.792500", "110532.282500", "110533.772500", "110535.262500", "110536.752500", "110538.242500", "110539.732500", "110541.222500", "110542.712500", "110544.202500", "110545.692500", "110547.182500", "110548.672500", "110550.162500", "110551.652500", "110553.142500", "110554.632500", "110556.122500", "110557.612500", "110559.102500", "110600.592500", "110602.082500", "110603.572500", "110605.062500", "110606.552500", "110608.042500", "110609.532500", "110611.022500", "110612.512500", "110614.002500", "110615.492500", "110616.982500", "110618.472500", "110619.962500", "110621.452500", "110622.942500", "110624.432500", "110625.922500", "110627.412500", "110628.902500", "110630.392500", "110631.882500", "110633.372500", "110634.862500", "110636.352500", "110637.842500", "110639.332500", "110640.822500", "110642.312500", "110643.802500", "110645.292500", "110646.782500", "110648.272500", "110649.762500", "110651.252500", "110652.742500", "110654.232500", "110655.722500", "110657.212500", "110658.702500", "110700.192500", "110701.682500", "110703.172500", "110704.662500", "110706.152500", "110707.642500", "110709.132500", "110710.622500", "110712.112500", "110713.602500", "110715.092500", "110716.582500", "110718.072500", "110719.562500", "110721.052500", "110722.542500", "110724.032500", "110725.522500", "110727.012500", "110728.502500", "110729.992500", "110731.482500", "110732.972500", "110734.462500", "110735.952500", "110737.442500", "110738.932500", "110740.422500", "110741.912500", "110743.402500", "110744.892500", "110746.382500", "110747.872500", "110749.362500", "110750.852500", "110752.342500", "110753.832500", "110755.322500", "110756.812500", "110758.302500", "110759.792500", "110801.282500", "110802.772500", "110804.262500", "110805.752500", "110807.242500", "110808.732500", "110810.222500", "110811.712500", "110813.202500", "110814.692500", "110816.182500", "110817.672500", "110819.162500", "110820.652500", "110822.142500", "110823.632500", "110825.122500", "110826.612500", "110828.102500", "110829.592500", "110831.082500", "110832.572500", "110834.062500", "110835.552500", "110837.042500", "110838.532500", "110840.022500", "110841.512500", "110843.002500", "110844.492500", "110845.982500", "110847.472500", "110848.962500", "110850.452500", "110851.942500", "110853.432500", "110854.922500", "110856.412500", "110857.902500", "110859.392500", "110900.882500", "110902.372500", "110903.862500", "110905.352500", "110906.842500", "110908.332500", "110909.822500", "110911.312500", "110912.802500", "110914.292500", "110915.782500", "110917.272500", "110918.762500", "110920.252500", "110921.742500", "110923.232500", "110924.722500", "110926.212500", "110927.702500", "110929.192500", "110930.682500", "110932.172500", "110933.662500", "110935.152500", "110936.642500", "110938.132500", "110939.622500", "110941.112500", "110942.602500", "110944.092500", "110945.582500", "110947.072500", "110948.562500", "110950.052500", "110951.542500", "110953.032500"],
      "ContentTime": ["105846.191000", "105846.207000", "105846.210000", "105846.213000", "105906.150000", "105906.153000", "105906.155000", "105906.166000", "105906.169000", "105906.172000", "105906.175000", "105906.178000", "105906.180000", "105906.189000", "105906.191000", "105906.194000", "105906.197000", "105906.200000", "105906.203000", "105906.219000", "105906.222000", "105906.225000", "105906.228000", "105906.230000", "105926.151000", "105926.154000", "105926.156000", "105926.159000", "105926.162000", "105926.165000", "105926.168000", "105926.170000", "105926.173000", "105926.176000", "105926.179000", "105926.188000", "105926.191000", "105926.193000", "105926.196000", "105926.199000", "105926.202000", "105926.205000", "105926.207000", "105926.210000", "105926.213000", "105946.151000", "105946.154000", "105946.157000", "105946.159000", "105946.162000", "105946.165000", "105946.168000", "105946.171000", "105946.173000", "105946.176000", "105946.179000", "105946.182000", "105946.185000", "105946.187000", "105946.190000", "105946.193000", "105946.196000", "105946.199000", "105946.202000", "105946.204000", "110006.151000", "110006.154000", "110006.157000", "110006.160000", "110006.163000", "110006.166000", "110006.168000", "110006.171000", "110006.174000", "110006.177000", "110006.180000", "110006.183000", "110006.185000", "110006.188000", "110006.191000", "110006.194000", "110006.197000", "110006.200000", "110006.202000", "110006.205000", "110026.151000", "110026.154000", "110026.157000", "110026.159000", "110026.162000", "110026.165000", "110026.168000", "110026.170000", "110026.173000", "110026.176000", "110026.179000", "110026.182000", "110026.184000", "110026.187000", "110026.190000", "110026.193000", "110026.195000", "110026.198000", "110026.201000", "110026.204000", "110106.151000", "110106.154000", "110106.157000", "110106.167000", "110106.170000", "110106.173000", "110106.175000", "110106.178000", "110106.181000", "110106.184000", "110106.187000", "110106.189000", "110106.193000", "110106.196000", "110106.199000", "110106.201000", "110106.204000", "110106.207000", "110106.210000", "110106.213000", "110106.215000", "110106.218000", "110106.221000", "110106.224000", "110106.227000", "110106.229000", "110106.232000", "110146.151000", "110146.154000", "110146.157000", "110146.160000", "110146.162000", "110146.165000", "110146.168000", "110146.171000", "110146.174000", "110146.176000", "110146.179000", "110146.182000", "110146.185000", "110146.188000", "110146.190000", "110146.193000", "110146.196000", "110146.199000", "110146.201000", "110146.204000", "110146.207000", "110146.210000", "110146.213000", "110146.215000", "110146.218000", "110146.221000", "110146.224000", "110226.151000", "110226.154000", "110226.157000", "110226.160000", "110226.162000", "110226.165000", "110226.168000", "110226.171000", "110226.173000", "110226.176000", "110226.179000", "110226.182000", "110226.185000", "110226.187000", "110226.190000", "110226.193000", "110226.196000", "110226.198000", "110226.201000", "110226.204000", "110226.207000", "110226.218000", "110226.221000", "110226.224000", "110226.227000", "110226.230000", "110226.233000", "110306.151000", "110306.154000", "110306.157000", "110306.159000", "110306.162000", "110306.165000", "110306.168000", "110306.171000", "110306.173000", "110306.176000", "110306.179000", "110306.182000", "110306.184000", "110306.187000", "110306.190000", "110306.193000", "110306.196000", "110306.199000", "110306.201000", "110306.204000", "110306.207000", "110306.210000", "110306.212000", "110306.215000", "110306.218000", "110306.221000", "110306.224000", "110346.150000", "110346.153000", "110346.156000", "110346.158000", "110346.161000", "110346.164000", "110346.167000", "110346.170000", "110346.172000", "110346.175000", "110346.178000", "110346.181000", "110346.184000", "110346.186000", "110346.189000", "110346.192000", "110346.195000", "110346.198000", "110346.201000", "110346.203000", "110346.206000", "110346.209000", "110346.212000", "110346.215000", "110346.217000", "110346.220000", "110346.223000", "110426.151000", "110426.154000", "110426.157000", "110426.160000", "110426.162000", "110426.165000", "110426.168000", "110426.171000", "110426.174000", "110426.176000", "110426.179000", "110426.182000", "110426.185000", "110426.187000", "110426.190000", "110426.193000", "110426.196000", "110426.199000", "110426.202000", "110426.204000", "110426.207000", "110426.210000", "110426.213000", "110426.215000", "110426.218000", "110426.221000", "110426.224000", "110506.151000", "110506.154000", "110506.157000", "110506.160000", "110506.162000", "110506.165000", "110506.168000", "110506.171000", "110506.174000", "110506.176000", "110506.179000", "110506.182000", "110506.185000", "110506.188000", "110506.190000", "110506.193000", "110506.196000", "110506.200000", "110506.204000", "110506.207000", "110506.210000", "110506.213000", "110506.215000", "110506.218000", "110506.221000", "110506.224000", "110546.151000", "110546.154000", "110546.157000", "110546.159000", "110546.162000", "110546.165000", "110546.168000", "110546.171000", "110546.173000", "110546.176000", "110546.179000", "110546.182000", "110546.185000", "110546.187000", "110546.190000", "110546.193000", "110546.196000", "110546.199000", "110546.201000", "110546.204000", "110546.207000", "110546.210000", "110546.213000", "110546.215000", "110546.218000", "110546.221000", "110546.224000", "110626.151000", "110626.165000", "110626.168000", "110626.171000", "110626.173000", "110626.176000", "110626.179000", "110626.182000", "110626.185000", "110626.187000", "110626.190000", "110626.193000", "110626.196000", "110626.199000", "110626.202000", "110626.205000", "110626.207000", "110626.210000", "110626.213000", "110626.216000", "110626.219000", "110626.221000", "110626.224000", "110626.227000", "110626.230000", "110626.233000", "110626.235000", "110706.151000", "110706.154000", "110706.157000", "110706.160000", "110706.162000", "110706.165000", "110706.168000", "110706.171000", "110706.174000", "110706.176000", "110706.179000", "110706.182000", "110706.185000", "110706.187000", "110706.190000", "110706.193000", "110706.196000", "110706.199000", "110706.202000", "110706.204000", "110706.207000", "110706.210000", "110706.213000", "110706.215000", "110706.218000", "110706.221000", "110706.224000", "110746.151000", "110746.154000", "110746.157000", "110746.160000", "110746.162000", "110746.165000", "110746.168000", "110746.171000", "110746.174000", "110746.176000", "110746.179000", "110746.182000", "110746.185000", "110746.188000", "110746.190000", "110746.193000", "110746.196000", "110746.199000", "110746.202000", "110746.204000", "110746.207000", "110746.210000", "110746.213000", "110746.216000", "110746.218000", "110746.221000", "110746.224000", "110826.151000", "110826.154000", "110826.157000", "110826.160000", "110826.163000", "110826.165000", "110826.168000", "110826.171000", "110826.174000", "110826.177000", "110826.179000", "110826.182000", "110826.185000", "110826.188000", "110826.191000", "110826.194000", "110826.196000", "110826.199000", "110826.202000", "110826.205000", "110826.208000", "110826.210000", "110826.213000", "110826.216000", "110826.219000", "110826.222000", "110826.224000", "110906.151000", "110906.154000", "110906.157000", "110906.160000", "110906.162000", "110906.165000", "110906.168000", "110906.171000", "110906.174000", "110906.176000", "110906.179000", "110906.182000", "110906.185000", "110906.188000", "110906.190000", "110906.193000", "110906.196000", "110906.199000", "110906.202000", "110906.205000", "110906.208000", "110906.210000", "110906.213000", "110906.216000", "110906.219000", "110906.222000", "110906.224000", "110946.151000", "110946.154000", "110946.157000", "110946.160000", "110946.162000", "110946.165000", "110946.168000", "110946.171000", "110946.174000", "110946.176000", "110946.179000", "110946.182000", "110946.185000", "110946.188000", "110946.190000", "110946.193000", "110946.197000", "110946.200000", "110946.203000", "110946.206000", "110946.209000", "110946.212000", "110946.214000", "110946.217000", "110946.220000", "110946.223000", "110955.331000", "110955.334000", "110955.337000", "110955.340000", "110955.343000", "110955.346000", "110955.348000"],
