{
  "AcquisitionMatrixPE": 104,
  "AcquisitionNumber": 1,
  "AcquisitionTime": "18:03:49.255000",
  "BandwidthPerPixelPhaseEncode": 17.17,
  "BaseResolution": 104,
  "BodyPartExamined": "BRAIN",
  "CoilCombinationMethod": "Sum of Squares",
  "ConsistencyInfo": "N4_VE11C_LATEST_20160120",
  "ConversionSoftware": "dcm2niix",
  "ConversionSoftwareVersion": "v1.0.20211006",
  "DerivedVendorReportedEchoSpacing": 0.000560011,
  "DeviceSerialNumber": "167006",
  "DwellTime": 2.1e-06,
  "EchoTime": 0.037,
  "EchoTrainLength": 104,
  "EffectiveEchoSpacing": 0.000560011,
  "FlipAngle": 52,
  "HeudiconvVersion": "0.5.3.post569+g418601f",
  "ImageComments": "Unaliased MB4/PE3/LB",
  "ImageOrientationPatientDICOM": [0.994582, 0.100776, 0.025512, -0.0857904, 0.93429, -0.346037],
  "ImageOrientationText": "Tra>Cor(-20.0)>Sag(3.4)",
  "ImageType": [
    "ORIGINAL",
    "PRIMARY",
    "M",
    "MB",
    "ND",
    "MOSAIC"
],
  "ImagingFrequency": 123.259,
  "InPlanePhaseEncodingDirectionDICOM": "COL",
  "InstitutionAddress": "Chemin Queen-Mary 4565,Montreal,District,CA,H3W 1W5",
  "InstitutionName": "IUGM",
  "InstitutionalDepartmentName": "Department",
  "MRAcquisitionType": "2D",
  "MagneticFieldStrength": 3,
  "Manufacturer": "Siemens",
  "ManufacturersModelName": "Prisma_fit",
  "MatrixCoilMode": "SENSE",
  "Modality": "MR",
  "MultibandAccelerationFactor": 4,
  "PartialFourier": 1,
  "PatientPosition": "HFS",
  "PercentPhaseFOV": 100,
  "PercentSampling": 100,
  "PhaseEncodingDirection": "j",
  "PhaseEncodingSteps": 104,
  "PhaseResolution": 1,
  "PixelBandwidth": 2290,
  "ProcedureStepDescription": "video^friends",
  "ProtocolName": "func_task-friends-s05e20a",
  "PulseSequenceDetails": "%CustomerSeq%\\cmrr_mbep2d_bold",
  "ReceiveCoilActiveElements": "HC1-7;NC1,2",
  "ReceiveCoilName": "HeadNeck_64",
  "ReconMatrixPE": 104,
  "RepetitionTime": 1.49,
  "SAR": 0.0549812,
  "ScanOptions": "FS",
  "ScanningSequence": "EP",
  "SequenceName": "epfid2d1_104",
  "SequenceVariant": "SK\\SS",
  "SeriesDescription": "func_task-friends-s05e20a",
  "SeriesNumber": 13,
  "ShimSetting": [628, -7179, -8827, 662, 76, -10, -76, 0],
  "SliceThickness": 2,
  "SliceTiming": [0, 0.7825, 0.0975, 0.88, 0.195, 0.98, 0.2925, 1.0775, 0.39, 1.175, 0.49, 1.2725, 0.5875, 1.37, 0.685, 0, 0.7825, 0.0975, 0.88, 0.195, 0.98, 0.2925, 1.0775, 0.39, 1.175, 0.49, 1.2725, 0.5875, 1.37, 0.685, 0, 0.7825, 0.0975, 0.88, 0.195, 0.98, 0.2925, 1.0775, 0.39, 1.175, 0.49, 1.2725, 0.5875, 1.37, 0.685, 0, 0.7825, 0.0975, 0.88, 0.195, 0.98, 0.2925, 1.0775, 0.39, 1.175, 0.49, 1.2725, 0.5875, 1.37, 0.685],
  "SoftwareVersions": "syngo MR E11",
  "SpacingBetweenSlices": 2,
  "StationName": "MRC35049",
  "TaskName": "s05e20a",
  "TotalReadoutTime": 0.0576811,
  "TxRefAmp": 290.188,
  "WipMemBlock": "b79022e9-6f6f-4d96-adb1-e713f3f4899a||Sequence: R016 ve11c/master r/e634e98; Dec 19 2017 11:00:25 by eja",
  "dcmmeta_affine": [
    [-1.9891639947891235, -0.17158085107803345, 0.11741553246974945, 108.14297485351562],
    [-0.20155133306980133, 1.8685804605484009, -0.6839475035667419, -59.515384674072266],
    [0.05102403834462166, 0.6920745372772217, 1.8757476806640625, -68.49227142333984],
    [0.0, 0.0, 0.0, 1.0]
],
  "dcmmeta_reorient_transform": [
    [0.0, -1.0, 0.0, 103.0],
    [1.0, 0.0, 0.0, 0.0],
    [0.0, 0.0, 1.0, 0.0],
    [0.0, 0.0, 0.0, 1.0]
],
  "dcmmeta_shape": [104, 104, 60, 456],
  "dcmmeta_slice_dim": 2,
  "dcmmeta_version": 0.6,
  "global": {
    "const": {
      "AcquisitionMatrix": [104, 0, 0, 104],
      "AngioFlag": "N",
      "BitsAllocated": 16,
      "BitsStored": 16,
      "BodyPartExamined": "BRAIN",
      "Columns": 832,
      "EchoNumbers": 1,
      "EchoTime": 37.0,
      "EchoTrainLength": 104,
      "FlipAngle": 52.0,
      "HighBit": 15,
      "ImageOrientationPatient": [0.99458202344427, 0.10077566939786, 0.02551201871504, -0.0857904238317, 0.93429022086308, -0.3460372615462],
      "ImagePositionPatient": [-752.07043477596, -886.47636870125, 236.1337815155],
      "ImageType": [
        "ORIGINAL",
        "PRIMARY",
        "M",
        "MB",
        "ND",
        "MOSAIC"
],
      "ImagedNucleus": "1H",
      "ImagingFrequency": 123.258854,
      "InPlanePhaseEncodingDirection": "COL",
      "MRAcquisitionType": "2D",
      "MagneticFieldStrength": 3.0,
      "Manufacturer": "SIEMENS",
      "ManufacturerModelName": "Prisma_fit",
      "Modality": "MR",
      "NumberOfAverages": 1.0,
      "NumberOfPhaseEncodingSteps": 104,
      "PercentPhaseFieldOfView": 100.0,
      "PercentSampling": 100.0,
      "PerformedProcedureStepStartTime": "170254.225000",
      "PhotometricInterpretation": "MONOCHROME2",
      "PixelBandwidth": 2290.0,
      "PixelRepresentation": 0,
      "PixelSpacing": [2.0, 2.0],
      "ProtocolName": "func_task-friends-s05e20a",
      "RepetitionTime": 1490.0,
      "Rows": 832,
      "SAR": 0.05498124724811,
      "SamplesPerPixel": 1,
      "ScanOptions": "FS",
      "ScanningSequence": "EP",
      "SequenceName": "epfid2d1_104",
      "SequenceVariant": [
        "SK",
        "SS"
],
      "SeriesDescription": "func_task-friends-s05e20a",
      "SeriesNumber": 13,
      "SeriesTime": "180448.395000",
      "SliceLocation": -37.535577560302,
      "SliceThickness": 2.0,
      "SmallestImagePixelValue": 0,
      "SoftwareVersions": "syngo MR E11",
      "SpacingBetweenSlices": 1.9999999864724,
      "SpecificCharacterSet": "ISO_IR 100",
      "StudyID": "1",
      "StudyTime": "170254.107000",
      "TransmitCoilName": "Body",
      "VariableFlipAngleFlag": "N",
      "WindowCenterWidthExplanation": "Algo1",
      "dBdt": 0.0},
    "slices": {}
  },
  "time": {
    "samples": {
      "AcquisitionNumber": [1, 2, 3, 4, 5, 6, 7, 8, 9, 10, 11, 12, 13, 14, 15, 16, 17, 18, 19, 20, 21, 22, 23, 24, 25, 26, 27, 28, 29, 30, 31, 32, 33, 34, 35, 36, 37, 38, 39, 40, 41, 42, 43, 44, 45, 46, 47, 48, 49, 50, 51, 52, 53, 54, 55, 56, 57, 58, 59, 60, 61, 62, 63, 64, 65, 66, 67, 68, 69, 70, 71, 72, 73, 74, 75, 76, 77, 78, 79, 80, 81, 82, 83, 84, 85, 86, 87, 88, 89, 90, 91, 92, 93, 94, 95, 96, 97, 98, 99, 100, 101, 102, 103, 104, 105, 106, 107, 108, 109, 110, 111, 112, 113, 114, 115, 116, 117, 118, 119, 120, 121, 122, 123, 124, 125, 126, 127, 128, 129, 130, 131, 132, 133, 134, 135, 136, 137, 138, 139, 140, 141, 142, 143, 144, 145, 146, 147, 148, 149, 150, 151, 152, 153, 154, 155, 156, 157, 158, 159, 160, 161, 162, 163, 164, 165, 166, 167, 168, 169, 170, 171, 172, 173, 174, 175, 176, 177, 178, 179, 180, 181, 182, 183, 184, 185, 186, 187, 188, 189, 190, 191, 192, 193, 194, 195, 196, 197, 198, 199, 200, 201, 202, 203, 204, 205, 206, 207, 208, 209, 210, 211, 212, 213, 214, 215, 216, 217, 218, 219, 220, 221, 222, 223, 224, 225, 226, 227, 228, 229, 230, 231, 232, 233, 234, 235, 236, 237, 238, 239, 240, 241, 242, 243, 244, 245, 246, 247, 248, 249, 250, 251, 252, 253, 254, 255, 256, 257, 258, 259, 260, 261, 262, 263, 264, 265, 266, 267, 268, 269, 270, 271, 272, 273, 274, 275, 276, 277, 278, 279, 280, 281, 282, 283, 284, 285, 286, 287, 288, 289, 290, 291, 292, 293, 294, 295, 296, 297, 298, 299, 300, 301, 302, 303, 304, 305, 306, 307, 308, 309, 310, 311, 312, 313, 314, 315, 316, 317, 318, 319, 320, 321, 322, 323, 324, 325, 326, 327, 328, 329, 330, 331, 332, 333, 334, 335, 336, 337, 338, 339, 340, 341, 342, 343, 344, 345, 346, 347, 348, 349, 350, 351, 352, 353, 354, 355, 356, 357, 358, 359, 360, 361, 362, 363, 364, 365, 366, 367, 368, 369, 370, 371, 372, 373, 374, 375, 376, 377, 378, 379, 380, 381, 382, 383, 384, 385, 386, 387, 388, 389, 390, 391, 392, 393, 394, 395, 396, 397, 398, 399, 400, 401, 402, 403, 404, 405, 406, 407, 408, 409, 410, 411, 412, 413, 414, 415, 416, 417, 418, 419, 420, 421, 422, 423, 424, 425, 426, 427, 428, 429, 430, 431, 432, 433, 434, 435, 436, 437, 438, 439, 440, 441, 442, 443, 444, 445, 446, 447, 448, 449, 450, 451, 452, 453, 454, 455, 456],
      "AcquisitionTime": ["180349.255000", "180350.745000", "180352.235000", "180353.725000", "180355.215000", "180356.705000", "180358.195000", "180359.685000", "180401.175000", "180402.665000", "180404.155000", "180405.645000", "180407.135000", "180408.625000", "180410.115000", "180411.605000", "180413.095000", "180414.585000", "180416.075000", "180417.565000", "180419.055000", "180420.545000", "180422.035000", "180423.525000", "180425.015000", "180426.505000", "180427.995000", "180429.485000", "180430.975000", "180432.465000", "180433.955000", "180435.445000", "180436.935000", "180438.425000", "180439.915000", "180441.405000", "180442.895000", "180444.385000", "180445.875000", "180447.365000", "180448.855000", "180450.345000", "180451.835000", "180453.325000", "180454.815000", "180456.305000", "180457.795000", "180459.285000", "180500.775000", "180502.265000", "180503.755000", "180505.245000", "180506.735000", "180508.225000", "180509.715000", "180511.205000", "180512.695000", "180514.185000", "180515.675000", "180517.165000", "180518.655000", "180520.145000", "180521.635000", "180523.125000", "180524.615000", "180526.105000", "180527.595000", "180529.085000", "180530.575000", "180532.065000", "180533.555000", "180535.045000", "180536.535000", "180538.025000", "180539.515000", "180541.005000", "180542.495000", "180543.985000", "180545.475000", "180546.965000", "180548.455000", "180549.945000", "180551.435000", "180552.925000", "180554.415000", "180555.905000", "180557.395000", "180558.885000", "180600.375000", "180601.865000", "180603.355000", "180604.845000", "180606.335000", "180607.825000", "180609.315000", "180610.805000", "180612.295000", "180613.785000", "180615.275000", "180616.765000", "180618.255000", "180619.745000", "180621.235000", "180622.725000", "180624.215000", "180625.705000", "180627.195000", "180628.685000", "180630.175000", "180631.665000", "180633.155000", "180634.645000", "180636.135000", "180637.625000", "180639.115000", "180640.605000", "180642.095000", "180643.585000", "180645.075000", "180646.565000", "180648.055000", "180649.545000", "180651.035000", "180652.525000", "180654.015000", "180655.505000", "180656.995000", "180658.485000", "180659.975000", "180701.465000", "180702.955000", "180704.445000", "180705.935000", "180707.425000", "180708.915000", "180710.405000", "180711.895000", "180713.385000", "180714.875000", "180716.365000", "180717.855000", "180719.345000", "180720.835000", "180722.325000", "180723.815000", "180725.305000", "180726.795000", "180728.285000", "180729.775000", "180731.265000", "180732.755000", "180734.245000", "180735.735000", "180737.225000", "180738.715000", "180740.205000", "180741.695000", "180743.185000", "180744.675000", "180746.165000", "180747.655000", "180749.145000", "180750.635000", "180752.125000", "180753.615000", "180755.105000", "180756.595000", "180758.085000", "180759.575000", "180801.065000", "180802.555000", "180804.045000", "180805.535000", "180807.025000", "180808.515000", "180810.005000", "180811.495000", "180812.985000", "180814.475000", "180815.965000", "180817.455000", "180818.945000", "180820.435000", "180821.925000", "180823.415000", "180824.905000", "180826.395000", "180827.885000", "180829.375000", "180830.865000", "180832.355000", "180833.845000", "180835.335000", "180836.825000", "180838.315000", "180839.805000", "180841.295000", "180842.785000", "180844.275000", "180845.765000", "180847.255000", "180848.745000", "180850.235000", "180851.725000", "180853.215000", "180854.705000", "180856.195000", "180857.685000", "180859.175000", "180900.665000", "180902.155000", "180903.645000", "180905.135000", "180906.625000", "180908.115000", "180909.605000", "180911.095000", "180912.585000", "180914.075000", "180915.565000", "180917.055000", "180918.545000", "180920.035000", "180921.525000", "180923.015000", "180924.505000", "180925.995000", "180927.485000", "180928.975000", "180930.465000", "180931.955000", "180933.445000", "180934.935000", "180936.425000", "180937.915000", "180939.405000", "180940.895000", "180942.385000", "180943.875000", "180945.365000", "180946.855000", "180948.345000", "180949.835000", "180951.325000", "180952.815000", "180954.305000", "180955.795000", "180957.285000", "180958.775000", "181000.265000", "181001.755000", "181003.245000", "181004.735000", "181006.225000", "181007.715000", "181009.205000", "181010.695000", "181012.185000", "181013.675000", "181015.165000", "181016.655000", "181018.145000", "181019.635000", "181021.125000", "181022.615000", "181024.105000", "181025.595000", "181027.085000", "181028.575000", "181030.065000", "181031.555000", "181033.045000", "181034.535000", "181036.025000", "181037.515000", "181039.005000", "181040.495000", "181041.985000", "181043.475000", "181044.965000", "181046.455000", "181047.945000", "181049.435000", "181050.925000", "181052.415000", "181053.905000", "181055.395000", "181056.885000", "181058.375000", "181059.865000", "181101.355000", "181102.845000", "181104.335000", "181105.825000", "181107.315000", "181108.805000", "181110.295000", "181111.785000", "181113.275000", "181114.765000", "181116.255000", "181117.745000", "181119.235000", "181120.725000", "181122.215000", "181123.705000", "181125.195000", "181126.685000", "181128.175000", "181129.665000", "181131.155000", "181132.645000", "181134.135000", "181135.625000", "181137.115000", "181138.605000", "181140.095000", "181141.585000", "181143.075000", "181144.565000", "181146.055000", "181147.545000", "181149.035000", "181150.525000", "181152.015000", "181153.505000", "181154.995000", "181156.485000", "181157.975000", "181159.465000", "181200.955000", "181202.445000", "181203.935000", "181205.425000", "181206.915000", "181208.405000", "181209.895000", "181211.385000", "181212.875000", "181214.365000", "181215.855000", "181217.345000", "181218.835000", "181220.325000", "181221.815000", "181223.305000", "181224.795000", "181226.285000", "181227.775000", "181229.265000", "181230.755000", "181232.245000", "181233.735000", "181235.225000", "181236.715000", "181238.205000", "181239.695000", "181241.185000", "181242.675000", "181244.165000", "181245.655000", "181247.145000", "181248.635000", "181250.125000", "181251.615000", "181253.105000", "181254.595000", "181256.085000", "181257.575000", "181259.065000", "181300.555000", "181302.045000", "181303.535000", "181305.025000", "181306.515000", "181308.005000", "181309.495000", "181310.985000", "181312.475000", "181313.965000", "181315.455000", "181316.945000", "181318.435000", "181319.925000", "181321.415000", "181322.905000", "181324.395000", "181325.885000", "181327.375000", "181328.865000", "181330.355000", "181331.845000", "181333.335000", "181334.825000", "181336.315000", "181337.805000", "181339.295000", "181340.785000", "181342.275000", "181343.765000", "181345.255000", "181346.745000", "181348.235000", "181349.725000", "181351.215000", "181352.705000", "181354.195000", "181355.685000", "181357.175000", "181358.665000", "181400.155000", "181401.645000", "181403.135000", "181404.625000", "181406.115000", "181407.605000", "181409.095000", "181410.585000", "181412.075000", "181413.565000", "181415.055000", "181416.545000", "181418.035000", "181419.525000", "181421.015000", "181422.505000", "181423.995000", "181425.485000", "181426.975000", "181428.465000", "181429.955000", "181431.445000", "181432.935000", "181434.425000", "181435.915000", "181437.405000", "181438.895000", "181440.385000", "181441.875000", "181443.365000", "181444.855000", "181446.345000", "181447.835000", "181449.325000", "181450.815000", "181452.305000", "181453.795000", "181455.285000", "181456.775000", "181458.265000", "181459.755000", "181501.245000", "181502.735000", "181504.225000", "181505.715000", "181507.205000"],
      "ContentTime": ["180448.398000", "180448.402000", "180448.405000", "180448.407000", "180448.410000", "180508.363000", "180508.366000", "180508.369000", "180508.371000", "180508.378000", "180508.381000", "180508.383000", "180508.387000", "180508.390000", "180508.393000", "180508.396000", "180508.399000", "180508.402000", "180508.404000", "180508.407000", "180508.410000", "180508.413000", "180508.416000", "180508.418000", "180508.421000", "180508.424000", "180528.362000", "180528.365000", "180528.367000", "180528.371000", "180528.373000", "180528.376000", "180528.379000", "180528.382000", "180528.385000", "180528.387000", "180528.390000", "180528.393000", "180528.396000", "180528.399000", "180528.402000", "180528.405000", "180528.407000", "180528.410000", "180528.413000", "180528.416000", "180548.363000", "180548.366000", "180548.390000", "180548.393000", "180548.396000", "180548.399000", "180548.401000", "180548.404000", "180548.407000", "180548.410000", "180548.413000", "180548.415000", "180548.418000", "180548.421000", "180548.424000", "180548.426000", "180548.429000", "180548.432000", "180548.435000", "180548.438000", "180608.363000", "180608.366000", "180608.369000", "180608.372000", "180608.375000", "180608.377000", "180608.380000", "180608.383000", "180608.386000", "180608.388000", "180608.391000", "180608.394000", "180608.397000", "180608.400000", "180608.403000", "180608.405000", "180608.408000", "180608.411000", "180608.414000", "180608.422000", "180608.425000", "180648.363000", "180648.366000", "180648.368000", "180648.371000", "180648.374000", "180648.377000", "180648.380000", "180648.382000", "180648.385000", "180648.388000", "180648.391000", "180648.394000", "180648.396000", "180648.399000", "180648.402000", "180648.409000", "180648.412000", "180648.415000", "180648.418000", "180648.420000", "180648.423000", "180648.426000", "180648.429000", "180648.432000", "180648.434000", "180648.437000", "180648.440000", "180648.443000", "180648.446000", "180648.448000", "180648.451000", "180648.454000", "180648.457000", "180728.363000", "180728.366000", "180728.369000", "180728.372000", "180728.374000", "180728.377000", "180728.380000", "180728.383000", "180728.386000", "180728.389000", "180728.391000", "180728.394000", "180728.397000", "180728.400000", "180728.403000", "180728.406000", "180728.408000", "180728.411000", "180728.414000", "180728.417000", "180728.420000", "180728.422000", "180728.425000", "180728.428000", "180728.431000", "180728.434000", "180808.363000", "180808.366000", "180808.369000", "180808.371000", "180808.374000", "180808.377000", "180808.380000", "180808.383000", "180808.385000", "180808.388000", "180808.391000", "180808.394000", "180808.397000", "180808.399000", "180808.402000", "180808.405000", "180808.408000", "180808.411000", "180808.414000", "180808.417000", "180808.420000", "180808.422000", "180808.433000", "180808.435000", "180808.438000", "180808.441000", "180808.444000", "180848.363000", "180848.366000", "180848.369000", "180848.372000", "180848.374000", "180848.377000", "180848.380000", "180848.383000", "180848.386000", "180848.388000", "180848.391000", "180848.394000", "180848.397000", "180848.400000", "180848.417000", "180848.420000", "180848.423000", "180848.425000", "180848.428000", "180848.431000", "180848.434000", "180848.437000", "180848.439000", "180848.442000", "180848.445000", "180848.448000", "180848.451000", "180928.363000", "180928.366000", "180928.369000", "180928.372000", "180928.375000", "180928.377000", "180928.380000", "180928.383000", "180928.386000", "180928.389000", "180928.391000", "180928.394000", "180928.397000", "180928.400000", "180928.403000", "180928.406000", "180928.408000", "180928.416000", "180928.419000", "180928.421000", "180928.424000", "180928.427000", "180928.430000", "180928.433000", "180928.436000", "180928.438000", "180928.441000", "181008.362000", "181008.365000", "181008.368000", "181008.371000", "181008.373000", "181008.376000", "181008.379000", "181008.382000", "181008.385000", "181008.387000", "181008.390000", "181008.393000", "181008.396000", "181008.399000", "181008.402000", "181008.404000", "181008.407000", "181008.410000", "181008.413000", "181008.416000", "181008.418000", "181008.421000", "181008.424000", "181008.427000", "181008.430000", "181008.432000", "181008.435000", "181048.363000", "181048.366000", "181048.369000", "181048.371000", "181048.374000", "181048.377000", "181048.380000", "181048.383000", "181048.385000", "181048.388000", "181048.391000", "181048.394000", "181048.397000", "181048.400000", "181048.402000", "181048.405000", "181048.408000", "181048.411000", "181048.414000", "181048.416000", "181048.419000", "181048.422000", "181048.425000", "181048.428000", "181048.430000", "181048.433000", "181048.436000", "181128.363000", "181128.366000", "181128.369000", "181128.372000", "181128.374000", "181128.377000", "181128.380000", "181128.383000", "181128.386000", "181128.389000", "181128.392000", "181128.394000", "181128.413000", "181128.416000", "181128.419000", "181128.422000", "181128.424000", "181128.427000", "181128.430000", "181128.433000", "181128.436000", "181128.438000", "181128.441000", "181128.444000", "181128.447000", "181128.450000", "181208.363000", "181208.366000", "181208.369000", "181208.372000", "181208.374000", "181208.377000", "181208.380000", "181208.383000", "181208.386000", "181208.388000", "181208.391000", "181208.394000", "181208.397000", "181208.400000", "181208.403000", "181208.406000", "181208.414000", "181208.417000", "181208.420000", "181208.423000", "181208.426000", "181208.428000", "181208.431000", "181208.434000", "181208.437000", "181208.440000", "181208.443000", "181248.363000", "181248.366000", "181248.369000", "181248.372000", "181248.374000", "181248.377000", "181248.380000", "181248.383000", "181248.386000", "181248.400000", "181248.403000", "181248.405000", "181248.408000", "181248.411000", "181248.414000", "181248.417000", "181248.420000", "181248.423000", "181248.426000", "181248.428000", "181248.431000", "181248.434000", "181248.437000", "181248.440000", "181248.443000", "181248.445000", "181248.448000", "181328.363000", "181328.366000", "181328.369000", "181328.372000", "181328.374000", "181328.377000", "181328.380000", "181328.383000", "181328.386000", "181328.389000", "181328.391000", "181328.394000", "181328.397000", "181328.400000", "181328.415000", "181328.417000", "181328.420000", "181328.423000", "181328.426000", "181328.429000", "181328.431000", "181328.434000", "181328.437000", "181328.440000", "181328.443000", "181328.445000", "181328.448000", "181408.363000", "181408.366000", "181408.369000", "181408.371000", "181408.374000", "181408.377000", "181408.380000", "181408.383000", "181408.386000", "181408.388000", "181408.391000", "181408.394000", "181408.397000", "181408.400000", "181408.403000", "181408.405000", "181408.408000", "181408.411000", "181408.414000", "181408.417000", "181408.419000", "181408.422000", "181408.425000", "181408.438000", "181408.441000", "181408.444000", "181408.446000", "181448.363000", "181448.366000", "181448.369000", "181448.372000", "181448.374000", "181448.377000", "181448.380000", "181448.383000", "181448.386000", "181448.389000", "181448.391000", "181448.394000", "181448.397000", "181448.400000", "181448.403000", "181448.406000", "181448.408000", "181448.411000", "181448.414000", "181448.417000", "181448.420000", "181448.422000", "181448.425000", "181448.428000", "181448.431000", "181448.434000", "181448.436000", "181509.027000", "181509.030000", "181509.033000", "181509.036000", "181509.039000", "181509.042000", "181509.045000", "181509.048000", "181509.050000", "181509.053000", "181509.056000", "181509.059000", "181509.062000", "181509.065000"],
