{
  "AcquisitionMatrixPE": 104,
  "AcquisitionNumber": 1,
  "AcquisitionTime": "18:12:10.600000",
  "BandwidthPerPixelPhaseEncode": 17.17,
  "BaseResolution": 104,
  "BodyPartExamined": "BRAIN",
  "CoilCombinationMethod": "Sum of Squares",
  "ConsistencyInfo": "N4_VE11C_LATEST_20160120",
  "ConversionSoftware": "dcm2niix",
  "ConversionSoftwareVersion": "v1.0.20230411",
  "DerivedVendorReportedEchoSpacing": 0.000560011,
  "DeviceSerialNumber": "167006",
  "DwellTime": 2.1e-06,
  "EchoTime": 0.037,
  "EchoTrainLength": 104,
  "EffectiveEchoSpacing": 0.000560011,
  "FlipAngle": 52,
  "HeudiconvVersion": "0.5.3.post861+ge7d3c7f",
  "ImageComments": "Unaliased MB4/PE3/LB",
  "ImageOrientationPatientDICOM": [0.999448, -0.0327295, 0.00569105, 0.0321074, 0.907701, -0.418387],
  "ImageOrientationText": "Tra>Cor(-24.7)>Sag(-0.5)",
  "ImageType": [
    "ORIGINAL",
    "PRIMARY",
    "M",
    "MB",
    "ND",
    "MOSAIC"
],
  "ImagingFrequency": 123.249468,
  "InPlanePhaseEncodingDirectionDICOM": "COL",
  "InstitutionAddress": "Chemin Queen-Mary 4565,Montreal,District,CA,H3W 1W5",
  "InstitutionName": "IUGM",
  "InstitutionalDepartmentName": "Department",
  "MRAcquisitionType": "2D",
  "MagneticFieldStrength": 3,
  "Manufacturer": "Siemens",
  "ManufacturersModelName": "Prisma_fit",
  "MatrixCoilMode": "SENSE",
  "Modality": "MR",
  "MultibandAccelerationFactor": 4,
  "NonlinearGradientCorrection": false,
  "PartialFourier": 1,
  "PatientPosition": "HFS",
  "PercentPhaseFOV": 100,
  "PercentSampling": 100,
  "PhaseEncodingDirection": "j",
  "PhaseEncodingSteps": 104,
  "PhaseResolution": 1,
  "PixelBandwidth": 2290,
  "ProcedureStepDescription": "video^friends",
  "ProtocolName": "func_task-friends-s07e17b",
  "PulseSequenceDetails": "%CustomerSeq%\\cmrr_mbep2d_bold",
  "ReceiveCoilActiveElements": "HC1-7;NC1,2",
  "ReceiveCoilName": "HeadNeck_64",
  "ReconMatrixPE": 104,
  "RepetitionTime": 1.49,
  "SAR": 0.0662896,
  "ScanOptions": "FS",
  "ScanningSequence": "EP",
  "SequenceName": "epfid2d1_104",
  "SequenceVariant": "SK\\SS",
  "SeriesDescription": "func_task-friends-s07e17b",
  "SeriesNumber": 10,
  "ShimSetting": [593, -7281, -8834, 364, 18, -434, -45, 86],
  "SliceThickness": 2,
  "SliceTiming": [0, 0.7825, 0.0975, 0.88, 0.195, 0.98, 0.2925, 1.0775, 0.39, 1.175, 0.49, 1.2725, 0.5875, 1.37, 0.685, 0, 0.7825, 0.0975, 0.88, 0.195, 0.98, 0.2925, 1.0775, 0.39, 1.175, 0.49, 1.2725, 0.5875, 1.37, 0.685, 0, 0.7825, 0.0975, 0.88, 0.195, 0.98, 0.2925, 1.0775, 0.39, 1.175, 0.49, 1.2725, 0.5875, 1.37, 0.685, 0, 0.7825, 0.0975, 0.88, 0.195, 0.98, 0.2925, 1.0775, 0.39, 1.175, 0.49, 1.2725, 0.5875, 1.37, 0.685],
  "SoftwareVersions": "syngo MR E11",
  "SpacingBetweenSlices": 2,
  "StationName": "MRC35049",
  "TaskName": "s07e17b",
  "TotalReadoutTime": 0.0576811,
  "TxRefAmp": 276.356,
  "WipMemBlock": "cae40fc8-cfb9-4be2-bcde-c369bca25c16||Sequence: R017 ve11c/master r/75a17815+; Jun 28 2022 16:32:11 by eja",
  "dcmmeta_affine": [
    [-1.9988961219787598, 0.06421477347612381, -0.017055654898285866, 97.8858871459961],
    [0.0654589906334877, 1.8154022693634033, -0.8366777896881104, -69.55223846435547],
    [0.01138210017234087, 0.8367742300033569, 1.8165018558502197, -74.6105728149414],
    [0.0, 0.0, 0.0, 1.0]
],
  "dcmmeta_reorient_transform": [
    [0.0, -1.0, 0.0, 103.0],
    [1.0, 0.0, 0.0, 0.0],
    [0.0, 0.0, 1.0, 0.0],
    [0.0, 0.0, 0.0, 1.0]
],
  "dcmmeta_shape": [104, 104, 60, 467],
  "dcmmeta_slice_dim": 2,
  "dcmmeta_version": 0.6,
  "global": {
    "const": {
      "AcquisitionMatrix": [104, 0, 0, 104],
      "AngioFlag": "N",
      "BitsAllocated": 16,
      "BitsStored": 16,
      "BodyPartExamined": "BRAIN",
      "Columns": 832,
      "EchoNumbers": 1,
      "EchoTime": 37.0,
      "EchoTrainLength": 104,
      "FlipAngle": 52.0,
      "HighBit": 15,
      "ImageOrientationPatient": [0.99944804366406, -0.0327294968565, 0.00569105013263, 0.03210738508435, 0.90770112542614, -0.4183871206469],
      "ImagePositionPatient": [-855.47235841027, -754.4135363884, 312.01991663281],
      "ImageType": [
        "ORIGINAL",
        "PRIMARY",
        "M",
        "MB",
        "ND",
        "MOSAIC"
],
      "ImagedNucleus": "1H",
      "ImagingFrequency": 123.249468,
      "InPlanePhaseEncodingDirection": "COL",
      "MRAcquisitionType": "2D",
      "MagneticFieldStrength": 3.0,
      "Manufacturer": "SIEMENS",
      "ManufacturerModelName": "Prisma_fit",
      "Modality": "MR",
      "NumberOfAverages": 1.0,
      "NumberOfPhaseEncodingSteps": 104,
      "PercentPhaseFieldOfView": 100.0,
      "PercentSampling": 100.0,
      "PerformedProcedureStepStartTime": "180843.168000",
      "PhotometricInterpretation": "MONOCHROME2",
      "PixelBandwidth": 2290.0,
      "PixelRepresentation": 0,
      "PixelSpacing": [2.0, 2.0],
      "ProtocolName": "func_task-friends-s07e17b",
      "RepetitionTime": 1490.0,
      "Rows": 832,
      "SAR": 0.06628959235043,
      "SamplesPerPixel": 1,
      "ScanOptions": "FS",
      "ScanningSequence": "EP",
      "SequenceName": "epfid2d1_104",
      "SequenceVariant": [
        "SK",
        "SS"
],
      "SeriesDescription": "func_task-friends-s07e17b",
      "SeriesNumber": 10,
      "SeriesTime": "181324.632000",
      "SliceLocation": -39.503467306393,
      "SliceThickness": 2.0,
      "SmallestImagePixelValue": 0,
      "SoftwareVersions": "syngo MR E11",
      "SpacingBetweenSlices": 1.9999999590747,
      "SpecificCharacterSet": "ISO_IR 100",
      "StudyID": "1",
      "StudyTime": "180843.092000",
      "TransmitCoilName": "Body",
      "VariableFlipAngleFlag": "N",
      "WindowCenterWidthExplanation": "Algo1",
      "dBdt": 0.0},
    "slices": {}
  },
  "time": {
    "samples": {
      "AcquisitionNumber": [1, 2, 3, 4, 5, 6, 7, 8, 9, 10, 11, 12, 13, 14, 15, 16, 17, 18, 19, 20, 21, 22, 23, 24, 25, 26, 27, 28, 29, 30, 31, 32, 33, 34, 35, 36, 37, 38, 39, 40, 41, 42, 43, 44, 45, 46, 47, 48, 49, 50, 51, 52, 53, 54, 55, 56, 57, 58, 59, 60, 61, 62, 63, 64, 65, 66, 67, 68, 69, 70, 71, 72, 73, 74, 75, 76, 77, 78, 79, 80, 81, 82, 83, 84, 85, 86, 87, 88, 89, 90, 91, 92, 93, 94, 95, 96, 97, 98, 99, 100, 101, 102, 103, 104, 105, 106, 107, 108, 109, 110, 111, 112, 113, 114, 115, 116, 117, 118, 119, 120, 121, 122, 123, 124, 125, 126, 127, 128, 129, 130, 131, 132, 133, 134, 135, 136, 137, 138, 139, 140, 141, 142, 143, 144, 145, 146, 147, 148, 149, 150, 151, 152, 153, 154, 155, 156, 157, 158, 159, 160, 161, 162, 163, 164, 165, 166, 167, 168, 169, 170, 171, 172, 173, 174, 175, 176, 177, 178, 179, 180, 181, 182, 183, 184, 185, 186, 187, 188, 189, 190, 191, 192, 193, 194, 195, 196, 197, 198, 199, 200, 201, 202, 203, 204, 205, 206, 207, 208, 209, 210, 211, 212, 213, 214, 215, 216, 217, 218, 219, 220, 221, 222, 223, 224, 225, 226, 227, 228, 229, 230, 231, 232, 233, 234, 235, 236, 237, 238, 239, 240, 241, 242, 243, 244, 245, 246, 247, 248, 249, 250, 251, 252, 253, 254, 255, 256, 257, 258, 259, 260, 261, 262, 263, 264, 265, 266, 267, 268, 269, 270, 271, 272, 273, 274, 275, 276, 277, 278, 279, 280, 281, 282, 283, 284, 285, 286, 287, 288, 289, 290, 291, 292, 293, 294, 295, 296, 297, 298, 299, 300, 301, 302, 303, 304, 305, 306, 307, 308, 309, 310, 311, 312, 313, 314, 315, 316, 317, 318, 319, 320, 321, 322, 323, 324, 325, 326, 327, 328, 329, 330, 331, 332, 333, 334, 335, 336, 337, 338, 339, 340, 341, 342, 343, 344, 345, 346, 347, 348, 349, 350, 351, 352, 353, 354, 355, 356, 357, 358, 359, 360, 361, 362, 363, 364, 365, 366, 367, 368, 369, 370, 371, 372, 373, 374, 375, 376, 377, 378, 379, 380, 381, 382, 383, 384, 385, 386, 387, 388, 389, 390, 391, 392, 393, 394, 395, 396, 397, 398, 399, 400, 401, 402, 403, 404, 405, 406, 407, 408, 409, 410, 411, 412, 413, 414, 415, 416, 417, 418, 419, 420, 421, 422, 423, 424, 425, 426, 427, 428, 429, 430, 431, 432, 433, 434, 435, 436, 437, 438, 439, 440, 441, 442, 443, 444, 445, 446, 447, 448, 449, 450, 451, 452, 453, 454, 455, 456, 457, 458, 459, 460, 461, 462, 463, 464, 465, 466, 467],
      "AcquisitionTime": ["181210.600000", "181212.090000", "181213.580000", "181215.070000", "181216.560000", "181218.050000", "181219.540000", "181221.030000", "181222.520000", "181224.010000", "181225.500000", "181226.990000", "181228.480000", "181229.970000", "181231.460000", "181232.950000", "181234.440000", "181235.930000", "181237.420000", "181238.910000", "181240.400000", "181241.890000", "181243.380000", "181244.870000", "181246.360000", "181247.850000", "181249.340000", "181250.830000", "181252.320000", "181253.810000", "181255.300000", "181256.790000", "181258.280000", "181259.770000", "181301.260000", "181302.750000", "181304.240000", "181305.730000", "181307.220000", "181308.710000", "181310.200000", "181311.690000", "181313.180000", "181314.670000", "181316.160000", "181317.650000", "181319.140000", "181320.630000", "181322.120000", "181323.610000", "181325.100000", "181326.590000", "181328.080000", "181329.570000", "181331.060000", "181332.550000", "181334.040000", "181335.530000", "181337.020000", "181338.510000", "181340.000000", "181341.490000", "181342.980000", "181344.470000", "181345.960000", "181347.450000", "181348.940000", "181350.430000", "181351.920000", "181353.410000", "181354.900000", "181356.390000", "181357.880000", "181359.370000", "181400.860000", "181402.350000", "181403.840000", "181405.330000", "181406.820000", "181408.310000", "181409.800000", "181411.290000", "181412.780000", "181414.270000", "181415.760000", "181417.250000", "181418.740000", "181420.230000", "181421.720000", "181423.210000", "181424.700000", "181426.190000", "181427.680000", "181429.170000", "181430.660000", "181432.150000", "181433.640000", "181435.130000", "181436.620000", "181438.110000", "181439.600000", "181441.090000", "181442.580000", "181444.070000", "181445.560000", "181447.050000", "181448.540000", "181450.030000", "181451.520000", "181453.010000", "181454.500000", "181455.990000", "181457.480000", "181458.970000", "181500.460000", "181501.950000", "181503.440000", "181504.930000", "181506.420000", "181507.910000", "181509.400000", "181510.890000", "181512.380000", "181513.870000", "181515.360000", "181516.850000", "181518.340000", "181519.830000", "181521.320000", "181522.810000", "181524.300000", "181525.790000", "181527.280000", "181528.770000", "181530.260000", "181531.750000", "181533.240000", "181534.730000", "181536.220000", "181537.710000", "181539.200000", "181540.690000", "181542.180000", "181543.670000", "181545.160000", "181546.650000", "181548.140000", "181549.630000", "181551.120000", "181552.610000", "181554.100000", "181555.590000", "181557.080000", "181558.570000", "181600.060000", "181601.550000", "181603.040000", "181604.530000", "181606.020000", "181607.510000", "181609.000000", "181610.490000", "181611.980000", "181613.470000", "181614.960000", "181616.450000", "181617.940000", "181619.430000", "181620.920000", "181622.410000", "181623.900000", "181625.390000", "181626.880000", "181628.370000", "181629.860000", "181631.350000", "181632.840000", "181634.330000", "181635.820000", "181637.310000", "181638.800000", "181640.290000", "181641.780000", "181643.270000", "181644.760000", "181646.250000", "181647.740000", "181649.230000", "181650.720000", "181652.210000", "181653.700000", "181655.190000", "181656.680000", "181658.170000", "181659.660000", "181701.150000", "181702.640000", "181704.130000", "181705.620000", "181707.110000", "181708.600000", "181710.090000", "181711.580000", "181713.070000", "181714.560000", "181716.050000", "181717.540000", "181719.030000", "181720.520000", "181722.010000", "181723.500000", "181724.990000", "181726.480000", "181727.970000", "181729.460000", "181730.950000", "181732.440000", "181733.930000", "181735.420000", "181736.910000", "181738.400000", "181739.890000", "181741.380000", "181742.870000", "181744.360000", "181745.850000", "181747.340000", "181748.830000", "181750.320000", "181751.810000", "181753.300000", "181754.790000", "181756.280000", "181757.770000", "181759.260000", "181800.750000", "181802.240000", "181803.730000", "181805.220000", "181806.710000", "181808.200000", "181809.690000", "181811.180000", "181812.670000", "181814.160000", "181815.650000", "181817.140000", "181818.630000", "181820.120000", "181821.610000", "181823.100000", "181824.590000", "181826.080000", "181827.570000", "181829.060000", "181830.550000", "181832.040000", "181833.530000", "181835.020000", "181836.510000", "181838.000000", "181839.490000", "181840.980000", "181842.470000", "181843.960000", "181845.450000", "181846.940000", "181848.430000", "181849.920000", "181851.410000", "181852.900000", "181854.390000", "181855.880000", "181857.370000", "181858.860000", "181900.350000", "181901.840000", "181903.330000", "181904.820000", "181906.310000", "181907.800000", "181909.290000", "181910.780000", "181912.270000", "181913.760000", "181915.250000", "181916.740000", "181918.230000", "181919.720000", "181921.210000", "181922.700000", "181924.190000", "181925.680000", "181927.170000", "181928.660000", "181930.150000", "181931.640000", "181933.130000", "181934.620000", "181936.110000", "181937.600000", "181939.090000", "181940.580000", "181942.070000", "181943.560000", "181945.050000", "181946.540000", "181948.030000", "181949.520000", "181951.010000", "181952.500000", "181953.990000", "181955.480000", "181956.970000", "181958.460000", "181959.950000", "182001.440000", "182002.930000", "182004.420000", "182005.910000", "182007.400000", "182008.890000", "182010.380000", "182011.870000", "182013.360000", "182014.850000", "182016.340000", "182017.830000", "182019.320000", "182020.810000", "182022.300000", "182023.790000", "182025.280000", "182026.770000", "182028.260000", "182029.750000", "182031.240000", "182032.730000", "182034.220000", "182035.710000", "182037.200000", "182038.690000", "182040.180000", "182041.670000", "182043.160000", "182044.650000", "182046.140000", "182047.630000", "182049.120000", "182050.610000", "182052.100000", "182053.590000", "182055.080000", "182056.570000", "182058.060000", "182059.550000", "182101.040000", "182102.530000", "182104.020000", "182105.510000", "182107.000000", "182108.490000", "182109.980000", "182111.470000", "182112.960000", "182114.450000", "182115.940000", "182117.430000", "182118.920000", "182120.410000", "182121.900000", "182123.390000", "182124.880000", "182126.370000", "182127.860000", "182129.350000", "182130.840000", "182132.330000", "182133.820000", "182135.310000", "182136.800000", "182138.290000", "182139.780000", "182141.270000", "182142.760000", "182144.250000", "182145.740000", "182147.230000", "182148.720000", "182150.210000", "182151.700000", "182153.190000", "182154.680000", "182156.170000", "182157.660000", "182159.150000", "182200.640000", "182202.130000", "182203.620000", "182205.110000", "182206.600000", "182208.090000", "182209.580000", "182211.070000", "182212.560000", "182214.050000", "182215.540000", "182217.030000", "182218.520000", "182220.010000", "182221.500000", "182222.990000", "182224.480000", "182225.970000", "182227.460000", "182228.950000", "182230.440000", "182231.930000", "182233.420000", "182234.910000", "182236.400000", "182237.890000", "182239.380000", "182240.870000", "182242.360000", "182243.850000", "182245.340000", "182246.830000", "182248.320000", "182249.810000", "182251.300000", "182252.790000", "182254.280000", "182255.770000", "182257.260000", "182258.750000", "182300.240000", "182301.730000", "182303.220000", "182304.710000", "182306.200000", "182307.690000", "182309.180000", "182310.670000", "182312.160000", "182313.650000", "182315.140000", "182316.630000", "182318.120000", "182319.610000", "182321.100000", "182322.590000", "182324.080000", "182325.570000", "182327.060000", "182328.550000", "182330.040000", "182331.530000", "182333.020000", "182334.510000", "182336.000000", "182337.490000", "182338.980000", "182340.470000", "182341.960000", "182343.450000", "182344.940000"],
      "ContentTime": ["181324.636000", "181324.639000", "181324.642000", "181324.645000", "181324.648000", "181324.651000", "181324.654000", "181324.657000", "181324.660000", "181324.663000", "181324.670000", "181324.673000", "181324.676000", "181324.679000", "181324.682000", "181324.685000", "181324.688000", "181324.691000", "181324.694000", "181324.699000", "181324.702000", "181324.705000", "181324.708000", "181324.711000", "181344.602000", "181344.605000", "181344.608000", "181344.611000", "181344.614000", "181344.617000", "181344.620000", "181344.623000", "181344.626000", "181344.629000", "181344.632000", "181344.635000", "181344.638000", "181344.654000", "181344.658000", "181344.660000", "181344.663000", "181344.666000", "181344.669000", "181344.672000", "181404.602000", "181404.605000", "181404.608000", "181404.611000", "181404.614000", "181404.616000", "181404.619000", "181404.631000", "181404.634000", "181404.637000", "181404.640000", "181404.643000", "181404.646000", "181404.649000", "181404.652000", "181404.655000", "181404.658000", "181404.661000", "181404.664000", "181404.667000", "181424.602000", "181424.605000", "181424.608000", "181424.611000", "181424.614000", "181424.617000", "181424.620000", "181424.623000", "181424.625000", "181424.628000", "181424.631000", "181424.635000", "181424.637000", "181424.640000", "181424.643000", "181424.646000", "181424.649000", "181424.652000", "181424.655000", "181424.658000", "181504.602000", "181504.605000", "181504.608000", "181504.611000", "181504.614000", "181504.617000", "181504.620000", "181504.623000", "181504.626000", "181504.629000", "181504.632000", "181504.635000", "181504.638000", "181504.640000", "181504.643000", "181504.646000", "181504.649000", "181504.652000", "181504.655000", "181504.658000", "181504.661000", "181504.664000", "181504.667000", "181504.670000", "181504.673000", "181504.676000", "181504.679000", "181504.682000", "181504.685000", "181504.688000", "181504.691000", "181544.602000", "181544.605000", "181544.608000", "181544.611000", "181544.614000", "181544.617000", "181544.620000", "181544.623000", "181544.626000", "181544.629000", "181544.631000", "181544.635000", "181544.637000", "181544.640000", "181544.652000", "181544.655000", "181544.658000", "181544.661000", "181544.663000", "181544.666000", "181544.669000", "181544.672000", "181544.675000", "181544.678000", "181544.681000", "181544.684000", "181544.687000", "181624.602000", "181624.605000", "181624.608000", "181624.611000", "181624.614000", "181624.617000", "181624.620000", "181624.623000", "181624.626000", "181624.629000", "181624.632000", "181624.635000", "181624.638000", "181624.641000", "181624.644000", "181624.647000", "181624.650000", "181624.652000", "181624.655000", "181624.658000", "181624.661000", "181624.664000", "181624.667000", "181624.670000", "181624.673000", "181624.676000", "181624.679000", "181704.602000", "181704.605000", "181704.608000", "181704.611000", "181704.614000", "181704.617000", "181704.620000", "181704.623000", "181704.626000", "181704.629000", "181704.632000", "181704.635000", "181704.638000", "181704.641000", "181704.644000", "181704.647000", "181704.650000", "181704.653000", "181704.656000", "181704.658000", "181704.661000", "181704.664000", "181704.667000", "181704.670000", "181704.673000", "181704.676000", "181704.679000", "181744.602000", "181744.605000", "181744.608000", "181744.611000", "181744.614000", "181744.617000", "181744.620000", "181744.624000", "181744.627000", "181744.630000", "181744.633000", "181744.636000", "181744.639000", "181744.642000", "181744.645000", "181744.648000", "181744.651000", "181744.654000", "181744.657000", "181744.660000", "181744.663000", "181744.665000", "181744.668000", "181744.671000", "181744.674000", "181744.677000", "181744.680000", "181824.602000", "181824.605000", "181824.608000", "181824.611000", "181824.614000", "181824.617000", "181824.620000", "181824.623000", "181824.626000", "181824.629000", "181824.632000", "181824.635000", "181824.638000", "181824.641000", "181824.644000", "181824.647000", "181824.650000", "181824.654000", "181824.659000", "181824.662000", "181824.665000", "181824.668000", "181824.671000", "181824.674000", "181824.677000", "181824.680000", "181904.602000", "181904.605000", "181904.608000", "181904.611000", "181904.614000", "181904.617000", "181904.761000", "181904.764000", "181904.767000", "181904.770000", "181904.773000", "181904.776000", "181904.779000", "181904.782000", "181904.785000", "181904.788000", "181904.791000", "181904.794000", "181904.797000", "181904.800000", "181904.802000", "181904.806000", "181904.808000", "181904.811000", "181904.814000", "181904.818000", "181904.820000", "181924.602000", "181924.605000", "181924.608000", "181924.611000", "181924.614000", "181924.617000", "181924.620000", "181924.623000", "181924.626000", "181924.629000", "181924.632000", "181924.635000", "181924.638000", "181924.641000", "182004.602000", "182004.605000", "182004.608000", "182004.611000", "182004.614000", "182004.617000", "182004.620000", "182004.623000", "182004.626000", "182004.629000", "182004.632000", "182004.635000", "182004.638000", "182004.641000", "182004.644000", "182004.647000", "182004.650000", "182004.653000", "182004.656000", "182004.659000", "182004.662000", "182004.665000", "182004.668000", "182004.671000", "182004.674000", "182004.677000", "182004.680000", "182044.602000", "182044.605000", "182044.608000", "182044.611000", "182044.614000", "182044.617000", "182044.620000", "182044.623000", "182044.626000", "182044.644000", "182044.647000", "182044.654000", "182044.657000", "182044.660000", "182044.663000", "182044.666000", "182044.669000", "182044.671000", "182044.674000", "182044.677000", "182044.680000", "182044.683000", "182044.686000", "182044.689000", "182044.692000", "182044.695000", "182124.602000", "182124.605000", "182124.608000", "182124.643000", "182124.646000", "182124.649000", "182124.679000", "182124.682000", "182124.685000", "182124.688000", "182124.691000", "182124.694000", "182124.697000", "182124.700000", "182124.702000", "182124.706000", "182124.709000", "182124.712000", "182124.715000", "182124.718000", "182124.721000", "182124.724000", "182124.727000", "182124.730000", "182124.732000", "182124.735000", "182124.738000", "182204.603000", "182204.606000", "182204.609000", "182204.612000", "182204.615000", "182204.618000", "182204.621000", "182204.624000", "182204.627000", "182204.630000", "182204.633000", "182204.636000", "182204.639000", "182204.642000", "182204.645000", "182204.648000", "182204.651000", "182204.653000", "182204.656000", "182204.659000", "182204.662000", "182204.665000", "182204.668000", "182204.671000", "182204.674000", "182204.677000", "182204.680000", "182244.602000", "182244.605000", "182244.608000", "182244.611000", "182244.614000", "182244.617000", "182244.620000", "182244.623000", "182244.626000", "182244.629000", "182244.632000", "182244.635000", "182244.638000", "182244.641000", "182244.644000", "182244.647000", "182244.650000", "182244.653000", "182244.656000", "182244.659000", "182244.661000", "182244.664000", "182244.667000", "182244.670000", "182244.673000", "182244.676000", "182244.679000", "182324.602000", "182324.605000", "182324.608000", "182324.611000", "182324.614000", "182324.617000", "182324.620000", "182324.623000", "182324.626000", "182324.629000", "182324.632000", "182324.635000", "182324.638000", "182324.641000", "182324.644000", "182324.647000", "182324.650000", "182324.653000", "182324.656000", "182324.658000", "182324.662000", "182324.664000", "182324.667000", "182324.670000", "182324.673000", "182324.676000", "182324.679000", "182348.018000", "182348.022000", "182348.025000", "182348.027000", "182348.030000", "182348.033000", "182348.036000", "182348.039000", "182348.042000", "182348.046000", "182348.048000", "182348.051000", "182348.054000", "182348.057000", "182348.060000", "182348.063000"],
