{
  "AcquisitionMatrixPE": 104,
  "AcquisitionNumber": 1,
  "AcquisitionTime": "16:21:4.757500",
  "BandwidthPerPixelPhaseEncode": 17.17,
  "BaseResolution": 104,
  "BodyPartExamined": "BRAIN",
  "CoilCombinationMethod": "Sum of Squares",
  "ConsistencyInfo": "N4_VE11C_LATEST_20160120",
  "ConversionSoftware": "dcm2niix",
  "ConversionSoftwareVersion": "v1.0.20230411",
  "DerivedVendorReportedEchoSpacing": 0.000560011,
  "DeviceSerialNumber": "167006",
  "DwellTime": 2.1e-06,
  "EchoTime": 0.037,
  "EchoTrainLength": 104,
  "EffectiveEchoSpacing": 0.000560011,
  "FlipAngle": 52,
  "HeudiconvVersion": "0.5.3.post861+ge7d3c7f",
  "ImageComments": "Unaliased MB4/PE3/LB",
  "ImageOrientationPatientDICOM": [0.999805, 0.000943939, 0.0197328, 0.0101213, 0.833333, -0.552679],
  "ImageOrientationText": "Tra>Cor(-33.6)>Sag(1.0)",
  "ImageType": [
    "ORIGINAL",
    "PRIMARY",
    "M",
    "MB",
    "ND",
    "MOSAIC"
],
  "ImagingFrequency": 123.249755,
  "InPlanePhaseEncodingDirectionDICOM": "COL",
  "InstitutionAddress": "Chemin Queen-Mary 4565,Montreal,District,CA,H3W 1W5",
  "InstitutionName": "IUGM",
  "InstitutionalDepartmentName": "Department",
  "MRAcquisitionType": "2D",
  "MagneticFieldStrength": 3,
  "Manufacturer": "Siemens",
  "ManufacturersModelName": "Prisma_fit",
  "MatrixCoilMode": "SENSE",
  "Modality": "MR",
  "MultibandAccelerationFactor": 4,
  "NonlinearGradientCorrection": false,
  "PartialFourier": 1,
  "PatientPosition": "HFS",
  "PercentPhaseFOV": 100,
  "PercentSampling": 100,
  "PhaseEncodingDirection": "j",
  "PhaseEncodingSteps": 104,
  "PhaseResolution": 1,
  "PixelBandwidth": 2290,
  "ProcedureStepDescription": "video^friends",
  "ProtocolName": "func_task-friends-s07e06a",
  "PulseSequenceDetails": "%CustomerSeq%\\cmrr_mbep2d_bold",
  "ReceiveCoilActiveElements": "HC1-7;NC1,2",
  "ReceiveCoilName": "HeadNeck_64",
  "ReconMatrixPE": 104,
  "RepetitionTime": 1.49,
  "SAR": 0.0563466,
  "ScanOptions": "FS",
  "ScanningSequence": "EP",
  "SequenceName": "epfid2d1_104",
  "SequenceVariant": "SK\\SS",
  "SeriesDescription": "func_task-friends-s07e06a",
  "SeriesNumber": 10,
  "ShimSetting": [606, -7206, -8861, 285, 69, -245, -171, 110],
  "SliceThickness": 2,
  "SliceTiming": [0, 0.7825, 0.0975, 0.8825, 0.195, 0.98, 0.2925, 1.0775, 0.3925, 1.175, 0.49, 1.2725, 0.5875, 1.3725, 0.685, 0, 0.7825, 0.0975, 0.8825, 0.195, 0.98, 0.2925, 1.0775, 0.3925, 1.175, 0.49, 1.2725, 0.5875, 1.3725, 0.685, 0, 0.7825, 0.0975, 0.8825, 0.195, 0.98, 0.2925, 1.0775, 0.3925, 1.175, 0.49, 1.2725, 0.5875, 1.3725, 0.685, 0, 0.7825, 0.0975, 0.8825, 0.195, 0.98, 0.2925, 1.0775, 0.3925, 1.175, 0.49, 1.2725, 0.5875, 1.3725, 0.685],
  "SoftwareVersions": "syngo MR E11",
  "SpacingBetweenSlices": 2,
  "StationName": "MRC35049",
  "TaskName": "s07e06a",
  "TotalReadoutTime": 0.0576811,
  "TxRefAmp": 265.156,
  "WipMemBlock": "0103fde6-e78e-47bc-ab42-51af4a2fcc8c||Sequence: R017 ve11c/master r/75a17815+; Jun 28 2022 16:32:11 by eja",
  "dcmmeta_affine": [
    [-1.9996097087860107, 0.020242517814040184, 0.03393134847283363, 102.99647521972656],
    [-0.0018878785194829106, 1.6666654348373413, -1.1055418252944946, -56.488285064697266],
    [0.03946558013558388, 1.1053581237792969, 1.6663211584091187, -99.48194122314453],
    [0.0, 0.0, 0.0, 1.0]
],
  "dcmmeta_reorient_transform": [
    [0.0, -1.0, 0.0, 103.0],
    [1.0, 0.0, 0.0, 0.0],
    [0.0, 0.0, 1.0, 0.0],
    [0.0, 0.0, 0.0, 1.0]
],
  "dcmmeta_shape": [104, 104, 60, 478],
  "dcmmeta_slice_dim": 2,
  "dcmmeta_version": 0.6,
  "global": {
    "const": {
      "AcquisitionMatrix": [104, 0, 0, 104],
      "AngioFlag": "N",
      "BitsAllocated": 16,
      "BitsStored": 16,
      "BodyPartExamined": "BRAIN",
      "Columns": 832,
      "EchoNumbers": 1,
      "EchoTime": 37.0,
      "EchoTrainLength": 104,
      "FlipAngle": 52.0,
      "HighBit": 15,
      "ImageOrientationPatient": [0.99980484396046, 0.00094393923085, 0.01973278925869, 0.01012125868792, 0.83333273339666, -0.5526790348586],
      "ImagePositionPatient": [-840.30766023725, -722.53167619945, 402.3548035608],
      "ImageType": [
        "ORIGINAL",
        "PRIMARY",
        "M",
        "MB",
        "ND",
        "MOSAIC"
],
      "ImagedNucleus": "1H",
      "ImagingFrequency": 123.249755,
      "InPlanePhaseEncodingDirection": "COL",
      "MRAcquisitionType": "2D",
      "MagneticFieldStrength": 3.0,
      "Manufacturer": "SIEMENS",
      "ManufacturerModelName": "Prisma_fit",
      "Modality": "MR",
      "NumberOfAverages": 1.0,
      "NumberOfPhaseEncodingSteps": 104,
      "PercentPhaseFieldOfView": 100.0,
      "PercentSampling": 100.0,
      "PerformedProcedureStepStartTime": "161453.669000",
      "PhotometricInterpretation": "MONOCHROME2",
      "PixelBandwidth": 2290.0,
      "PixelRepresentation": 0,
      "PixelSpacing": [2.0, 2.0],
      "ProtocolName": "func_task-friends-s07e06a",
      "RepetitionTime": 1490.0,
      "Rows": 832,
      "SAR": 0.05634661082222,
      "SamplesPerPixel": 1,
      "ScanOptions": "FS",
      "ScanningSequence": "EP",
      "SequenceName": "epfid2d1_104",
      "SequenceVariant": [
        "SK",
        "SS"
],
      "SeriesDescription": "func_task-friends-s07e06a",
      "SeriesNumber": 10,
      "SeriesTime": "162205.198000",
      "SliceLocation": -49.911947035299,
      "SliceThickness": 2.0,
      "SmallestImagePixelValue": 0,
      "SoftwareVersions": "syngo MR E11",
      "SpacingBetweenSlices": 2.0000000478693,
      "SpecificCharacterSet": "ISO_IR 100",
      "StudyID": "1",
      "StudyTime": "161453.567000",
      "TransmitCoilName": "Body",
      "VariableFlipAngleFlag": "N",
      "WindowCenterWidthExplanation": "Algo1",
      "dBdt": 0.0},
    "slices": {}
  },
  "time": {
    "samples": {
      "AcquisitionNumber": [1, 2, 3, 4, 5, 6, 7, 8, 9, 10, 11, 12, 13, 14, 15, 16, 17, 18, 19, 20, 21, 22, 23, 24, 25, 26, 27, 28, 29, 30, 31, 32, 33, 34, 35, 36, 37, 38, 39, 40, 41, 42, 43, 44, 45, 46, 47, 48, 49, 50, 51, 52, 53, 54, 55, 56, 57, 58, 59, 60, 61, 62, 63, 64, 65, 66, 67, 68, 69, 70, 71, 72, 73, 74, 75, 76, 77, 78, 79, 80, 81, 82, 83, 84, 85, 86, 87, 88, 89, 90, 91, 92, 93, 94, 95, 96, 97, 98, 99, 100, 101, 102, 103, 104, 105, 106, 107, 108, 109, 110, 111, 112, 113, 114, 115, 116, 117, 118, 119, 120, 121, 122, 123, 124, 125, 126, 127, 128, 129, 130, 131, 132, 133, 134, 135, 136, 137, 138, 139, 140, 141, 142, 143, 144, 145, 146, 147, 148, 149, 150, 151, 152, 153, 154, 155, 156, 157, 158, 159, 160, 161, 162, 163, 164, 165, 166, 167, 168, 169, 170, 171, 172, 173, 174, 175, 176, 177, 178, 179, 180, 181, 182, 183, 184, 185, 186, 187, 188, 189, 190, 191, 192, 193, 194, 195, 196, 197, 198, 199, 200, 201, 202, 203, 204, 205, 206, 207, 208, 209, 210, 211, 212, 213, 214, 215, 216, 217, 218, 219, 220, 221, 222, 223, 224, 225, 226, 227, 228, 229, 230, 231, 232, 233, 234, 235, 236, 237, 238, 239, 240, 241, 242, 243, 244, 245, 246, 247, 248, 249, 250, 251, 252, 253, 254, 255, 256, 257, 258, 259, 260, 261, 262, 263, 264, 265, 266, 267, 268, 269, 270, 271, 272, 273, 274, 275, 276, 277, 278, 279, 280, 281, 282, 283, 284, 285, 286, 287, 288, 289, 290, 291, 292, 293, 294, 295, 296, 297, 298, 299, 300, 301, 302, 303, 304, 305, 306, 307, 308, 309, 310, 311, 312, 313, 314, 315, 316, 317, 318, 319, 320, 321, 322, 323, 324, 325, 326, 327, 328, 329, 330, 331, 332, 333, 334, 335, 336, 337, 338, 339, 340, 341, 342, 343, 344, 345, 346, 347, 348, 349, 350, 351, 352, 353, 354, 355, 356, 357, 358, 359, 360, 361, 362, 363, 364, 365, 366, 367, 368, 369, 370, 371, 372, 373, 374, 375, 376, 377, 378, 379, 380, 381, 382, 383, 384, 385, 386, 387, 388, 389, 390, 391, 392, 393, 394, 395, 396, 397, 398, 399, 400, 401, 402, 403, 404, 405, 406, 407, 408, 409, 410, 411, 412, 413, 414, 415, 416, 417, 418, 419, 420, 421, 422, 423, 424, 425, 426, 427, 428, 429, 430, 431, 432, 433, 434, 435, 436, 437, 438, 439, 440, 441, 442, 443, 444, 445, 446, 447, 448, 449, 450, 451, 452, 453, 454, 455, 456, 457, 458, 459, 460, 461, 462, 463, 464, 465, 466, 467, 468, 469, 470, 471, 472, 473, 474, 475, 476, 477, 478],
      "AcquisitionTime": ["162104.757500", "162106.247500", "162107.737500", "162109.227500", "162110.717500", "162112.207500", "162113.697500", "162115.187500", "162116.677500", "162118.167500", "162119.657500", "162121.147500", "162122.637500", "162124.127500", "162125.617500", "162127.107500", "162128.597500", "162130.087500", "162131.577500", "162133.067500", "162134.557500", "162136.047500", "162137.537500", "162139.027500", "162140.517500", "162142.007500", "162143.497500", "162144.987500", "162146.477500", "162147.967500", "162149.457500", "162150.947500", "162152.437500", "162153.927500", "162155.417500", "162156.907500", "162158.397500", "162159.887500", "162201.377500", "162202.867500", "162204.357500", "162205.847500", "162207.337500", "162208.827500", "162210.317500", "162211.807500", "162213.297500", "162214.787500", "162216.277500", "162217.767500", "162219.257500", "162220.747500", "162222.237500", "162223.727500", "162225.217500", "162226.707500", "162228.197500", "162229.687500", "162231.177500", "162232.667500", "162234.157500", "162235.647500", "162237.137500", "162238.627500", "162240.117500", "162241.607500", "162243.097500", "162244.587500", "162246.077500", "162247.567500", "162249.057500", "162250.547500", "162252.037500", "162253.527500", "162255.017500", "162256.507500", "162257.997500", "162259.487500", "162300.977500", "162302.467500", "162303.957500", "162305.447500", "162306.937500", "162308.427500", "162309.917500", "162311.407500", "162312.897500", "162314.387500", "162315.877500", "162317.367500", "162318.857500", "162320.347500", "162321.837500", "162323.327500", "162324.817500", "162326.307500", "162327.797500", "162329.287500", "162330.777500", "162332.267500", "162333.757500", "162335.247500", "162336.737500", "162338.227500", "162339.717500", "162341.207500", "162342.697500", "162344.187500", "162345.677500", "162347.167500", "162348.657500", "162350.147500", "162351.637500", "162353.127500", "162354.617500", "162356.107500", "162357.597500", "162359.087500", "162400.577500", "162402.067500", "162403.557500", "162405.047500", "162406.537500", "162408.027500", "162409.517500", "162411.007500", "162412.497500", "162413.987500", "162415.477500", "162416.967500", "162418.457500", "162419.947500", "162421.437500", "162422.927500", "162424.417500", "162425.907500", "162427.397500", "162428.887500", "162430.377500", "162431.867500", "162433.357500", "162434.847500", "162436.337500", "162437.827500", "162439.317500", "162440.807500", "162442.297500", "162443.787500", "162445.277500", "162446.767500", "162448.257500", "162449.747500", "162451.237500", "162452.727500", "162454.217500", "162455.707500", "162457.197500", "162458.687500", "162500.177500", "162501.667500", "162503.157500", "162504.647500", "162506.137500", "162507.627500", "162509.117500", "162510.607500", "162512.097500", "162513.587500", "162515.077500", "162516.567500", "162518.057500", "162519.547500", "162521.037500", "162522.527500", "162524.017500", "162525.507500", "162526.997500", "162528.487500", "162529.977500", "162531.467500", "162532.957500", "162534.447500", "162535.937500", "162537.427500", "162538.917500", "162540.407500", "162541.897500", "162543.387500", "162544.877500", "162546.367500", "162547.857500", "162549.347500", "162550.837500", "162552.327500", "162553.817500", "162555.307500", "162556.797500", "162558.287500", "162559.777500", "162601.267500", "162602.757500", "162604.247500", "162605.737500", "162607.227500", "162608.717500", "162610.207500", "162611.697500", "162613.187500", "162614.677500", "162616.167500", "162617.657500", "162619.147500", "162620.637500", "162622.127500", "162623.617500", "162625.107500", "162626.597500", "162628.087500", "162629.577500", "162631.067500", "162632.557500", "162634.047500", "162635.537500", "162637.027500", "162638.517500", "162640.007500", "162641.497500", "162642.987500", "162644.477500", "162645.967500", "162647.457500", "162648.947500", "162650.437500", "162651.927500", "162653.417500", "162654.907500", "162656.397500", "162657.887500", "162659.377500", "162700.867500", "162702.357500", "162703.847500", "162705.337500", "162706.827500", "162708.317500", "162709.807500", "162711.297500", "162712.787500", "162714.277500", "162715.767500", "162717.257500", "162718.747500", "162720.237500", "162721.727500", "162723.217500", "162724.707500", "162726.197500", "162727.687500", "162729.177500", "162730.667500", "162732.157500", "162733.647500", "162735.137500", "162736.627500", "162738.117500", "162739.607500", "162741.097500", "162742.587500", "162744.077500", "162745.567500", "162747.057500", "162748.547500", "162750.037500", "162751.527500", "162753.017500", "162754.507500", "162755.997500", "162757.487500", "162758.977500", "162800.467500", "162801.957500", "162803.447500", "162804.937500", "162806.427500", "162807.917500", "162809.407500", "162810.897500", "162812.387500", "162813.877500", "162815.367500", "162816.857500", "162818.347500", "162819.837500", "162821.327500", "162822.817500", "162824.307500", "162825.797500", "162827.287500", "162828.777500", "162830.267500", "162831.757500", "162833.247500", "162834.737500", "162836.227500", "162837.717500", "162839.207500", "162840.697500", "162842.187500", "162843.677500", "162845.167500", "162846.657500", "162848.147500", "162849.637500", "162851.127500", "162852.617500", "162854.107500", "162855.597500", "162857.087500", "162858.577500", "162900.067500", "162901.557500", "162903.047500", "162904.537500", "162906.027500", "162907.517500", "162909.007500", "162910.497500", "162911.987500", "162913.477500", "162914.967500", "162916.457500", "162917.947500", "162919.437500", "162920.927500", "162922.417500", "162923.907500", "162925.397500", "162926.887500", "162928.377500", "162929.867500", "162931.357500", "162932.847500", "162934.337500", "162935.827500", "162937.317500", "162938.807500", "162940.297500", "162941.787500", "162943.277500", "162944.767500", "162946.257500", "162947.747500", "162949.237500", "162950.727500", "162952.217500", "162953.707500", "162955.197500", "162956.687500", "162958.177500", "162959.667500", "163001.157500", "163002.647500", "163004.137500", "163005.627500", "163007.117500", "163008.607500", "163010.097500", "163011.587500", "163013.077500", "163014.567500", "163016.057500", "163017.547500", "163019.037500", "163020.527500", "163022.017500", "163023.507500", "163024.997500", "163026.487500", "163027.977500", "163029.467500", "163030.957500", "163032.447500", "163033.937500", "163035.427500", "163036.917500", "163038.407500", "163039.897500", "163041.387500", "163042.877500", "163044.367500", "163045.857500", "163047.347500", "163048.837500", "163050.327500", "163051.817500", "163053.307500", "163054.797500", "163056.287500", "163057.777500", "163059.267500", "163100.757500", "163102.247500", "163103.737500", "163105.227500", "163106.717500", "163108.207500", "163109.697500", "163111.187500", "163112.677500", "163114.167500", "163115.657500", "163117.147500", "163118.637500", "163120.127500", "163121.617500", "163123.107500", "163124.597500", "163126.087500", "163127.577500", "163129.067500", "163130.557500", "163132.047500", "163133.537500", "163135.027500", "163136.517500", "163138.007500", "163139.497500", "163140.987500", "163142.477500", "163143.967500", "163145.457500", "163146.947500", "163148.437500", "163149.927500", "163151.417500", "163152.907500", "163154.397500", "163155.887500", "163157.377500", "163158.867500", "163200.357500", "163201.847500", "163203.337500", "163204.827500", "163206.317500", "163207.807500", "163209.297500", "163210.787500", "163212.277500", "163213.767500", "163215.257500", "163216.747500", "163218.237500", "163219.727500", "163221.217500", "163222.707500", "163224.197500", "163225.687500", "163227.177500", "163228.667500", "163230.157500", "163231.647500", "163233.137500", "163234.627500", "163236.117500", "163237.607500", "163239.097500", "163240.587500", "163242.077500", "163243.567500", "163245.057500", "163246.547500", "163248.037500", "163249.527500", "163251.017500", "163252.507500", "163253.997500", "163255.487500"],
      "ContentTime": ["162205.200000", "162205.204000", "162205.207000", "162205.210000", "162205.213000", "162205.215000", "162205.218000", "162205.237000", "162205.243000", "162205.246000", "162205.249000", "162205.252000", "162225.169000", "162225.172000", "162225.175000", "162225.178000", "162225.181000", "162225.184000", "162225.187000", "162225.190000", "162225.193000", "162225.196000", "162225.199000", "162225.202000", "162225.205000", "162225.209000", "162225.212000", "162225.215000", "162225.218000", "162225.221000", "162225.231000", "162225.234000", "162245.169000", "162245.173000", "162245.176000", "162245.179000", "162245.182000", "162245.193000", "162245.196000", "162245.199000", "162245.202000", "162245.204000", "162245.207000", "162245.210000", "162245.213000", "162245.216000", "162245.219000", "162245.222000", "162245.225000", "162245.228000", "162245.231000", "162245.234000", "162305.168000", "162305.171000", "162305.174000", "162305.177000", "162305.180000", "162305.183000", "162305.186000", "162305.188000", "162305.191000", "162305.194000", "162305.197000", "162305.200000", "162305.203000", "162305.206000", "162305.209000", "162305.212000", "162305.215000", "162305.218000", "162305.221000", "162305.224000", "162305.226000", "162325.169000", "162325.172000", "162325.182000", "162325.185000", "162325.188000", "162325.191000", "162325.194000", "162325.197000", "162325.200000", "162325.203000", "162325.206000", "162325.208000", "162325.211000", "162325.214000", "162325.218000", "162325.221000", "162325.224000", "162325.227000", "162325.230000", "162325.233000", "162405.169000", "162405.172000", "162405.175000", "162405.178000", "162405.181000", "162405.184000", "162405.187000", "162405.190000", "162405.192000", "162405.195000", "162405.212000", "162405.215000", "162405.218000", "162405.221000", "162405.224000", "162405.227000", "162405.230000", "162405.233000", "162405.236000", "162405.238000", "162405.241000", "162405.244000", "162405.247000", "162405.250000", "162405.253000", "162405.256000", "162405.259000", "162445.169000", "162445.172000", "162445.175000", "162445.178000", "162445.181000", "162445.184000", "162445.187000", "162445.190000", "162445.192000", "162445.195000", "162445.198000", "162445.201000", "162445.204000", "162445.207000", "162445.210000", "162445.213000", "162445.216000", "162445.219000", "162445.222000", "162445.225000", "162445.228000", "162445.230000", "162445.234000", "162445.237000", "162445.240000", "162445.243000", "162445.246000", "162525.168000", "162525.171000", "162525.174000", "162525.177000", "162525.180000", "162525.183000", "162525.186000", "162525.189000", "162525.192000", "162525.195000", "162525.198000", "162525.200000", "162525.203000", "162525.206000", "162525.209000", "162525.212000", "162525.215000", "162525.218000", "162525.221000", "162525.224000", "162525.227000", "162525.230000", "162525.233000", "162525.236000", "162525.239000", "162525.241000", "162525.244000", "162605.169000", "162605.172000", "162605.175000", "162605.178000", "162605.181000", "162605.184000", "162605.187000", "162605.190000", "162605.193000", "162605.196000", "162605.199000", "162605.201000", "162605.204000", "162605.207000", "162605.210000", "162605.213000", "162605.216000", "162605.219000", "162605.222000", "162605.225000", "162605.228000", "162605.231000", "162605.234000", "162605.237000", "162605.240000", "162605.242000", "162605.245000", "162645.169000", "162645.172000", "162645.175000", "162645.178000", "162645.181000", "162645.184000", "162645.187000", "162645.190000", "162645.193000", "162645.196000", "162645.199000", "162645.202000", "162645.205000", "162645.208000", "162645.211000", "162645.214000", "162645.217000", "162645.219000", "162645.222000", "162645.225000", "162645.228000", "162645.231000", "162645.234000", "162645.237000", "162645.240000", "162645.243000", "162645.246000", "162725.169000", "162725.172000", "162725.175000", "162725.178000", "162725.181000", "162725.184000", "162725.187000", "162725.190000", "162725.193000", "162725.196000", "162725.199000", "162725.202000", "162725.205000", "162725.208000", "162725.211000", "162725.213000", "162725.216000", "162725.220000", "162725.222000", "162725.226000", "162725.230000", "162725.233000", "162725.236000", "162725.239000", "162725.242000", "162725.245000", "162805.169000", "162805.172000", "162805.175000", "162805.178000", "162805.181000", "162805.184000", "162805.187000", "162805.190000", "162805.193000", "162805.196000", "162805.199000", "162805.202000", "162805.204000", "162805.207000", "162805.210000", "162805.213000", "162805.216000", "162805.219000", "162805.222000", "162805.225000", "162805.228000", "162805.231000", "162805.234000", "162805.237000", "162805.239000", "162805.242000", "162805.245000", "162845.169000", "162845.172000", "162845.175000", "162845.178000", "162845.181000", "162845.184000", "162845.187000", "162845.190000", "162845.193000", "162845.196000", "162845.199000", "162845.202000", "162845.205000", "162845.207000", "162845.210000", "162845.213000", "162845.216000", "162845.219000", "162845.222000", "162845.234000", "162845.237000", "162845.239000", "162845.242000", "162845.245000", "162845.248000", "162845.251000", "162845.254000", "162925.169000", "162925.172000", "162925.175000", "162925.178000", "162925.181000", "162925.184000", "162925.187000", "162925.190000", "162925.193000", "162925.196000", "162925.199000", "162925.202000", "162925.204000", "162925.207000", "162925.210000", "162925.220000", "162925.223000", "162925.226000", "162925.229000", "162925.232000", "162925.235000", "162925.238000", "162925.241000", "162925.243000", "162925.246000", "162925.249000", "162925.252000", "163005.168000", "163005.171000", "163005.174000", "163005.177000", "163005.180000", "163005.183000", "163005.186000", "163005.189000", "163005.192000", "163005.195000", "163005.198000", "163005.201000", "163005.204000", "163005.207000", "163005.210000", "163005.213000", "163005.216000", "163005.219000", "163005.221000", "163005.224000", "163005.227000", "163005.230000", "163005.233000", "163005.236000", "163005.239000", "163005.242000", "163005.245000", "163045.169000", "163045.172000", "163045.175000", "163045.178000", "163045.181000", "163045.184000", "163045.187000", "163045.190000", "163045.193000", "163045.196000", "163045.199000", "163045.202000", "163045.205000", "163045.208000", "163045.210000", "163045.213000", "163045.216000", "163045.219000", "163045.222000", "163045.225000", "163045.228000", "163045.231000", "163045.234000", "163045.237000", "163045.240000", "163045.243000", "163045.246000", "163125.169000", "163125.172000", "163125.175000", "163125.178000", "163125.181000", "163125.184000", "163125.187000", "163125.190000", "163125.193000", "163125.196000", "163125.199000", "163125.201000", "163125.204000", "163125.207000", "163125.210000", "163125.213000", "163125.216000", "163125.219000", "163125.222000", "163125.225000", "163125.228000", "163125.231000", "163125.234000", "163125.237000", "163125.240000", "163125.243000", "163125.246000", "163205.169000", "163205.172000", "163205.175000", "163205.178000", "163205.181000", "163205.184000", "163205.187000", "163205.190000", "163205.199000", "163205.202000", "163205.204000", "163205.207000", "163205.210000", "163205.213000", "163205.216000", "163205.220000", "163205.223000", "163205.226000", "163205.229000", "163205.232000", "163205.235000", "163205.238000", "163205.241000", "163205.244000", "163205.247000", "163205.250000", "163245.169000", "163245.172000", "163245.175000", "163245.178000", "163245.181000", "163245.184000", "163245.187000", "163245.190000", "163245.193000", "163245.196000", "163245.199000", "163245.202000", "163245.205000", "163245.207000", "163245.210000", "163245.213000", "163245.216000", "163245.219000", "163245.222000", "163245.225000", "163245.228000", "163245.231000", "163245.234000", "163245.237000", "163245.240000", "163245.243000", "163245.251000", "163257.553000", "163257.557000", "163257.559000", "163257.562000", "163257.565000", "163257.569000", "163257.572000", "163257.575000", "163257.578000"],
