{
  "AcquisitionMatrixPE": 104,
  "AcquisitionNumber": 1,
  "AcquisitionTime": "19:26:53.765000",
  "BandwidthPerPixelPhaseEncode": 17.17,
  "BaseResolution": 104,
  "BodyPartExamined": "BRAIN",
  "CoilString": "HC1-7;NC1_2",
  "ConsistencyInfo": "N4_VE11C_LATEST_20160120",
  "ConversionSoftware": "dcm2niix",
  "ConversionSoftwareVersion": "v1.0.20190720  (JP2:OpenJPEG) GCC7.3.0",
  "DerivedVendorReportedEchoSpacing": 0.000560011,
  "DeviceSerialNumber": "167006",
  "DwellTime": 2.1e-06,
  "EchoTime": 0.037,
  "EchoTrainLength": 104,
  "EffectiveEchoSpacing": 0.000560011,
  "FlipAngle": 52,
  "ImageComments": "Unaliased_MB4_PE3_LB",
  "ImageOrientationPatientDICOM": [0.998158, -0.0588723, -0.0146547, 0.0488181, 0.922815, -0.382138],
  "ImageType": [
    "ORIGINAL",
    "PRIMARY",
    "M",
    "MB",
    "ND",
    "MOSAIC"
],
  "ImagingFrequency": 123.259,
  "InPlanePhaseEncodingDirectionDICOM": "COL",
  "InstitutionAddress": "Chemin_Queen-Mary_4565_Montreal_District_CA_H3W_1W5",
  "InstitutionName": "IUGM",
  "InstitutionalDepartmentName": "Department",
  "MRAcquisitionType": "2D",
  "MagneticFieldStrength": 3,
  "Manufacturer": "Siemens",
  "ManufacturersModelName": "Prisma_fit",
  "Modality": "MR",
  "MultibandAccelerationFactor": 4,
  "PartialFourier": 1,
  "PatientPosition": "HFS",
  "PercentPhaseFOV": 100,
  "PhaseEncodingDirection": "j",
  "PhaseEncodingSteps": 104,
  "PhaseResolution": 1,
  "PixelBandwidth": 2290,
  "ProcedureStepDescription": "video_friends",
  "ProtocolName": "func_task-s01e11a",
  "PulseSequenceDetails": "%CustomerSeq%_cmrr_mbep2d_bold",
  "ReceiveCoilActiveElements": "HC1-7;NC1,2",
  "ReceiveCoilName": "HeadNeck_64",
  "ReconMatrixPE": 104,
  "RepetitionTime": 1.49,
  "SAR": 0.0339649,
  "ScanOptions": "FS",
  "ScanningSequence": "EP",
  "SequenceName": "epfid2d1_104",
  "SequenceVariant": "SK_SS",
  "SeriesDescription": "func_task-s01e11a",
  "SeriesNumber": 21,
  "ShimSetting": [623, -7269, -8854, 401, 22, -415, 15, 35],
  "SliceThickness": 2,
  "SliceTiming": [0, 0.785, 0.1, 0.8825, 0.1975, 0.98, 0.295, 1.08, 0.3925, 1.1775, 0.49, 1.275, 0.59, 1.3725, 0.6875, 0, 0.785, 0.1, 0.8825, 0.1975, 0.98, 0.295, 1.08, 0.3925, 1.1775, 0.49, 1.275, 0.59, 1.3725, 0.6875, 0, 0.785, 0.1, 0.8825, 0.1975, 0.98, 0.295, 1.08, 0.3925, 1.1775, 0.49, 1.275, 0.59, 1.3725, 0.6875, 0, 0.785, 0.1, 0.8825, 0.1975, 0.98, 0.295, 1.08, 0.3925, 1.1775, 0.49, 1.275, 0.59, 1.3725, 0.6875],
  "SoftwareVersions": "syngo_MR_E11",
  "SpacingBetweenSlices": 2,
  "StationName": "MRC35049",
  "TaskName": "friends",
  "TotalReadoutTime": 0.0576811,
  "TxRefAmp": 230.667,
  "WipMemBlock": "0755c527-011b-4626-b935-efc69aa681c2||Sequence: R016 ve11c/master r/e634e98; Dec 19 2017 11:00:25 by eja",
  "dcmmeta_affine": [
    [-1.9963159561157227, 0.09763611108064651, -0.0720418244600296, 96.4626693725586],
    [0.11774462461471558, 1.8456294536590576, -0.7614380717277527, -75.32717895507812],
    [-0.029309336096048355, 0.7642767429351807, 1.8479777574539185, -69.24687194824219],
    [0.0, 0.0, 0.0, 1.0]
],
  "dcmmeta_reorient_transform": [
    [0.0, -1.0, 0.0, 103.0],
    [1.0, 0.0, 0.0, 0.0],
    [0.0, 0.0, 1.0, 0.0],
    [0.0, 0.0, 0.0, 1.0]
],
  "dcmmeta_shape": [104, 104, 60, 477],
  "dcmmeta_slice_dim": 2,
  "dcmmeta_version": 0.6,
  "global": {
    "const": {
      "AcquisitionMatrix": [104, 0, 0, 104],
      "AngioFlag": "N",
      "BitsAllocated": 16,
      "BitsStored": 16,
      "BodyPartExamined": "BRAIN",
      "Columns": 832,
      "EchoNumbers": 1,
      "EchoTime": 37.0,
      "EchoTrainLength": 104,
      "FlipAngle": 52.0,
      "HighBit": 15,
      "ImageOrientationPatient": [0.9981579491057, -0.0588723139722, -0.0146546676747, 0.04881805403675, 0.92281474822714, -0.3821383755324],
      "ImagePositionPatient": [-868.71771924968, -743.72275468362, 298.33896908335],
      "ImageType": [
        "ORIGINAL",
        "PRIMARY",
        "M",
        "MB",
        "ND",
        "MOSAIC"
],
      "ImagedNucleus": "1H",
      "ImagingFrequency": 123.259137,
      "InPlanePhaseEncodingDirection": "COL",
      "MRAcquisitionType": "2D",
      "MagneticFieldStrength": 3.0,
      "Manufacturer": "SIEMENS",
      "ManufacturerModelName": "Prisma_fit",
      "Modality": "MR",
      "NumberOfAverages": 1.0,
      "NumberOfPhaseEncodingSteps": 104,
      "PercentPhaseFieldOfView": 100.0,
      "PercentSampling": 100.0,
      "PerformedProcedureStepStartTime": "174035.701000",
      "PhotometricInterpretation": "MONOCHROME2",
      "PixelBandwidth": 2290.0,
      "PixelRepresentation": 0,
      "PixelSpacing": [2.0, 2.0],
      "ProtocolName": "func_task-s01e11a",
      "RepetitionTime": 1490.0,
      "Rows": 832,
      "SAR": 0.03396493702901,
      "SamplesPerPixel": 1,
      "ScanOptions": "FS",
      "ScanningSequence": "EP",
      "SequenceName": "epfid2d1_104",
      "SequenceVariant": [
        "SK",
        "SS"
],
      "SeriesDescription": "func_task-s01e11a",
      "SeriesNumber": 21,
      "SeriesTime": "192819.316000",
      "SliceLocation": -38.779524596707,
      "SliceThickness": 2.0,
      "SmallestImagePixelValue": 0,
      "SoftwareVersions": "syngo MR E11",
      "SpacingBetweenSlices": 1.9999999660245,
      "SpecificCharacterSet": "ISO_IR 100",
      "StudyID": "1",
      "StudyTime": "174035.607000",
      "TransmitCoilName": "Body",
      "VariableFlipAngleFlag": "N",
      "WindowCenterWidthExplanation": "Algo1",
      "dBdt": 0.0},
    "slices": {}
  },
  "time": {
    "samples": {
      "AcquisitionNumber": [1, 2, 3, 4, 5, 6, 7, 8, 9, 10, 11, 12, 13, 14, 15, 16, 17, 18, 19, 20, 21, 22, 23, 24, 25, 26, 27, 28, 29, 30, 31, 32, 33, 34, 35, 36, 37, 38, 39, 40, 41, 42, 43, 44, 45, 46, 47, 48, 49, 50, 51, 52, 53, 54, 55, 56, 57, 58, 59, 60, 61, 62, 63, 64, 65, 66, 67, 68, 69, 70, 71, 72, 73, 74, 75, 76, 77, 78, 79, 80, 81, 82, 83, 84, 85, 86, 87, 88, 89, 90, 91, 92, 93, 94, 95, 96, 97, 98, 99, 100, 101, 102, 103, 104, 105, 106, 107, 108, 109, 110, 111, 112, 113, 114, 115, 116, 117, 118, 119, 120, 121, 122, 123, 124, 125, 126, 127, 128, 129, 130, 131, 132, 133, 134, 135, 136, 137, 138, 139, 140, 141, 142, 143, 144, 145, 146, 147, 148, 149, 150, 151, 152, 153, 154, 155, 156, 157, 158, 159, 160, 161, 162, 163, 164, 165, 166, 167, 168, 169, 170, 171, 172, 173, 174, 175, 176, 177, 178, 179, 180, 181, 182, 183, 184, 185, 186, 187, 188, 189, 190, 191, 192, 193, 194, 195, 196, 197, 198, 199, 200, 201, 202, 203, 204, 205, 206, 207, 208, 209, 210, 211, 212, 213, 214, 215, 216, 217, 218, 219, 220, 221, 222, 223, 224, 225, 226, 227, 228, 229, 230, 231, 232, 233, 234, 235, 236, 237, 238, 239, 240, 241, 242, 243, 244, 245, 246, 247, 248, 249, 250, 251, 252, 253, 254, 255, 256, 257, 258, 259, 260, 261, 262, 263, 264, 265, 266, 267, 268, 269, 270, 271, 272, 273, 274, 275, 276, 277, 278, 279, 280, 281, 282, 283, 284, 285, 286, 287, 288, 289, 290, 291, 292, 293, 294, 295, 296, 297, 298, 299, 300, 301, 302, 303, 304, 305, 306, 307, 308, 309, 310, 311, 312, 313, 314, 315, 316, 317, 318, 319, 320, 321, 322, 323, 324, 325, 326, 327, 328, 329, 330, 331, 332, 333, 334, 335, 336, 337, 338, 339, 340, 341, 342, 343, 344, 345, 346, 347, 348, 349, 350, 351, 352, 353, 354, 355, 356, 357, 358, 359, 360, 361, 362, 363, 364, 365, 366, 367, 368, 369, 370, 371, 372, 373, 374, 375, 376, 377, 378, 379, 380, 381, 382, 383, 384, 385, 386, 387, 388, 389, 390, 391, 392, 393, 394, 395, 396, 397, 398, 399, 400, 401, 402, 403, 404, 405, 406, 407, 408, 409, 410, 411, 412, 413, 414, 415, 416, 417, 418, 419, 420, 421, 422, 423, 424, 425, 426, 427, 428, 429, 430, 431, 432, 433, 434, 435, 436, 437, 438, 439, 440, 441, 442, 443, 444, 445, 446, 447, 448, 449, 450, 451, 452, 453, 454, 455, 456, 457, 458, 459, 460, 461, 462, 463, 464, 465, 466, 467, 468, 469, 470, 471, 472, 473, 474, 475, 476, 477],
      "AcquisitionTime": ["192653.765000", "192655.255000", "192656.745000", "192658.235000", "192659.725000", "192701.215000", "192702.705000", "192704.195000", "192705.685000", "192707.175000", "192708.665000", "192710.155000", "192711.645000", "192713.135000", "192714.625000", "192716.115000", "192717.605000", "192719.095000", "192720.585000", "192722.075000", "192723.565000", "192725.055000", "192726.545000", "192728.035000", "192729.525000", "192731.015000", "192732.505000", "192733.995000", "192735.485000", "192736.975000", "192738.465000", "192739.955000", "192741.445000", "192742.935000", "192744.425000", "192745.915000", "192747.405000", "192748.895000", "192750.385000", "192751.875000", "192753.365000", "192754.855000", "192756.345000", "192757.835000", "192759.325000", "192800.815000", "192802.305000", "192803.795000", "192805.285000", "192806.775000", "192808.265000", "192809.755000", "192811.245000", "192812.735000", "192814.225000", "192815.715000", "192817.205000", "192818.695000", "192820.185000", "192821.675000", "192823.165000", "192824.655000", "192826.145000", "192827.635000", "192829.125000", "192830.615000", "192832.105000", "192833.595000", "192835.085000", "192836.575000", "192838.065000", "192839.555000", "192841.045000", "192842.535000", "192844.025000", "192845.515000", "192847.005000", "192848.495000", "192849.985000", "192851.475000", "192852.965000", "192854.455000", "192855.945000", "192857.435000", "192858.925000", "192900.415000", "192901.905000", "192903.395000", "192904.885000", "192906.375000", "192907.865000", "192909.355000", "192910.845000", "192912.335000", "192913.825000", "192915.315000", "192916.805000", "192918.295000", "192919.785000", "192921.275000", "192922.765000", "192924.255000", "192925.745000", "192927.235000", "192928.725000", "192930.215000", "192931.705000", "192933.195000", "192934.685000", "192936.175000", "192937.665000", "192939.155000", "192940.645000", "192942.135000", "192943.625000", "192945.115000", "192946.605000", "192948.095000", "192949.585000", "192951.075000", "192952.565000", "192954.055000", "192955.545000", "192957.035000", "192958.525000", "193000.015000", "193001.505000", "193002.995000", "193004.485000", "193005.975000", "193007.465000", "193008.955000", "193010.445000", "193011.935000", "193013.425000", "193014.915000", "193016.405000", "193017.895000", "193019.385000", "193020.875000", "193022.365000", "193023.855000", "193025.345000", "193026.835000", "193028.325000", "193029.815000", "193031.305000", "193032.795000", "193034.285000", "193035.775000", "193037.265000", "193038.755000", "193040.245000", "193041.735000", "193043.225000", "193044.715000", "193046.205000", "193047.695000", "193049.185000", "193050.675000", "193052.165000", "193053.655000", "193055.145000", "193056.635000", "193058.125000", "193059.615000", "193101.105000", "193102.595000", "193104.085000", "193105.575000", "193107.065000", "193108.555000", "193110.045000", "193111.535000", "193113.025000", "193114.515000", "193116.005000", "193117.495000", "193118.985000", "193120.475000", "193121.965000", "193123.455000", "193124.945000", "193126.435000", "193127.925000", "193129.415000", "193130.905000", "193132.395000", "193133.885000", "193135.375000", "193136.865000", "193138.355000", "193139.845000", "193141.335000", "193142.825000", "193144.315000", "193145.805000", "193147.295000", "193148.785000", "193150.275000", "193151.765000", "193153.255000", "193154.745000", "193156.235000", "193157.725000", "193159.215000", "193200.705000", "193202.195000", "193203.685000", "193205.175000", "193206.665000", "193208.155000", "193209.645000", "193211.135000", "193212.625000", "193214.115000", "193215.605000", "193217.095000", "193218.585000", "193220.075000", "193221.565000", "193223.055000", "193224.545000", "193226.035000", "193227.525000", "193229.015000", "193230.505000", "193231.995000", "193233.485000", "193234.975000", "193236.465000", "193237.955000", "193239.445000", "193240.935000", "193242.425000", "193243.915000", "193245.405000", "193246.895000", "193248.385000", "193249.875000", "193251.365000", "193252.855000", "193254.345000", "193255.835000", "193257.325000", "193258.815000", "193300.305000", "193301.795000", "193303.285000", "193304.775000", "193306.265000", "193307.755000", "193309.245000", "193310.735000", "193312.225000", "193313.715000", "193315.205000", "193316.695000", "193318.185000", "193319.675000", "193321.165000", "193322.655000", "193324.145000", "193325.635000", "193327.125000", "193328.615000", "193330.105000", "193331.595000", "193333.085000", "193334.575000", "193336.065000", "193337.555000", "193339.045000", "193340.535000", "193342.025000", "193343.515000", "193345.005000", "193346.495000", "193347.985000", "193349.475000", "193350.965000", "193352.455000", "193353.945000", "193355.435000", "193356.925000", "193358.415000", "193359.905000", "193401.395000", "193402.885000", "193404.375000", "193405.865000", "193407.355000", "193408.845000", "193410.335000", "193411.825000", "193413.315000", "193414.805000", "193416.295000", "193417.785000", "193419.275000", "193420.765000", "193422.255000", "193423.745000", "193425.235000", "193426.725000", "193428.215000", "193429.705000", "193431.195000", "193432.685000", "193434.175000", "193435.665000", "193437.155000", "193438.645000", "193440.135000", "193441.625000", "193443.115000", "193444.605000", "193446.095000", "193447.585000", "193449.075000", "193450.565000", "193452.055000", "193453.545000", "193455.035000", "193456.525000", "193458.015000", "193459.505000", "193500.995000", "193502.485000", "193503.975000", "193505.465000", "193506.955000", "193508.445000", "193509.935000", "193511.425000", "193512.915000", "193514.405000", "193515.895000", "193517.385000", "193518.875000", "193520.365000", "193521.855000", "193523.345000", "193524.835000", "193526.325000", "193527.815000", "193529.305000", "193530.795000", "193532.285000", "193533.775000", "193535.265000", "193536.755000", "193538.245000", "193539.735000", "193541.225000", "193542.715000", "193544.205000", "193545.695000", "193547.185000", "193548.675000", "193550.165000", "193551.655000", "193553.145000", "193554.635000", "193556.125000", "193557.615000", "193559.105000", "193600.595000", "193602.085000", "193603.575000", "193605.065000", "193606.555000", "193608.045000", "193609.535000", "193611.025000", "193612.515000", "193614.005000", "193615.495000", "193616.985000", "193618.475000", "193619.965000", "193621.455000", "193622.945000", "193624.435000", "193625.925000", "193627.415000", "193628.905000", "193630.395000", "193631.885000", "193633.375000", "193634.865000", "193636.355000", "193637.845000", "193639.335000", "193640.825000", "193642.315000", "193643.805000", "193645.295000", "193646.785000", "193648.275000", "193649.765000", "193651.255000", "193652.745000", "193654.235000", "193655.725000", "193657.215000", "193658.705000", "193700.195000", "193701.685000", "193703.175000", "193704.665000", "193706.155000", "193707.645000", "193709.135000", "193710.625000", "193712.115000", "193713.605000", "193715.095000", "193716.585000", "193718.075000", "193719.565000", "193721.055000", "193722.545000", "193724.035000", "193725.525000", "193727.015000", "193728.505000", "193729.995000", "193731.485000", "193732.975000", "193734.465000", "193735.955000", "193737.445000", "193738.935000", "193740.425000", "193741.915000", "193743.405000", "193744.895000", "193746.385000", "193747.875000", "193749.365000", "193750.855000", "193752.345000", "193753.835000", "193755.325000", "193756.815000", "193758.305000", "193759.795000", "193801.285000", "193802.775000", "193804.265000", "193805.755000", "193807.245000", "193808.735000", "193810.225000", "193811.715000", "193813.205000", "193814.695000", "193816.185000", "193817.675000", "193819.165000", "193820.655000", "193822.145000", "193823.635000", "193825.125000", "193826.615000", "193828.105000", "193829.595000", "193831.085000", "193832.575000", "193834.065000", "193835.555000", "193837.045000", "193838.535000", "193840.025000", "193841.515000", "193843.005000"],
      "ContentTime": ["192819.318000", "192819.321000", "192819.324000", "192819.327000", "192819.330000", "192819.333000", "192819.336000", "192819.339000", "192819.342000", "192819.344000", "192819.347000", "192819.350000", "192819.353000", "192819.356000", "192819.359000", "192819.361000", "192819.372000", "192819.375000", "192819.377000", "192819.380000", "192819.383000", "192819.386000", "192819.388000", "192819.391000", "192819.394000", "192819.397000", "192819.400000", "192819.403000", "192819.405000", "192819.409000", "192819.412000", "192819.415000", "192819.418000", "192839.291000", "192839.294000", "192839.297000", "192839.299000", "192839.302000", "192839.305000", "192839.324000", "192839.327000", "192839.329000", "192839.332000", "192839.335000", "192839.338000", "192839.341000", "192839.344000", "192839.346000", "192839.349000", "192839.352000", "192839.355000", "192839.357000", "192839.360000", "192839.363000", "192859.292000", "192859.295000", "192859.298000", "192859.300000", "192859.303000", "192859.306000", "192859.309000", "192859.312000", "192859.314000", "192859.317000", "192859.320000", "192859.323000", "192859.326000", "192859.328000", "192859.331000", "192859.334000", "192859.340000", "192859.343000", "192859.346000", "192859.349000", "192919.292000", "192919.295000", "192919.298000", "192919.300000", "192919.303000", "192919.306000", "192919.309000", "192919.312000", "192919.314000", "192919.317000", "192919.320000", "192919.323000", "192919.329000", "192919.332000", "192919.335000", "192919.337000", "192919.340000", "192919.343000", "192919.346000", "192919.349000", "192959.291000", "192959.294000", "192959.297000", "192959.299000", "192959.302000", "192959.305000", "192959.308000", "192959.311000", "192959.313000", "192959.316000", "192959.319000", "192959.322000", "192959.325000", "192959.328000", "192959.330000", "192959.333000", "192959.336000", "192959.339000", "192959.341000", "192959.344000", "192959.347000", "192959.350000", "192959.353000", "192959.355000", "192959.358000", "192959.374000", "192959.377000", "192959.379000", "192959.382000", "192959.385000", "193039.291000", "193039.294000", "193039.297000", "193039.299000", "193039.302000", "193039.305000", "193039.308000", "193039.311000", "193039.314000", "193039.316000", "193039.319000", "193039.322000", "193039.325000", "193039.328000", "193039.331000", "193039.333000", "193039.336000", "193039.339000", "193039.342000", "193039.345000", "193039.347000", "193039.350000", "193039.353000", "193039.356000", "193039.359000", "193039.362000", "193039.364000", "193119.292000", "193119.295000", "193119.298000", "193119.301000", "193119.303000", "193119.306000", "193119.309000", "193119.312000", "193119.315000", "193119.318000", "193119.320000", "193119.323000", "193119.326000", "193119.329000", "193119.332000", "193119.334000", "193119.337000", "193119.340000", "193119.343000", "193119.346000", "193119.348000", "193119.351000", "193119.354000", "193119.357000", "193119.360000", "193119.363000", "193119.365000", "193159.292000", "193159.295000", "193159.298000", "193159.300000", "193159.306000", "193159.309000", "193159.312000", "193159.315000", "193159.318000", "193159.321000", "193159.323000", "193159.326000", "193159.329000", "193159.332000", "193159.335000", "193159.338000", "193159.340000", "193159.343000", "193159.346000", "193159.349000", "193159.352000", "193159.354000", "193159.357000", "193159.361000", "193159.364000", "193159.366000", "193239.291000", "193239.294000", "193239.297000", "193239.300000", "193239.302000", "193239.305000", "193239.308000", "193239.311000", "193239.314000", "193239.317000", "193239.319000", "193239.322000", "193239.325000", "193239.328000", "193239.331000", "193239.334000", "193239.336000", "193239.339000", "193239.342000", "193239.345000", "193239.348000", "193239.351000", "193239.353000", "193239.356000", "193239.359000", "193239.362000", "193239.365000", "193319.291000", "193319.294000", "193319.297000", "193319.300000", "193319.302000", "193319.305000", "193319.308000", "193319.311000", "193319.314000", "193319.338000", "193319.341000", "193319.344000", "193319.347000", "193319.350000", "193319.352000", "193319.355000", "193319.358000", "193319.361000", "193319.364000", "193319.366000", "193319.369000", "193319.372000", "193319.375000", "193319.378000", "193319.381000", "193319.384000", "193319.387000", "193359.292000", "193359.295000", "193359.298000", "193359.301000", "193359.303000", "193359.306000", "193359.309000", "193359.312000", "193359.315000", "193359.317000", "193359.320000", "193359.323000", "193359.326000", "193359.329000", "193359.332000", "193359.334000", "193359.337000", "193359.340000", "193359.343000", "193359.346000", "193359.348000", "193359.351000", "193359.354000", "193359.357000", "193359.360000", "193359.363000", "193359.365000", "193439.291000", "193439.294000", "193439.297000", "193439.299000", "193439.302000", "193439.305000", "193439.308000", "193439.311000", "193439.314000", "193439.317000", "193439.320000", "193439.322000", "193439.325000", "193439.328000", "193439.331000", "193439.334000", "193439.336000", "193439.339000", "193439.342000", "193439.345000", "193439.348000", "193439.351000", "193439.353000", "193439.356000", "193439.359000", "193439.362000", "193439.365000", "193519.291000", "193519.294000", "193519.297000", "193519.300000", "193519.302000", "193519.305000", "193519.308000", "193519.311000", "193519.314000", "193519.317000", "193519.319000", "193519.322000", "193519.325000", "193519.328000", "193519.331000", "193519.334000", "193519.336000", "193519.339000", "193519.342000", "193519.345000", "193519.348000", "193519.351000", "193519.353000", "193519.356000", "193519.359000", "193519.362000", "193519.365000", "193559.292000", "193559.295000", "193559.298000", "193559.301000", "193559.304000", "193559.307000", "193559.309000", "193559.312000", "193559.315000", "193559.318000", "193559.321000", "193559.324000", "193559.326000", "193559.329000", "193559.332000", "193559.335000", "193559.338000", "193559.341000", "193559.343000", "193559.346000", "193559.349000", "193559.352000", "193559.355000", "193559.358000", "193559.360000", "193559.363000", "193639.292000", "193639.295000", "193639.298000", "193639.301000", "193639.304000", "193639.306000", "193639.309000", "193639.312000", "193639.315000", "193639.318000", "193639.321000", "193639.323000", "193639.326000", "193639.329000", "193639.332000", "193639.335000", "193639.337000", "193639.340000", "193639.343000", "193639.346000", "193639.349000", "193639.352000", "193639.354000", "193639.357000", "193639.360000", "193639.363000", "193639.366000", "193719.291000", "193719.294000", "193719.297000", "193719.300000", "193719.302000", "193719.305000", "193719.308000", "193719.311000", "193719.314000", "193719.317000", "193719.320000", "193719.322000", "193719.325000", "193719.328000", "193719.341000", "193719.344000", "193719.347000", "193719.349000", "193719.352000", "193719.355000", "193719.358000", "193719.361000", "193719.363000", "193719.366000", "193719.369000", "193719.372000", "193719.375000", "193759.291000", "193759.294000", "193759.297000", "193759.300000", "193759.302000", "193759.305000", "193759.308000", "193759.311000", "193759.314000", "193759.317000", "193759.333000", "193759.336000", "193759.339000", "193759.342000", "193759.344000", "193759.347000", "193759.350000", "193759.353000", "193759.356000", "193759.359000", "193759.361000", "193759.364000", "193759.367000", "193759.370000", "193759.373000", "193759.376000", "193759.378000", "193839.292000", "193839.295000", "193839.298000", "193839.301000", "193839.303000", "193839.306000", "193839.309000", "193839.312000", "193839.315000", "193839.318000", "193839.321000", "193839.323000", "193839.326000", "193839.329000", "193839.332000", "193839.335000", "193839.338000", "193839.340000", "193839.343000", "193839.346000", "193839.349000", "193839.352000", "193839.354000", "193839.357000", "193839.360000", "193839.363000", "193839.366000", "193844.831000", "193844.835000", "193844.838000", "193844.840000"],
