{
  "AcquisitionMatrixPE": 104,
  "AcquisitionNumber": 1,
  "AcquisitionTime": "18:10:37.042500",
  "BandwidthPerPixelPhaseEncode": 17.17,
  "BaseResolution": 104,
  "BodyPartExamined": "BRAIN",
  "CoilString": "HC1-7;NC1_2",
  "ConsistencyInfo": "N4_VE11C_LATEST_20160120",
  "ConversionSoftware": "dcm2niix",
  "ConversionSoftwareVersion": "v1.0.20190720  (JP2:OpenJPEG) GCC7.3.0",
  "DerivedVendorReportedEchoSpacing": 0.000560011,
  "DeviceSerialNumber": "167006",
  "DwellTime": 2.1e-06,
  "EchoTime": 0.037,
  "EchoTrainLength": 104,
  "EffectiveEchoSpacing": 0.000560011,
  "FlipAngle": 52,
  "ImageComments": "Unaliased_MB4_PE3_LB",
  "ImageOrientationPatientDICOM": [0.998158, -0.0588723, -0.0146547, 0.0488181, 0.922815, -0.382138],
  "ImageType": [
    "ORIGINAL",
    "PRIMARY",
    "M",
    "MB",
    "ND",
    "MOSAIC"
],
  "ImagingFrequency": 123.259,
  "InPlanePhaseEncodingDirectionDICOM": "COL",
  "InstitutionAddress": "Chemin_Queen-Mary_4565_Montreal_District_CA_H3W_1W5",
  "InstitutionName": "IUGM",
  "InstitutionalDepartmentName": "Department",
  "MRAcquisitionType": "2D",
  "MagneticFieldStrength": 3,
  "Manufacturer": "Siemens",
  "ManufacturersModelName": "Prisma_fit",
  "Modality": "MR",
  "MultibandAccelerationFactor": 4,
  "PartialFourier": 1,
  "PatientPosition": "HFS",
  "PercentPhaseFOV": 100,
  "PhaseEncodingDirection": "j",
  "PhaseEncodingSteps": 104,
  "PhaseResolution": 1,
  "PixelBandwidth": 2290,
  "ProcedureStepDescription": "video_friends",
  "ProtocolName": "func_task-friends-s01e08a",
  "PulseSequenceDetails": "%CustomerSeq%_cmrr_mbep2d_bold",
  "ReceiveCoilActiveElements": "HC1-7;NC1,2",
  "ReceiveCoilName": "HeadNeck_64",
  "ReconMatrixPE": 104,
  "RepetitionTime": 1.49,
  "SAR": 0.0339646,
  "ScanOptions": "FS",
  "ScanningSequence": "EP",
  "SequenceName": "epfid2d1_104",
  "SequenceVariant": "SK_SS",
  "SeriesDescription": "func_task-friends-s01e08a",
  "SeriesNumber": 9,
  "ShimSetting": [623, -7269, -8854, 401, 22, -415, 15, 35],
  "SliceThickness": 2,
  "SliceTiming": [0, 0.785, 0.1, 0.8825, 0.1975, 0.98, 0.295, 1.0775, 0.3925, 1.1775, 0.49, 1.275, 0.59, 1.3725, 0.6875, 0, 0.785, 0.1, 0.8825, 0.1975, 0.98, 0.295, 1.0775, 0.3925, 1.1775, 0.49, 1.275, 0.59, 1.3725, 0.6875, 0, 0.785, 0.1, 0.8825, 0.1975, 0.98, 0.295, 1.0775, 0.3925, 1.1775, 0.49, 1.275, 0.59, 1.3725, 0.6875, 0, 0.785, 0.1, 0.8825, 0.1975, 0.98, 0.295, 1.0775, 0.3925, 1.1775, 0.49, 1.275, 0.59, 1.3725, 0.6875],
  "SoftwareVersions": "syngo_MR_E11",
  "SpacingBetweenSlices": 2,
  "StationName": "MRC35049",
  "TaskName": "friends",
  "TotalReadoutTime": 0.0576811,
  "TxRefAmp": 230.667,
  "WipMemBlock": "7354707e-8d2c-443e-b978-25111f63dcea||Sequence: R016 ve11c/master r/e634e98; Dec 19 2017 11:00:25 by eja",
  "dcmmeta_affine": [
    [-1.9963159561157227, 0.09763611108064651, -0.0720418244600296, 96.4626693725586],
    [0.11774462461471558, 1.8456294536590576, -0.7614380717277527, -75.32717895507812],
    [-0.029309336096048355, 0.7642767429351807, 1.8479777574539185, -69.24687194824219],
    [0.0, 0.0, 0.0, 1.0]
],
  "dcmmeta_reorient_transform": [
    [0.0, -1.0, 0.0, 103.0],
    [1.0, 0.0, 0.0, 0.0],
    [0.0, 0.0, 1.0, 0.0],
    [0.0, 0.0, 0.0, 1.0]
],
  "dcmmeta_shape": [104, 104, 60, 476],
  "dcmmeta_slice_dim": 2,
  "dcmmeta_version": 0.6,
  "global": {
    "const": {
      "AcquisitionMatrix": [104, 0, 0, 104],
      "AngioFlag": "N",
      "BitsAllocated": 16,
      "BitsStored": 16,
      "BodyPartExamined": "BRAIN",
      "Columns": 832,
      "EchoNumbers": 1,
      "EchoTime": 37.0,
      "EchoTrainLength": 104,
      "FlipAngle": 52.0,
      "HighBit": 15,
      "ImageOrientationPatient": [0.9981579491057, -0.0588723139722, -0.0146546676747, 0.04881805403675, 0.92281474822714, -0.3821383755324],
      "ImagePositionPatient": [-868.71771924968, -743.72275468362, 298.33896908335],
      "ImageType": [
        "ORIGINAL",
        "PRIMARY",
        "M",
        "MB",
        "ND",
        "MOSAIC"
],
      "ImagedNucleus": "1H",
      "ImagingFrequency": 123.259108,
      "InPlanePhaseEncodingDirection": "COL",
      "MRAcquisitionType": "2D",
      "MagneticFieldStrength": 3.0,
      "Manufacturer": "SIEMENS",
      "ManufacturerModelName": "Prisma_fit",
      "Modality": "MR",
      "NumberOfAverages": 1.0,
      "NumberOfPhaseEncodingSteps": 104,
      "PercentPhaseFieldOfView": 100.0,
      "PercentSampling": 100.0,
      "PerformedProcedureStepStartTime": "174035.701000",
      "PhotometricInterpretation": "MONOCHROME2",
      "PixelBandwidth": 2290.0,
      "PixelRepresentation": 0,
      "PixelSpacing": [2.0, 2.0],
      "ProtocolName": "func_task-friends-s01e08a",
      "RepetitionTime": 1490.0,
      "Rows": 832,
      "SAR": 0.03396464143095,
      "SamplesPerPixel": 1,
      "ScanOptions": "FS",
      "ScanningSequence": "EP",
      "SequenceName": "epfid2d1_104",
      "SequenceVariant": [
        "SK",
        "SS"
],
      "SeriesDescription": "func_task-friends-s01e08a",
      "SeriesNumber": 9,
      "SeriesTime": "181139.318000",
      "SliceLocation": -38.779524596707,
      "SliceThickness": 2.0,
      "SmallestImagePixelValue": 0,
      "SoftwareVersions": "syngo MR E11",
      "SpacingBetweenSlices": 1.9999999660245,
      "SpecificCharacterSet": "ISO_IR 100",
      "StudyID": "1",
      "StudyTime": "174035.607000",
      "TransmitCoilName": "Body",
      "VariableFlipAngleFlag": "N",
      "WindowCenterWidthExplanation": "Algo1",
      "dBdt": 0.0},
    "slices": {}
  },
  "time": {
    "samples": {
      "AcquisitionNumber": [1, 2, 3, 4, 5, 6, 7, 8, 9, 10, 11, 12, 13, 14, 15, 16, 17, 18, 19, 20, 21, 22, 23, 24, 25, 26, 27, 28, 29, 30, 31, 32, 33, 34, 35, 36, 37, 38, 39, 40, 41, 42, 43, 44, 45, 46, 47, 48, 49, 50, 51, 52, 53, 54, 55, 56, 57, 58, 59, 60, 61, 62, 63, 64, 65, 66, 67, 68, 69, 70, 71, 72, 73, 74, 75, 76, 77, 78, 79, 80, 81, 82, 83, 84, 85, 86, 87, 88, 89, 90, 91, 92, 93, 94, 95, 96, 97, 98, 99, 100, 101, 102, 103, 104, 105, 106, 107, 108, 109, 110, 111, 112, 113, 114, 115, 116, 117, 118, 119, 120, 121, 122, 123, 124, 125, 126, 127, 128, 129, 130, 131, 132, 133, 134, 135, 136, 137, 138, 139, 140, 141, 142, 143, 144, 145, 146, 147, 148, 149, 150, 151, 152, 153, 154, 155, 156, 157, 158, 159, 160, 161, 162, 163, 164, 165, 166, 167, 168, 169, 170, 171, 172, 173, 174, 175, 176, 177, 178, 179, 180, 181, 182, 183, 184, 185, 186, 187, 188, 189, 190, 191, 192, 193, 194, 195, 196, 197, 198, 199, 200, 201, 202, 203, 204, 205, 206, 207, 208, 209, 210, 211, 212, 213, 214, 215, 216, 217, 218, 219, 220, 221, 222, 223, 224, 225, 226, 227, 228, 229, 230, 231, 232, 233, 234, 235, 236, 237, 238, 239, 240, 241, 242, 243, 244, 245, 246, 247, 248, 249, 250, 251, 252, 253, 254, 255, 256, 257, 258, 259, 260, 261, 262, 263, 264, 265, 266, 267, 268, 269, 270, 271, 272, 273, 274, 275, 276, 277, 278, 279, 280, 281, 282, 283, 284, 285, 286, 287, 288, 289, 290, 291, 292, 293, 294, 295, 296, 297, 298, 299, 300, 301, 302, 303, 304, 305, 306, 307, 308, 309, 310, 311, 312, 313, 314, 315, 316, 317, 318, 319, 320, 321, 322, 323, 324, 325, 326, 327, 328, 329, 330, 331, 332, 333, 334, 335, 336, 337, 338, 339, 340, 341, 342, 343, 344, 345, 346, 347, 348, 349, 350, 351, 352, 353, 354, 355, 356, 357, 358, 359, 360, 361, 362, 363, 364, 365, 366, 367, 368, 369, 370, 371, 372, 373, 374, 375, 376, 377, 378, 379, 380, 381, 382, 383, 384, 385, 386, 387, 388, 389, 390, 391, 392, 393, 394, 395, 396, 397, 398, 399, 400, 401, 402, 403, 404, 405, 406, 407, 408, 409, 410, 411, 412, 413, 414, 415, 416, 417, 418, 419, 420, 421, 422, 423, 424, 425, 426, 427, 428, 429, 430, 431, 432, 433, 434, 435, 436, 437, 438, 439, 440, 441, 442, 443, 444, 445, 446, 447, 448, 449, 450, 451, 452, 453, 454, 455, 456, 457, 458, 459, 460, 461, 462, 463, 464, 465, 466, 467, 468, 469, 470, 471, 472, 473, 474, 475, 476],
      "AcquisitionTime": ["181037.042500", "181038.532500", "181040.022500", "181041.512500", "181043.002500", "181044.492500", "181045.982500", "181047.472500", "181048.962500", "181050.452500", "181051.942500", "181053.432500", "181054.922500", "181056.412500", "181057.902500", "181059.392500", "181100.882500", "181102.372500", "181103.862500", "181105.352500", "181106.842500", "181108.332500", "181109.822500", "181111.312500", "181112.802500", "181114.292500", "181115.782500", "181117.272500", "181118.762500", "181120.252500", "181121.742500", "181123.232500", "181124.722500", "181126.212500", "181127.702500", "181129.192500", "181130.682500", "181132.172500", "181133.662500", "181135.152500", "181136.642500", "181138.132500", "181139.622500", "181141.112500", "181142.602500", "181144.092500", "181145.582500", "181147.072500", "181148.562500", "181150.052500", "181151.542500", "181153.032500", "181154.522500", "181156.012500", "181157.502500", "181158.992500", "181200.482500", "181201.972500", "181203.462500", "181204.952500", "181206.442500", "181207.932500", "181209.422500", "181210.912500", "181212.402500", "181213.892500", "181215.382500", "181216.872500", "181218.362500", "181219.852500", "181221.342500", "181222.832500", "181224.322500", "181225.812500", "181227.302500", "181228.792500", "181230.282500", "181231.772500", "181233.262500", "181234.752500", "181236.242500", "181237.732500", "181239.222500", "181240.712500", "181242.202500", "181243.692500", "181245.182500", "181246.672500", "181248.162500", "181249.652500", "181251.142500", "181252.632500", "181254.122500", "181255.612500", "181257.102500", "181258.592500", "181300.082500", "181301.572500", "181303.062500", "181304.552500", "181306.042500", "181307.532500", "181309.022500", "181310.512500", "181312.002500", "181313.492500", "181314.982500", "181316.472500", "181317.962500", "181319.452500", "181320.942500", "181322.432500", "181323.922500", "181325.412500", "181326.902500", "181328.392500", "181329.882500", "181331.372500", "181332.862500", "181334.352500", "181335.842500", "181337.332500", "181338.822500", "181340.312500", "181341.802500", "181343.292500", "181344.782500", "181346.272500", "181347.762500", "181349.252500", "181350.742500", "181352.232500", "181353.722500", "181355.212500", "181356.702500", "181358.192500", "181359.682500", "181401.172500", "181402.662500", "181404.152500", "181405.642500", "181407.132500", "181408.622500", "181410.112500", "181411.602500", "181413.092500", "181414.582500", "181416.072500", "181417.562500", "181419.052500", "181420.542500", "181422.032500", "181423.522500", "181425.012500", "181426.502500", "181427.992500", "181429.482500", "181430.972500", "181432.462500", "181433.952500", "181435.442500", "181436.932500", "181438.422500", "181439.912500", "181441.402500", "181442.892500", "181444.382500", "181445.872500", "181447.362500", "181448.852500", "181450.342500", "181451.832500", "181453.322500", "181454.812500", "181456.302500", "181457.792500", "181459.282500", "181500.772500", "181502.262500", "181503.752500", "181505.242500", "181506.732500", "181508.222500", "181509.712500", "181511.202500", "181512.692500", "181514.182500", "181515.672500", "181517.162500", "181518.652500", "181520.142500", "181521.632500", "181523.122500", "181524.612500", "181526.102500", "181527.592500", "181529.082500", "181530.572500", "181532.062500", "181533.552500", "181535.042500", "181536.532500", "181538.022500", "181539.512500", "181541.002500", "181542.492500", "181543.982500", "181545.472500", "181546.962500", "181548.452500", "181549.942500", "181551.432500", "181552.922500", "181554.412500", "181555.902500", "181557.392500", "181558.882500", "181600.372500", "181601.862500", "181603.352500", "181604.842500", "181606.332500", "181607.822500", "181609.312500", "181610.802500", "181612.292500", "181613.782500", "181615.272500", "181616.762500", "181618.252500", "181619.742500", "181621.232500", "181622.722500", "181624.212500", "181625.702500", "181627.192500", "181628.682500", "181630.172500", "181631.662500", "181633.152500", "181634.642500", "181636.132500", "181637.622500", "181639.112500", "181640.602500", "181642.092500", "181643.582500", "181645.072500", "181646.562500", "181648.052500", "181649.542500", "181651.032500", "181652.522500", "181654.012500", "181655.502500", "181656.992500", "181658.482500", "181659.972500", "181701.462500", "181702.952500", "181704.442500", "181705.932500", "181707.422500", "181708.912500", "181710.402500", "181711.892500", "181713.382500", "181714.872500", "181716.362500", "181717.852500", "181719.342500", "181720.832500", "181722.322500", "181723.812500", "181725.302500", "181726.792500", "181728.282500", "181729.772500", "181731.262500", "181732.752500", "181734.242500", "181735.732500", "181737.222500", "181738.712500", "181740.202500", "181741.692500", "181743.182500", "181744.672500", "181746.162500", "181747.652500", "181749.142500", "181750.632500", "181752.122500", "181753.612500", "181755.102500", "181756.592500", "181758.082500", "181759.572500", "181801.062500", "181802.552500", "181804.042500", "181805.532500", "181807.022500", "181808.512500", "181810.002500", "181811.492500", "181812.982500", "181814.472500", "181815.962500", "181817.452500", "181818.942500", "181820.432500", "181821.922500", "181823.412500", "181824.902500", "181826.392500", "181827.882500", "181829.372500", "181830.862500", "181832.352500", "181833.842500", "181835.332500", "181836.822500", "181838.312500", "181839.802500", "181841.292500", "181842.782500", "181844.272500", "181845.762500", "181847.252500", "181848.742500", "181850.232500", "181851.722500", "181853.212500", "181854.702500", "181856.192500", "181857.682500", "181859.172500", "181900.662500", "181902.152500", "181903.642500", "181905.132500", "181906.622500", "181908.112500", "181909.602500", "181911.092500", "181912.582500", "181914.072500", "181915.562500", "181917.052500", "181918.542500", "181920.032500", "181921.522500", "181923.012500", "181924.502500", "181925.992500", "181927.482500", "181928.972500", "181930.462500", "181931.952500", "181933.442500", "181934.932500", "181936.422500", "181937.912500", "181939.402500", "181940.892500", "181942.382500", "181943.872500", "181945.362500", "181946.852500", "181948.342500", "181949.832500", "181951.322500", "181952.812500", "181954.302500", "181955.792500", "181957.282500", "181958.772500", "182000.262500", "182001.752500", "182003.242500", "182004.732500", "182006.222500", "182007.712500", "182009.202500", "182010.692500", "182012.182500", "182013.672500", "182015.162500", "182016.652500", "182018.142500", "182019.632500", "182021.122500", "182022.612500", "182024.102500", "182025.592500", "182027.082500", "182028.572500", "182030.062500", "182031.552500", "182033.042500", "182034.532500", "182036.022500", "182037.512500", "182039.002500", "182040.492500", "182041.982500", "182043.472500", "182044.962500", "182046.452500", "182047.942500", "182049.432500", "182050.922500", "182052.412500", "182053.902500", "182055.392500", "182056.882500", "182058.372500", "182059.862500", "182101.352500", "182102.842500", "182104.332500", "182105.822500", "182107.312500", "182108.802500", "182110.292500", "182111.782500", "182113.272500", "182114.762500", "182116.252500", "182117.742500", "182119.232500", "182120.722500", "182122.212500", "182123.702500", "182125.192500", "182126.682500", "182128.172500", "182129.662500", "182131.152500", "182132.642500", "182134.132500", "182135.622500", "182137.112500", "182138.602500", "182140.092500", "182141.582500", "182143.072500", "182144.562500", "182146.052500", "182147.542500", "182149.032500", "182150.522500", "182152.012500", "182153.502500", "182154.992500", "182156.482500", "182157.972500", "182159.462500", "182200.952500", "182202.442500", "182203.932500", "182205.422500", "182206.912500", "182208.402500", "182209.892500", "182211.382500", "182212.872500", "182214.362500", "182215.852500", "182217.342500", "182218.832500", "182220.322500", "182221.812500", "182223.302500", "182224.792500"],
      "ContentTime": ["181139.321000", "181139.325000", "181139.328000", "181139.331000", "181139.334000", "181139.337000", "181139.340000", "181159.291000", "181159.294000", "181159.297000", "181159.305000", "181159.308000", "181159.310000", "181159.313000", "181159.316000", "181159.319000", "181159.322000", "181159.325000", "181159.328000", "181159.331000", "181159.333000", "181159.340000", "181159.344000", "181159.346000", "181159.349000", "181159.352000", "181159.355000", "181219.291000", "181219.294000", "181219.297000", "181219.299000", "181219.302000", "181219.305000", "181219.308000", "181219.311000", "181219.313000", "181219.316000", "181219.319000", "181219.322000", "181219.325000", "181219.328000", "181219.331000", "181219.334000", "181219.336000", "181219.339000", "181219.342000", "181219.345000", "181239.292000", "181239.301000", "181239.304000", "181239.306000", "181239.309000", "181239.312000", "181239.315000", "181239.318000", "181239.326000", "181239.329000", "181239.332000", "181239.335000", "181239.338000", "181239.340000", "181239.343000", "181239.346000", "181239.349000", "181239.352000", "181239.355000", "181239.359000", "181259.292000", "181259.295000", "181259.298000", "181259.300000", "181259.303000", "181259.306000", "181259.309000", "181259.312000", "181259.315000", "181259.317000", "181259.320000", "181259.323000", "181259.326000", "181259.329000", "181259.332000", "181259.335000", "181259.338000", "181259.341000", "181259.344000", "181259.347000", "181319.292000", "181319.295000", "181319.298000", "181319.300000", "181319.303000", "181319.306000", "181319.309000", "181319.312000", "181319.315000", "181319.318000", "181319.321000", "181319.323000", "181319.326000", "181319.329000", "181319.332000", "181319.335000", "181319.338000", "181319.341000", "181319.344000", "181319.346000", "181359.291000", "181359.294000", "181359.297000", "181359.300000", "181359.302000", "181359.305000", "181359.308000", "181359.311000", "181359.314000", "181359.317000", "181359.320000", "181359.322000", "181359.325000", "181359.328000", "181359.331000", "181359.334000", "181359.336000", "181359.339000", "181359.342000", "181359.345000", "181359.348000", "181359.355000", "181359.358000", "181359.361000", "181359.364000", "181359.367000", "181359.373000", "181359.376000", "181439.291000", "181439.294000", "181439.297000", "181439.300000", "181439.303000", "181439.306000", "181439.308000", "181439.311000", "181439.314000", "181439.317000", "181439.320000", "181439.323000", "181439.326000", "181439.328000", "181439.331000", "181439.334000", "181439.337000", "181439.340000", "181439.343000", "181439.346000", "181439.349000", "181439.351000", "181439.354000", "181439.357000", "181439.360000", "181439.363000", "181439.366000", "181519.292000", "181519.295000", "181519.298000", "181519.301000", "181519.303000", "181519.306000", "181519.309000", "181519.319000", "181519.322000", "181519.325000", "181519.328000", "181519.331000", "181519.333000", "181519.336000", "181519.339000", "181519.342000", "181519.345000", "181519.347000", "181519.350000", "181519.353000", "181519.356000", "181519.359000", "181519.362000", "181519.365000", "181519.367000", "181519.370000", "181519.373000", "181559.291000", "181559.294000", "181559.297000", "181559.300000", "181559.302000", "181559.305000", "181559.308000", "181559.311000", "181559.314000", "181559.317000", "181559.320000", "181559.322000", "181559.325000", "181559.328000", "181559.331000", "181559.334000", "181559.336000", "181559.339000", "181559.342000", "181559.345000", "181559.348000", "181559.351000", "181559.354000", "181559.357000", "181559.359000", "181559.362000", "181559.365000", "181639.291000", "181639.294000", "181639.298000", "181639.301000", "181639.304000", "181639.307000", "181639.309000", "181639.312000", "181639.315000", "181639.318000", "181639.321000", "181639.324000", "181639.327000", "181639.329000", "181639.332000", "181639.335000", "181639.338000", "181639.341000", "181639.344000", "181639.346000", "181639.349000", "181639.352000", "181639.355000", "181639.358000", "181639.361000", "181639.364000", "181719.292000", "181719.295000", "181719.298000", "181719.301000", "181719.303000", "181719.306000", "181719.309000", "181719.312000", "181719.315000", "181719.318000", "181719.321000", "181719.323000", "181719.326000", "181719.329000", "181719.332000", "181719.335000", "181719.338000", "181719.340000", "181719.343000", "181719.346000", "181719.349000", "181719.352000", "181719.355000", "181719.357000", "181719.360000", "181719.363000", "181719.366000", "181759.292000", "181759.295000", "181759.298000", "181759.301000", "181759.304000", "181759.307000", "181759.310000", "181759.313000", "181759.315000", "181759.318000", "181759.321000", "181759.324000", "181759.327000", "181759.330000", "181759.332000", "181759.335000", "181759.338000", "181759.341000", "181759.344000", "181759.347000", "181759.350000", "181759.352000", "181759.355000", "181759.358000", "181759.361000", "181759.364000", "181759.367000", "181839.291000", "181839.294000", "181839.297000", "181839.300000", "181839.303000", "181839.305000", "181839.308000", "181839.311000", "181839.314000", "181839.317000", "181839.320000", "181839.323000", "181839.325000", "181839.328000", "181839.331000", "181839.334000", "181839.337000", "181839.340000", "181839.343000", "181839.346000", "181839.349000", "181839.351000", "181839.354000", "181839.357000", "181839.360000", "181839.363000", "181839.366000", "181919.291000", "181919.294000", "181919.297000", "181919.300000", "181919.302000", "181919.305000", "181919.308000", "181919.311000", "181919.314000", "181919.317000", "181919.319000", "181919.322000", "181919.325000", "181919.328000", "181919.331000", "181919.334000", "181919.337000", "181919.339000", "181919.342000", "181919.345000", "181919.348000", "181919.351000", "181919.354000", "181919.357000", "181919.359000", "181919.362000", "181919.365000", "181959.292000", "181959.295000", "181959.318000", "181959.320000", "181959.324000", "181959.326000", "181959.329000", "181959.332000", "181959.335000", "181959.338000", "181959.340000", "181959.343000", "181959.346000", "181959.349000", "181959.352000", "181959.355000", "181959.358000", "181959.360000", "181959.363000", "181959.366000", "181959.369000", "181959.372000", "181959.375000", "181959.377000", "181959.380000", "181959.383000", "181959.386000", "182039.291000", "182039.294000", "182039.297000", "182039.300000", "182039.303000", "182039.306000", "182039.309000", "182039.312000", "182039.314000", "182039.317000", "182039.320000", "182039.323000", "182039.326000", "182039.329000", "182039.332000", "182039.335000", "182039.337000", "182039.340000", "182039.343000", "182039.346000", "182039.349000", "182039.352000", "182039.355000", "182039.358000", "182039.360000", "182039.363000", "182039.366000", "182119.291000", "182119.294000", "182119.297000", "182119.300000", "182119.303000", "182119.305000", "182119.308000", "182119.311000", "182119.314000", "182119.317000", "182119.320000", "182119.322000", "182119.325000", "182119.328000", "182119.331000", "182119.334000", "182119.337000", "182119.340000", "182119.342000", "182119.345000", "182119.348000", "182119.351000", "182119.354000", "182119.357000", "182119.361000", "182119.364000", "182139.291000", "182139.294000", "182139.297000", "182139.300000", "182139.303000", "182139.305000", "182139.308000", "182139.311000", "182139.314000", "182139.317000", "182139.320000", "182139.322000", "182139.325000", "182139.328000", "182219.292000", "182219.295000", "182219.298000", "182219.301000", "182219.304000", "182219.307000", "182219.310000", "182219.317000", "182219.320000", "182219.323000", "182219.326000", "182219.328000", "182219.331000", "182219.334000", "182219.337000", "182219.340000", "182219.343000", "182219.346000", "182219.349000", "182219.351000", "182219.354000", "182219.357000", "182219.360000", "182219.363000", "182219.366000", "182219.369000", "182219.372000", "182226.592000", "182226.595000", "182226.598000", "182226.601000", "182226.604000"],
