{
  "AcquisitionMatrixPE": 104,
  "AcquisitionNumber": 1,
  "AcquisitionTime": "18:30:54.677500",
  "BandwidthPerPixelPhaseEncode": 17.17,
  "BaseResolution": 104,
  "BodyPartExamined": "BRAIN",
  "CoilString": "HC1-7;NC1_2",
  "ConsistencyInfo": "N4_VE11C_LATEST_20160120",
  "ConversionSoftware": "dcm2niix",
  "ConversionSoftwareVersion": "v1.0.20190720  (JP2:OpenJPEG) GCC7.3.0",
  "DerivedVendorReportedEchoSpacing": 0.000560011,
  "DeviceSerialNumber": "167006",
  "DwellTime": 2.1e-06,
  "EchoTime": 0.037,
  "EchoTrainLength": 104,
  "EffectiveEchoSpacing": 0.000560011,
  "FlipAngle": 52,
  "ImageComments": "Unaliased_MB4_PE3_LB",
  "ImageOrientationPatientDICOM": [0.99942, -0.0251728, -0.0229465, 0.0148277, 0.928016, -0.372244],
  "ImageType": [
    "ORIGINAL",
    "PRIMARY",
    "M",
    "MB",
    "ND",
    "MOSAIC"
],
  "ImagingFrequency": 123.259,
  "InPlanePhaseEncodingDirectionDICOM": "COL",
  "InstitutionAddress": "Chemin_Queen-Mary_4565_Montreal_District_CA_H3W_1W5",
  "InstitutionName": "IUGM",
  "InstitutionalDepartmentName": "Department",
  "MRAcquisitionType": "2D",
  "MagneticFieldStrength": 3,
  "Manufacturer": "Siemens",
  "ManufacturersModelName": "Prisma_fit",
  "Modality": "MR",
  "MultibandAccelerationFactor": 4,
  "PartialFourier": 1,
  "PatientPosition": "HFS",
  "PercentPhaseFOV": 100,
  "PhaseEncodingDirection": "j",
  "PhaseEncodingSteps": 104,
  "PhaseResolution": 1,
  "PixelBandwidth": 2290,
  "ProcedureStepDescription": "video_friends",
  "ProtocolName": "func_task-s01e22a",
  "PulseSequenceDetails": "%CustomerSeq%_cmrr_mbep2d_bold",
  "ReceiveCoilActiveElements": "HC1-7;NC1,2",
  "ReceiveCoilName": "HeadNeck_64",
  "ReconMatrixPE": 104,
  "RepetitionTime": 1.49,
  "SAR": 0.0335173,
  "ScanOptions": "FS",
  "ScanningSequence": "EP",
  "SequenceName": "epfid2d1_104",
  "SequenceVariant": "SK_SS",
  "SeriesDescription": "func_task-s01e22a",
  "SeriesNumber": 9,
  "ShimSetting": [619, -7273, -8841, 436, 20, -456, 12, 47],
  "SliceThickness": 2,
  "SliceTiming": [0, 0.7825, 0.0975, 0.88, 0.195, 0.9775, 0.2925, 1.0775, 0.39, 1.175, 0.49, 1.2725, 0.5875, 1.37, 0.685, 0, 0.7825, 0.0975, 0.88, 0.195, 0.9775, 0.2925, 1.0775, 0.39, 1.175, 0.49, 1.2725, 0.5875, 1.37, 0.685, 0, 0.7825, 0.0975, 0.88, 0.195, 0.9775, 0.2925, 1.0775, 0.39, 1.175, 0.49, 1.2725, 0.5875, 1.37, 0.685, 0, 0.7825, 0.0975, 0.88, 0.195, 0.9775, 0.2925, 1.0775, 0.39, 1.175, 0.49, 1.2725, 0.5875, 1.37, 0.685],
  "SoftwareVersions": "syngo_MR_E11",
  "SpacingBetweenSlices": 2,
  "StationName": "MRC35049",
  "TaskName": "friends",
  "TotalReadoutTime": 0.0576811,
  "TxRefAmp": 232.158,
  "WipMemBlock": "dde78ec7-7a9e-42d5-a974-79c88032b67c||Sequence: R016 ve11c/master r/e634e98; Dec 19 2017 11:00:25 by eja",
  "dcmmeta_affine": [
    [-1.9988394975662231, 0.02965542860329151, -0.061330344527959824, 99.73523712158203],
    [0.05034567788243294, 1.8560329675674438, -0.7433754801750183, -72.8251953125],
    [-0.04589300975203514, 0.7444879412651062, 1.8557024002075195, -68.38180541992188],
    [0.0, 0.0, 0.0, 1.0]
],
  "dcmmeta_reorient_transform": [
    [0.0, -1.0, 0.0, 103.0],
    [1.0, 0.0, 0.0, 0.0],
    [0.0, 0.0, 1.0, 0.0],
    [0.0, 0.0, 0.0, 1.0]
],
  "dcmmeta_shape": [104, 104, 60, 474],
  "dcmmeta_slice_dim": 2,
  "dcmmeta_version": 0.6,
  "global": {
    "const": {
      "AcquisitionMatrix": [104, 0, 0, 104],
      "AngioFlag": "N",
      "BitsAllocated": 16,
      "BitsStored": 16,
      "BodyPartExamined": "BRAIN",
      "Columns": 832,
      "EchoNumbers": 1,
      "EchoTime": 37.0,
      "EchoTrainLength": 104,
      "FlipAngle": 52.0,
      "HighBit": 15,
      "ImageOrientationPatient": [0.99941972467814, -0.0251728385403, -0.0229465057054, 0.01482771420554, 0.92801646488749, -0.3722439788488],
      "ImagePositionPatient": [-841.16187829886, -775.61635374013, 295.99912859584],
      "ImageType": [
        "ORIGINAL",
        "PRIMARY",
        "M",
        "MB",
        "ND",
        "MOSAIC"
],
      "ImagedNucleus": "1H",
      "ImagingFrequency": 123.259371,
      "InPlanePhaseEncodingDirection": "COL",
      "MRAcquisitionType": "2D",
      "MagneticFieldStrength": 3.0,
      "Manufacturer": "SIEMENS",
      "ManufacturerModelName": "Prisma_fit",
      "Modality": "MR",
      "NumberOfAverages": 1.0,
      "NumberOfPhaseEncodingSteps": 104,
      "PercentPhaseFieldOfView": 100.0,
      "PercentSampling": 100.0,
      "PerformedProcedureStepStartTime": "175528.350000",
      "PhotometricInterpretation": "MONOCHROME2",
      "PixelBandwidth": 2290.0,
      "PixelRepresentation": 0,
      "PixelSpacing": [2.0, 2.0],
      "ProtocolName": "func_task-s01e22a",
      "RepetitionTime": 1490.0,
      "Rows": 832,
      "SAR": 0.03351725407062,
      "SamplesPerPixel": 1,
      "ScanOptions": "FS",
      "ScanningSequence": "EP",
      "SequenceName": "epfid2d1_104",
      "SequenceVariant": [
        "SK",
        "SS"
],
      "SeriesDescription": "func_task-s01e22a",
      "SeriesNumber": 9,
      "SeriesTime": "183208.037000",
      "SliceLocation": -39.438305358726,
      "SliceThickness": 2.0,
      "SmallestImagePixelValue": 0,
      "SoftwareVersions": "syngo MR E11",
      "SpacingBetweenSlices": 1.9999999845052,
      "SpecificCharacterSet": "ISO_IR 100",
      "StudyID": "1",
      "StudyTime": "175528.284000",
      "TransmitCoilName": "Body",
      "VariableFlipAngleFlag": "N",
      "WindowCenterWidthExplanation": "Algo1",
      "dBdt": 0.0},
    "slices": {}
  },
  "time": {
    "samples": {
      "AcquisitionNumber": [1, 2, 3, 4, 5, 6, 7, 8, 9, 10, 11, 12, 13, 14, 15, 16, 17, 18, 19, 20, 21, 22, 23, 24, 25, 26, 27, 28, 29, 30, 31, 32, 33, 34, 35, 36, 37, 38, 39, 40, 41, 42, 43, 44, 45, 46, 47, 48, 49, 50, 51, 52, 53, 54, 55, 56, 57, 58, 59, 60, 61, 62, 63, 64, 65, 66, 67, 68, 69, 70, 71, 72, 73, 74, 75, 76, 77, 78, 79, 80, 81, 82, 83, 84, 85, 86, 87, 88, 89, 90, 91, 92, 93, 94, 95, 96, 97, 98, 99, 100, 101, 102, 103, 104, 105, 106, 107, 108, 109, 110, 111, 112, 113, 114, 115, 116, 117, 118, 119, 120, 121, 122, 123, 124, 125, 126, 127, 128, 129, 130, 131, 132, 133, 134, 135, 136, 137, 138, 139, 140, 141, 142, 143, 144, 145, 146, 147, 148, 149, 150, 151, 152, 153, 154, 155, 156, 157, 158, 159, 160, 161, 162, 163, 164, 165, 166, 167, 168, 169, 170, 171, 172, 173, 174, 175, 176, 177, 178, 179, 180, 181, 182, 183, 184, 185, 186, 187, 188, 189, 190, 191, 192, 193, 194, 195, 196, 197, 198, 199, 200, 201, 202, 203, 204, 205, 206, 207, 208, 209, 210, 211, 212, 213, 214, 215, 216, 217, 218, 219, 220, 221, 222, 223, 224, 225, 226, 227, 228, 229, 230, 231, 232, 233, 234, 235, 236, 237, 238, 239, 240, 241, 242, 243, 244, 245, 246, 247, 248, 249, 250, 251, 252, 253, 254, 255, 256, 257, 258, 259, 260, 261, 262, 263, 264, 265, 266, 267, 268, 269, 270, 271, 272, 273, 274, 275, 276, 277, 278, 279, 280, 281, 282, 283, 284, 285, 286, 287, 288, 289, 290, 291, 292, 293, 294, 295, 296, 297, 298, 299, 300, 301, 302, 303, 304, 305, 306, 307, 308, 309, 310, 311, 312, 313, 314, 315, 316, 317, 318, 319, 320, 321, 322, 323, 324, 325, 326, 327, 328, 329, 330, 331, 332, 333, 334, 335, 336, 337, 338, 339, 340, 341, 342, 343, 344, 345, 346, 347, 348, 349, 350, 351, 352, 353, 354, 355, 356, 357, 358, 359, 360, 361, 362, 363, 364, 365, 366, 367, 368, 369, 370, 371, 372, 373, 374, 375, 376, 377, 378, 379, 380, 381, 382, 383, 384, 385, 386, 387, 388, 389, 390, 391, 392, 393, 394, 395, 396, 397, 398, 399, 400, 401, 402, 403, 404, 405, 406, 407, 408, 409, 410, 411, 412, 413, 414, 415, 416, 417, 418, 419, 420, 421, 422, 423, 424, 425, 426, 427, 428, 429, 430, 431, 432, 433, 434, 435, 436, 437, 438, 439, 440, 441, 442, 443, 444, 445, 446, 447, 448, 449, 450, 451, 452, 453, 454, 455, 456, 457, 458, 459, 460, 461, 462, 463, 464, 465, 466, 467, 468, 469, 470, 471, 472, 473, 474],
      "AcquisitionTime": ["183054.677500", "183056.167500", "183057.657500", "183059.147500", "183100.637500", "183102.127500", "183103.617500", "183105.107500", "183106.597500", "183108.087500", "183109.577500", "183111.067500", "183112.557500", "183114.047500", "183115.537500", "183117.027500", "183118.517500", "183120.007500", "183121.497500", "183122.987500", "183124.477500", "183125.967500", "183127.457500", "183128.947500", "183130.437500", "183131.927500", "183133.417500", "183134.907500", "183136.397500", "183137.887500", "183139.377500", "183140.867500", "183142.357500", "183143.847500", "183145.337500", "183146.827500", "183148.317500", "183149.807500", "183151.297500", "183152.787500", "183154.277500", "183155.767500", "183157.257500", "183158.747500", "183200.237500", "183201.727500", "183203.217500", "183204.707500", "183206.197500", "183207.687500", "183209.177500", "183210.667500", "183212.157500", "183213.647500", "183215.137500", "183216.627500", "183218.117500", "183219.607500", "183221.097500", "183222.587500", "183224.077500", "183225.567500", "183227.057500", "183228.547500", "183230.037500", "183231.527500", "183233.017500", "183234.507500", "183235.997500", "183237.487500", "183238.977500", "183240.467500", "183241.957500", "183243.447500", "183244.937500", "183246.427500", "183247.917500", "183249.407500", "183250.897500", "183252.387500", "183253.877500", "183255.367500", "183256.857500", "183258.347500", "183259.837500", "183301.327500", "183302.817500", "183304.307500", "183305.797500", "183307.287500", "183308.777500", "183310.267500", "183311.757500", "183313.247500", "183314.737500", "183316.227500", "183317.717500", "183319.207500", "183320.697500", "183322.187500", "183323.677500", "183325.167500", "183326.657500", "183328.147500", "183329.637500", "183331.127500", "183332.617500", "183334.107500", "183335.597500", "183337.087500", "183338.577500", "183340.067500", "183341.557500", "183343.047500", "183344.537500", "183346.027500", "183347.517500", "183349.007500", "183350.497500", "183351.987500", "183353.477500", "183354.967500", "183356.457500", "183357.947500", "183359.437500", "183400.927500", "183402.417500", "183403.907500", "183405.397500", "183406.887500", "183408.377500", "183409.867500", "183411.357500", "183412.847500", "183414.337500", "183415.827500", "183417.317500", "183418.807500", "183420.297500", "183421.787500", "183423.277500", "183424.767500", "183426.257500", "183427.747500", "183429.237500", "183430.727500", "183432.217500", "183433.707500", "183435.197500", "183436.687500", "183438.177500", "183439.667500", "183441.157500", "183442.647500", "183444.137500", "183445.627500", "183447.117500", "183448.607500", "183450.097500", "183451.587500", "183453.077500", "183454.567500", "183456.057500", "183457.547500", "183459.037500", "183500.527500", "183502.017500", "183503.507500", "183504.997500", "183506.487500", "183507.977500", "183509.467500", "183510.957500", "183512.447500", "183513.937500", "183515.427500", "183516.917500", "183518.407500", "183519.897500", "183521.387500", "183522.877500", "183524.367500", "183525.857500", "183527.347500", "183528.837500", "183530.327500", "183531.817500", "183533.307500", "183534.797500", "183536.287500", "183537.777500", "183539.267500", "183540.757500", "183542.247500", "183543.737500", "183545.227500", "183546.717500", "183548.207500", "183549.697500", "183551.187500", "183552.677500", "183554.167500", "183555.657500", "183557.147500", "183558.637500", "183600.127500", "183601.617500", "183603.107500", "183604.597500", "183606.087500", "183607.577500", "183609.067500", "183610.557500", "183612.047500", "183613.537500", "183615.027500", "183616.517500", "183618.007500", "183619.497500", "183620.987500", "183622.477500", "183623.967500", "183625.457500", "183626.947500", "183628.437500", "183629.927500", "183631.417500", "183632.907500", "183634.397500", "183635.887500", "183637.377500", "183638.867500", "183640.357500", "183641.847500", "183643.337500", "183644.827500", "183646.317500", "183647.807500", "183649.297500", "183650.787500", "183652.277500", "183653.767500", "183655.257500", "183656.747500", "183658.237500", "183659.727500", "183701.217500", "183702.707500", "183704.197500", "183705.687500", "183707.177500", "183708.667500", "183710.157500", "183711.647500", "183713.137500", "183714.627500", "183716.117500", "183717.607500", "183719.097500", "183720.587500", "183722.077500", "183723.567500", "183725.057500", "183726.547500", "183728.037500", "183729.527500", "183731.017500", "183732.507500", "183733.997500", "183735.487500", "183736.977500", "183738.467500", "183739.957500", "183741.447500", "183742.937500", "183744.427500", "183745.917500", "183747.407500", "183748.897500", "183750.387500", "183751.877500", "183753.367500", "183754.857500", "183756.347500", "183757.837500", "183759.327500", "183800.817500", "183802.307500", "183803.797500", "183805.287500", "183806.777500", "183808.267500", "183809.757500", "183811.247500", "183812.737500", "183814.227500", "183815.717500", "183817.207500", "183818.697500", "183820.187500", "183821.677500", "183823.167500", "183824.657500", "183826.147500", "183827.637500", "183829.127500", "183830.617500", "183832.107500", "183833.597500", "183835.087500", "183836.577500", "183838.067500", "183839.557500", "183841.047500", "183842.537500", "183844.027500", "183845.517500", "183847.007500", "183848.497500", "183849.987500", "183851.477500", "183852.967500", "183854.457500", "183855.947500", "183857.437500", "183858.927500", "183900.417500", "183901.907500", "183903.397500", "183904.887500", "183906.377500", "183907.867500", "183909.357500", "183910.847500", "183912.337500", "183913.827500", "183915.317500", "183916.807500", "183918.297500", "183919.787500", "183921.277500", "183922.767500", "183924.257500", "183925.747500", "183927.237500", "183928.727500", "183930.217500", "183931.707500", "183933.197500", "183934.687500", "183936.177500", "183937.667500", "183939.157500", "183940.647500", "183942.137500", "183943.627500", "183945.117500", "183946.607500", "183948.097500", "183949.587500", "183951.077500", "183952.567500", "183954.057500", "183955.547500", "183957.037500", "183958.527500", "184000.017500", "184001.507500", "184002.997500", "184004.487500", "184005.977500", "184007.467500", "184008.957500", "184010.447500", "184011.937500", "184013.427500", "184014.917500", "184016.407500", "184017.897500", "184019.387500", "184020.877500", "184022.367500", "184023.857500", "184025.347500", "184026.837500", "184028.327500", "184029.817500", "184031.307500", "184032.797500", "184034.287500", "184035.777500", "184037.267500", "184038.757500", "184040.247500", "184041.737500", "184043.227500", "184044.717500", "184046.207500", "184047.697500", "184049.187500", "184050.677500", "184052.167500", "184053.657500", "184055.147500", "184056.637500", "184058.127500", "184059.617500", "184101.107500", "184102.597500", "184104.087500", "184105.577500", "184107.067500", "184108.557500", "184110.047500", "184111.537500", "184113.027500", "184114.517500", "184116.007500", "184117.497500", "184118.987500", "184120.477500", "184121.967500", "184123.457500", "184124.947500", "184126.437500", "184127.927500", "184129.417500", "184130.907500", "184132.397500", "184133.887500", "184135.377500", "184136.867500", "184138.357500", "184139.847500", "184141.337500", "184142.827500", "184144.317500", "184145.807500", "184147.297500", "184148.787500", "184150.277500", "184151.767500", "184153.257500", "184154.747500", "184156.237500", "184157.727500", "184159.217500", "184200.707500", "184202.197500", "184203.687500", "184205.177500", "184206.667500", "184208.157500", "184209.647500", "184211.137500", "184212.627500", "184214.117500", "184215.607500", "184217.097500", "184218.587500", "184220.077500", "184221.567500", "184223.057500", "184224.547500", "184226.037500", "184227.527500", "184229.017500", "184230.507500", "184231.997500", "184233.487500", "184234.977500", "184236.467500", "184237.957500", "184239.447500"],
      "ContentTime": ["183208.040000", "183208.048000", "183208.051000", "183208.054000", "183208.057000", "183208.059000", "183208.062000", "183208.072000", "183208.075000", "183208.078000", "183208.080000", "183208.083000", "183208.086000", "183208.089000", "183208.092000", "183208.095000", "183208.098000", "183208.100000", "183208.103000", "183208.106000", "183228.005000", "183228.008000", "183228.011000", "183228.014000", "183228.016000", "183228.019000", "183228.022000", "183228.025000", "183228.028000", "183228.031000", "183228.034000", "183228.037000", "183228.040000", "183228.042000", "183228.045000", "183228.048000", "183228.051000", "183228.054000", "183228.057000", "183228.060000", "183248.005000", "183248.008000", "183248.011000", "183248.014000", "183248.016000", "183248.019000", "183248.022000", "183248.025000", "183248.028000", "183248.031000", "183248.034000", "183248.037000", "183248.040000", "183248.042000", "183248.045000", "183248.048000", "183248.051000", "183248.054000", "183248.057000", "183248.060000", "183308.005000", "183308.008000", "183308.011000", "183308.014000", "183308.017000", "183308.019000", "183308.022000", "183308.025000", "183308.028000", "183308.031000", "183308.034000", "183308.037000", "183308.040000", "183308.043000", "183308.045000", "183308.048000", "183308.051000", "183308.054000", "183308.057000", "183308.060000", "183328.006000", "183328.009000", "183328.012000", "183328.015000", "183328.017000", "183328.020000", "183328.023000", "183328.026000", "183328.029000", "183328.032000", "183328.035000", "183328.037000", "183328.040000", "183328.043000", "183328.046000", "183328.049000", "183328.052000", "183328.055000", "183328.058000", "183328.060000", "183348.006000", "183348.009000", "183348.012000", "183348.015000", "183348.018000", "183348.021000", "183348.024000", "183348.026000", "183348.029000", "183348.032000", "183348.035000", "183348.038000", "183348.041000", "183348.044000", "183348.047000", "183428.005000", "183428.008000", "183428.011000", "183428.014000", "183428.017000", "183428.020000", "183428.022000", "183428.025000", "183428.028000", "183428.031000", "183428.034000", "183428.037000", "183428.040000", "183428.043000", "183428.046000", "183428.048000", "183428.051000", "183428.054000", "183428.057000", "183428.060000", "183428.063000", "183428.066000", "183428.069000", "183428.071000", "183428.074000", "183428.077000", "183428.080000", "183508.005000", "183508.008000", "183508.011000", "183508.014000", "183508.025000", "183508.028000", "183508.031000", "183508.034000", "183508.037000", "183508.040000", "183508.043000", "183508.045000", "183508.048000", "183508.051000", "183508.054000", "183508.057000", "183508.060000", "183508.063000", "183508.065000", "183508.068000", "183508.071000", "183508.074000", "183508.077000", "183508.080000", "183508.083000", "183508.086000", "183508.089000", "183548.006000", "183548.009000", "183548.012000", "183548.015000", "183548.018000", "183548.021000", "183548.024000", "183548.026000", "183548.029000", "183548.032000", "183548.035000", "183548.038000", "183548.041000", "183548.044000", "183548.047000", "183548.050000", "183548.053000", "183548.055000", "183548.058000", "183548.061000", "183548.064000", "183548.067000", "183548.070000", "183548.073000", "183548.076000", "183548.079000", "183548.089000", "183628.005000", "183628.008000", "183628.011000", "183628.014000", "183628.017000", "183628.020000", "183628.023000", "183628.025000", "183628.028000", "183628.031000", "183628.034000", "183628.037000", "183628.040000", "183628.043000", "183628.046000", "183628.049000", "183628.051000", "183628.054000", "183628.057000", "183628.060000", "183628.063000", "183628.066000", "183628.069000", "183628.072000", "183628.075000", "183628.078000", "183628.080000", "183708.005000", "183708.008000", "183708.011000", "183708.014000", "183708.017000", "183708.020000", "183708.022000", "183708.025000", "183708.028000", "183708.031000", "183708.034000", "183708.037000", "183708.040000", "183708.043000", "183708.046000", "183708.049000", "183708.052000", "183708.054000", "183708.057000", "183708.060000", "183708.063000", "183708.066000", "183708.069000", "183708.072000", "183708.081000", "183708.084000", "183708.087000", "183748.005000", "183748.008000", "183748.011000", "183748.014000", "183748.017000", "183748.020000", "183748.023000", "183748.026000", "183748.029000", "183748.031000", "183748.034000", "183748.037000", "183748.040000", "183748.043000", "183748.046000", "183748.049000", "183748.051000", "183748.054000", "183748.057000", "183748.061000", "183748.064000", "183748.067000", "183748.070000", "183748.073000", "183748.075000", "183748.078000", "183828.006000", "183828.009000", "183828.012000", "183828.015000", "183828.018000", "183828.021000", "183828.024000", "183828.027000", "183828.030000", "183828.033000", "183828.036000", "183828.039000", "183828.041000", "183828.044000", "183828.047000", "183828.050000", "183828.053000", "183828.056000", "183828.059000", "183828.062000", "183828.065000", "183828.068000", "183828.071000", "183828.074000", "183828.077000", "183828.080000", "183828.082000", "183908.005000", "183908.008000", "183908.011000", "183908.014000", "183908.017000", "183908.020000", "183908.023000", "183908.026000", "183908.029000", "183908.032000", "183908.034000", "183908.037000", "183908.040000", "183908.043000", "183908.046000", "183908.049000", "183908.052000", "183908.055000", "183908.058000", "183908.061000", "183908.064000", "183908.067000", "183908.070000", "183908.072000", "183908.075000", "183908.078000", "183908.081000", "183948.005000", "183948.008000", "183948.011000", "183948.014000", "183948.017000", "183948.020000", "183948.023000", "183948.025000", "183948.028000", "183948.031000", "183948.034000", "183948.037000", "183948.040000", "183948.043000", "183948.045000", "183948.048000", "183948.051000", "183948.054000", "183948.070000", "183948.073000", "183948.076000", "183948.079000", "183948.082000", "183948.085000", "183948.088000", "183948.090000", "183948.093000", "184028.006000", "184028.009000", "184028.012000", "184028.015000", "184028.018000", "184028.021000", "184028.024000", "184028.027000", "184028.030000", "184028.032000", "184028.035000", "184028.038000", "184028.041000", "184028.044000", "184028.047000", "184028.050000", "184028.053000", "184028.056000", "184028.059000", "184028.061000", "184028.064000", "184028.067000", "184028.070000", "184028.073000", "184028.076000", "184028.079000", "184028.082000", "184108.005000", "184108.008000", "184108.011000", "184108.014000", "184108.017000", "184108.020000", "184108.023000", "184108.025000", "184108.028000", "184108.031000", "184108.034000", "184108.037000", "184108.040000", "184108.043000", "184108.046000", "184108.048000", "184108.051000", "184108.054000", "184108.057000", "184108.060000", "184108.063000", "184108.066000", "184108.069000", "184108.072000", "184108.075000", "184108.077000", "184108.080000", "184148.005000", "184148.008000", "184148.011000", "184148.014000", "184148.017000", "184148.020000", "184148.023000", "184148.025000", "184148.028000", "184148.031000", "184148.034000", "184148.037000", "184148.040000", "184148.043000", "184148.046000", "184148.048000", "184148.051000", "184148.054000", "184148.057000", "184148.060000", "184148.063000", "184148.066000", "184148.069000", "184148.072000", "184148.075000", "184148.078000", "184228.005000", "184228.008000", "184228.011000", "184228.014000", "184228.017000", "184228.020000", "184228.023000", "184228.026000", "184228.028000", "184228.031000", "184228.034000", "184228.037000", "184228.040000", "184228.043000", "184228.046000", "184228.048000", "184228.051000", "184228.054000", "184228.057000", "184228.060000", "184228.063000", "184228.066000", "184228.069000", "184228.072000", "184228.074000", "184228.077000", "184228.080000", "184241.764000", "184241.767000", "184241.770000", "184241.773000", "184241.776000", "184241.779000", "184241.782000", "184241.785000", "184241.788000", "184241.791000"],
