{
  "AcquisitionMatrixPE": 104,
  "AcquisitionNumber": 1,
  "AcquisitionTime": "20:04:18.525000",
  "BandwidthPerPixelPhaseEncode": 17.17,
  "BaseResolution": 104,
  "BodyPartExamined": "BRAIN",
  "CoilString": "HC1-7;NC1_2",
  "ConsistencyInfo": "N4_VE11C_LATEST_20160120",
  "ConversionSoftware": "dcm2niix",
  "ConversionSoftwareVersion": "v1.0.20190720  (JP2:OpenJPEG) GCC7.3.0",
  "DerivedVendorReportedEchoSpacing": 0.000560011,
  "DeviceSerialNumber": "167006",
  "DwellTime": 2.1e-06,
  "EchoTime": 0.037,
  "EchoTrainLength": 104,
  "EffectiveEchoSpacing": 0.000560011,
  "FlipAngle": 52,
  "ImageComments": "Unaliased_MB4_PE3_LB",
  "ImageOrientationPatientDICOM": [0.99942, -0.0251728, -0.0229465, 0.0148277, 0.928016, -0.372244],
  "ImageType": [
    "ORIGINAL",
    "PRIMARY",
    "M",
    "MB",
    "ND",
    "MOSAIC"
],
  "ImagingFrequency": 123.259,
  "InPlanePhaseEncodingDirectionDICOM": "COL",
  "InstitutionAddress": "Chemin_Queen-Mary_4565_Montreal_District_CA_H3W_1W5",
  "InstitutionName": "IUGM",
  "InstitutionalDepartmentName": "Department",
  "MRAcquisitionType": "2D",
  "MagneticFieldStrength": 3,
  "Manufacturer": "Siemens",
  "ManufacturersModelName": "Prisma_fit",
  "Modality": "MR",
  "MultibandAccelerationFactor": 4,
  "PartialFourier": 1,
  "PatientPosition": "HFS",
  "PercentPhaseFOV": 100,
  "PhaseEncodingDirection": "j",
  "PhaseEncodingSteps": 104,
  "PhaseResolution": 1,
  "PixelBandwidth": 2290,
  "ProcedureStepDescription": "video_friends",
  "ProtocolName": "func_task-s02e01b",
  "PulseSequenceDetails": "%CustomerSeq%_cmrr_mbep2d_bold",
  "ReceiveCoilActiveElements": "HC1-7;NC1,2",
  "ReceiveCoilName": "HeadNeck_64",
  "ReconMatrixPE": 104,
  "RepetitionTime": 1.49,
  "SAR": 0.0335181,
  "ScanOptions": "FS",
  "ScanningSequence": "EP",
  "SequenceName": "epfid2d1_104",
  "SequenceVariant": "SK_SS",
  "SeriesDescription": "func_task-s02e01b",
  "SeriesNumber": 23,
  "ShimSetting": [619, -7273, -8841, 436, 20, -456, 12, 47],
  "SliceThickness": 2,
  "SliceTiming": [0, 0.785, 0.0975, 0.8825, 0.195, 0.98, 0.295, 1.0775, 0.3925, 1.175, 0.49, 1.275, 0.5875, 1.3725, 0.685, 0, 0.785, 0.0975, 0.8825, 0.195, 0.98, 0.295, 1.0775, 0.3925, 1.175, 0.49, 1.275, 0.5875, 1.3725, 0.685, 0, 0.785, 0.0975, 0.8825, 0.195, 0.98, 0.295, 1.0775, 0.3925, 1.175, 0.49, 1.275, 0.5875, 1.3725, 0.685, 0, 0.785, 0.0975, 0.8825, 0.195, 0.98, 0.295, 1.0775, 0.3925, 1.175, 0.49, 1.275, 0.5875, 1.3725, 0.685],
  "SoftwareVersions": "syngo_MR_E11",
  "SpacingBetweenSlices": 2,
  "StationName": "MRC35049",
  "TaskName": "friends",
  "TotalReadoutTime": 0.0576811,
  "TxRefAmp": 232.158,
  "WipMemBlock": "7cdfc7cf-6639-4627-a84d-d1244c026989||Sequence: R016 ve11c/master r/e634e98; Dec 19 2017 11:00:25 by eja",
  "dcmmeta_affine": [
    [-1.9988394975662231, 0.02965542860329151, -0.061330344527959824, 99.73523712158203],
    [0.05034567788243294, 1.8560329675674438, -0.7433754801750183, -72.8251953125],
    [-0.04589300975203514, 0.7444879412651062, 1.8557024002075195, -68.38180541992188],
    [0.0, 0.0, 0.0, 1.0]
],
  "dcmmeta_reorient_transform": [
    [0.0, -1.0, 0.0, 103.0],
    [1.0, 0.0, 0.0, 0.0],
    [0.0, 0.0, 1.0, 0.0],
    [0.0, 0.0, 0.0, 1.0]
],
  "dcmmeta_shape": [104, 104, 60, 477],
  "dcmmeta_slice_dim": 2,
  "dcmmeta_version": 0.6,
  "global": {
    "const": {
      "AcquisitionMatrix": [104, 0, 0, 104],
      "AngioFlag": "N",
      "BitsAllocated": 16,
      "BitsStored": 16,
      "BodyPartExamined": "BRAIN",
      "Columns": 832,
      "EchoNumbers": 1,
      "EchoTime": 37.0,
      "EchoTrainLength": 104,
      "FlipAngle": 52.0,
      "HighBit": 15,
      "ImageOrientationPatient": [0.99941972467814, -0.0251728385403, -0.0229465057054, 0.01482771420554, 0.92801646488749, -0.3722439788488],
      "ImagePositionPatient": [-841.16187829886, -775.61635374013, 295.99912859584],
      "ImageType": [
        "ORIGINAL",
        "PRIMARY",
        "M",
        "MB",
        "ND",
        "MOSAIC"
],
      "ImagedNucleus": "1H",
      "ImagingFrequency": 123.259399,
      "InPlanePhaseEncodingDirection": "COL",
      "MRAcquisitionType": "2D",
      "MagneticFieldStrength": 3.0,
      "Manufacturer": "SIEMENS",
      "ManufacturerModelName": "Prisma_fit",
      "Modality": "MR",
      "NumberOfAverages": 1.0,
      "NumberOfPhaseEncodingSteps": 104,
      "PercentPhaseFieldOfView": 100.0,
      "PercentSampling": 100.0,
      "PerformedProcedureStepStartTime": "175528.350000",
      "PhotometricInterpretation": "MONOCHROME2",
      "PixelBandwidth": 2290.0,
      "PixelRepresentation": 0,
      "PixelSpacing": [2.0, 2.0],
      "ProtocolName": "func_task-s02e01b",
      "RepetitionTime": 1490.0,
      "Rows": 832,
      "SAR": 0.03351813329646,
      "SamplesPerPixel": 1,
      "ScanOptions": "FS",
      "ScanningSequence": "EP",
      "SequenceName": "epfid2d1_104",
      "SequenceVariant": [
        "SK",
        "SS"
],
      "SeriesDescription": "func_task-s02e01b",
      "SeriesNumber": 23,
      "SeriesTime": "200548.166000",
      "SliceLocation": -39.438305358726,
      "SliceThickness": 2.0,
      "SmallestImagePixelValue": 0,
      "SoftwareVersions": "syngo MR E11",
      "SpacingBetweenSlices": 1.9999999845052,
      "SpecificCharacterSet": "ISO_IR 100",
      "StudyID": "1",
      "StudyTime": "175528.284000",
      "TransmitCoilName": "Body",
      "VariableFlipAngleFlag": "N",
      "WindowCenterWidthExplanation": "Algo1",
      "dBdt": 0.0},
    "slices": {}
  },
  "time": {
    "samples": {
      "AcquisitionNumber": [1, 2, 3, 4, 5, 6, 7, 8, 9, 10, 11, 12, 13, 14, 15, 16, 17, 18, 19, 20, 21, 22, 23, 24, 25, 26, 27, 28, 29, 30, 31, 32, 33, 34, 35, 36, 37, 38, 39, 40, 41, 42, 43, 44, 45, 46, 47, 48, 49, 50, 51, 52, 53, 54, 55, 56, 57, 58, 59, 60, 61, 62, 63, 64, 65, 66, 67, 68, 69, 70, 71, 72, 73, 74, 75, 76, 77, 78, 79, 80, 81, 82, 83, 84, 85, 86, 87, 88, 89, 90, 91, 92, 93, 94, 95, 96, 97, 98, 99, 100, 101, 102, 103, 104, 105, 106, 107, 108, 109, 110, 111, 112, 113, 114, 115, 116, 117, 118, 119, 120, 121, 122, 123, 124, 125, 126, 127, 128, 129, 130, 131, 132, 133, 134, 135, 136, 137, 138, 139, 140, 141, 142, 143, 144, 145, 146, 147, 148, 149, 150, 151, 152, 153, 154, 155, 156, 157, 158, 159, 160, 161, 162, 163, 164, 165, 166, 167, 168, 169, 170, 171, 172, 173, 174, 175, 176, 177, 178, 179, 180, 181, 182, 183, 184, 185, 186, 187, 188, 189, 190, 191, 192, 193, 194, 195, 196, 197, 198, 199, 200, 201, 202, 203, 204, 205, 206, 207, 208, 209, 210, 211, 212, 213, 214, 215, 216, 217, 218, 219, 220, 221, 222, 223, 224, 225, 226, 227, 228, 229, 230, 231, 232, 233, 234, 235, 236, 237, 238, 239, 240, 241, 242, 243, 244, 245, 246, 247, 248, 249, 250, 251, 252, 253, 254, 255, 256, 257, 258, 259, 260, 261, 262, 263, 264, 265, 266, 267, 268, 269, 270, 271, 272, 273, 274, 275, 276, 277, 278, 279, 280, 281, 282, 283, 284, 285, 286, 287, 288, 289, 290, 291, 292, 293, 294, 295, 296, 297, 298, 299, 300, 301, 302, 303, 304, 305, 306, 307, 308, 309, 310, 311, 312, 313, 314, 315, 316, 317, 318, 319, 320, 321, 322, 323, 324, 325, 326, 327, 328, 329, 330, 331, 332, 333, 334, 335, 336, 337, 338, 339, 340, 341, 342, 343, 344, 345, 346, 347, 348, 349, 350, 351, 352, 353, 354, 355, 356, 357, 358, 359, 360, 361, 362, 363, 364, 365, 366, 367, 368, 369, 370, 371, 372, 373, 374, 375, 376, 377, 378, 379, 380, 381, 382, 383, 384, 385, 386, 387, 388, 389, 390, 391, 392, 393, 394, 395, 396, 397, 398, 399, 400, 401, 402, 403, 404, 405, 406, 407, 408, 409, 410, 411, 412, 413, 414, 415, 416, 417, 418, 419, 420, 421, 422, 423, 424, 425, 426, 427, 428, 429, 430, 431, 432, 433, 434, 435, 436, 437, 438, 439, 440, 441, 442, 443, 444, 445, 446, 447, 448, 449, 450, 451, 452, 453, 454, 455, 456, 457, 458, 459, 460, 461, 462, 463, 464, 465, 466, 467, 468, 469, 470, 471, 472, 473, 474, 475, 476, 477],
      "AcquisitionTime": ["200418.525000", "200420.015000", "200421.505000", "200422.995000", "200424.485000", "200425.975000", "200427.465000", "200428.955000", "200430.445000", "200431.935000", "200433.425000", "200434.915000", "200436.405000", "200437.895000", "200439.385000", "200440.875000", "200442.365000", "200443.855000", "200445.345000", "200446.835000", "200448.325000", "200449.815000", "200451.305000", "200452.795000", "200454.285000", "200455.775000", "200457.265000", "200458.755000", "200500.245000", "200501.735000", "200503.225000", "200504.715000", "200506.205000", "200507.695000", "200509.185000", "200510.675000", "200512.165000", "200513.655000", "200515.145000", "200516.635000", "200518.125000", "200519.615000", "200521.105000", "200522.595000", "200524.085000", "200525.575000", "200527.065000", "200528.555000", "200530.045000", "200531.535000", "200533.025000", "200534.515000", "200536.005000", "200537.495000", "200538.985000", "200540.475000", "200541.965000", "200543.455000", "200544.945000", "200546.435000", "200547.925000", "200549.415000", "200550.905000", "200552.395000", "200553.885000", "200555.375000", "200556.865000", "200558.355000", "200559.845000", "200601.335000", "200602.825000", "200604.315000", "200605.805000", "200607.295000", "200608.785000", "200610.275000", "200611.765000", "200613.255000", "200614.745000", "200616.235000", "200617.725000", "200619.215000", "200620.705000", "200622.195000", "200623.685000", "200625.175000", "200626.665000", "200628.155000", "200629.645000", "200631.135000", "200632.625000", "200634.115000", "200635.605000", "200637.095000", "200638.585000", "200640.075000", "200641.565000", "200643.055000", "200644.545000", "200646.035000", "200647.525000", "200649.015000", "200650.505000", "200651.995000", "200653.485000", "200654.975000", "200656.465000", "200657.955000", "200659.445000", "200700.935000", "200702.425000", "200703.915000", "200705.405000", "200706.895000", "200708.385000", "200709.875000", "200711.365000", "200712.855000", "200714.345000", "200715.835000", "200717.325000", "200718.815000", "200720.305000", "200721.795000", "200723.285000", "200724.775000", "200726.265000", "200727.755000", "200729.245000", "200730.735000", "200732.225000", "200733.715000", "200735.205000", "200736.695000", "200738.185000", "200739.675000", "200741.165000", "200742.655000", "200744.145000", "200745.635000", "200747.125000", "200748.615000", "200750.105000", "200751.595000", "200753.085000", "200754.575000", "200756.065000", "200757.555000", "200759.045000", "200800.535000", "200802.025000", "200803.515000", "200805.005000", "200806.495000", "200807.985000", "200809.475000", "200810.965000", "200812.455000", "200813.945000", "200815.435000", "200816.925000", "200818.415000", "200819.905000", "200821.395000", "200822.885000", "200824.375000", "200825.865000", "200827.355000", "200828.845000", "200830.335000", "200831.825000", "200833.315000", "200834.805000", "200836.295000", "200837.785000", "200839.275000", "200840.765000", "200842.255000", "200843.745000", "200845.235000", "200846.725000", "200848.215000", "200849.705000", "200851.195000", "200852.685000", "200854.175000", "200855.665000", "200857.155000", "200858.645000", "200900.135000", "200901.625000", "200903.115000", "200904.605000", "200906.095000", "200907.585000", "200909.075000", "200910.565000", "200912.055000", "200913.545000", "200915.035000", "200916.525000", "200918.015000", "200919.505000", "200920.995000", "200922.485000", "200923.975000", "200925.465000", "200926.955000", "200928.445000", "200929.935000", "200931.425000", "200932.915000", "200934.405000", "200935.895000", "200937.385000", "200938.875000", "200940.365000", "200941.855000", "200943.345000", "200944.835000", "200946.325000", "200947.815000", "200949.305000", "200950.795000", "200952.285000", "200953.775000", "200955.265000", "200956.755000", "200958.245000", "200959.735000", "201001.225000", "201002.715000", "201004.205000", "201005.695000", "201007.185000", "201008.675000", "201010.165000", "201011.655000", "201013.145000", "201014.635000", "201016.125000", "201017.615000", "201019.105000", "201020.595000", "201022.085000", "201023.575000", "201025.065000", "201026.555000", "201028.045000", "201029.535000", "201031.025000", "201032.515000", "201034.005000", "201035.495000", "201036.985000", "201038.475000", "201039.965000", "201041.455000", "201042.945000", "201044.435000", "201045.925000", "201047.415000", "201048.905000", "201050.395000", "201051.885000", "201053.375000", "201054.865000", "201056.355000", "201057.845000", "201059.335000", "201100.825000", "201102.315000", "201103.805000", "201105.295000", "201106.785000", "201108.275000", "201109.765000", "201111.255000", "201112.745000", "201114.235000", "201115.725000", "201117.215000", "201118.705000", "201120.195000", "201121.685000", "201123.175000", "201124.665000", "201126.155000", "201127.645000", "201129.135000", "201130.625000", "201132.115000", "201133.605000", "201135.095000", "201136.585000", "201138.075000", "201139.565000", "201141.055000", "201142.545000", "201144.035000", "201145.525000", "201147.015000", "201148.505000", "201149.995000", "201151.485000", "201152.975000", "201154.465000", "201155.955000", "201157.445000", "201158.935000", "201200.425000", "201201.915000", "201203.405000", "201204.895000", "201206.385000", "201207.875000", "201209.365000", "201210.855000", "201212.345000", "201213.835000", "201215.325000", "201216.815000", "201218.305000", "201219.795000", "201221.285000", "201222.775000", "201224.265000", "201225.755000", "201227.245000", "201228.735000", "201230.225000", "201231.715000", "201233.205000", "201234.695000", "201236.185000", "201237.675000", "201239.165000", "201240.655000", "201242.145000", "201243.635000", "201245.125000", "201246.615000", "201248.105000", "201249.595000", "201251.085000", "201252.575000", "201254.065000", "201255.555000", "201257.045000", "201258.535000", "201300.025000", "201301.515000", "201303.005000", "201304.495000", "201305.985000", "201307.475000", "201308.965000", "201310.455000", "201311.945000", "201313.435000", "201314.925000", "201316.415000", "201317.905000", "201319.395000", "201320.885000", "201322.375000", "201323.865000", "201325.355000", "201326.845000", "201328.335000", "201329.825000", "201331.315000", "201332.805000", "201334.295000", "201335.785000", "201337.275000", "201338.765000", "201340.255000", "201341.745000", "201343.235000", "201344.725000", "201346.215000", "201347.705000", "201349.195000", "201350.685000", "201352.175000", "201353.665000", "201355.155000", "201356.645000", "201358.135000", "201359.625000", "201401.115000", "201402.605000", "201404.095000", "201405.585000", "201407.075000", "201408.565000", "201410.055000", "201411.545000", "201413.035000", "201414.525000", "201416.015000", "201417.505000", "201418.995000", "201420.485000", "201421.975000", "201423.465000", "201424.955000", "201426.445000", "201427.935000", "201429.425000", "201430.915000", "201432.405000", "201433.895000", "201435.385000", "201436.875000", "201438.365000", "201439.855000", "201441.345000", "201442.835000", "201444.325000", "201445.815000", "201447.305000", "201448.795000", "201450.285000", "201451.775000", "201453.265000", "201454.755000", "201456.245000", "201457.735000", "201459.225000", "201500.715000", "201502.205000", "201503.695000", "201505.185000", "201506.675000", "201508.165000", "201509.655000", "201511.145000", "201512.635000", "201514.125000", "201515.615000", "201517.105000", "201518.595000", "201520.085000", "201521.575000", "201523.065000", "201524.555000", "201526.045000", "201527.535000", "201529.025000", "201530.515000", "201532.005000", "201533.495000", "201534.985000", "201536.475000", "201537.965000", "201539.455000", "201540.945000", "201542.435000", "201543.925000", "201545.415000", "201546.905000", "201548.395000", "201549.885000", "201551.375000", "201552.865000", "201554.355000", "201555.845000", "201557.335000", "201558.825000", "201600.315000", "201601.805000", "201603.295000", "201604.785000", "201606.275000", "201607.765000"],
      "ContentTime": ["200548.169000", "200548.172000", "200548.175000", "200548.178000", "200548.181000", "200548.184000", "200548.187000", "200548.190000", "200548.193000", "200548.196000", "200548.199000", "200548.207000", "200548.210000", "200548.213000", "200548.216000", "200548.219000", "200548.222000", "200548.225000", "200548.228000", "200548.239000", "200548.242000", "200548.245000", "200548.248000", "200548.251000", "200548.254000", "200548.257000", "200548.260000", "200548.263000", "200548.266000", "200548.270000", "200548.273000", "200548.276000", "200548.279000", "200548.283000", "200548.286000", "200608.134000", "200608.147000", "200608.150000", "200608.153000", "200608.156000", "200608.169000", "200608.172000", "200608.175000", "200608.178000", "200608.181000", "200608.184000", "200608.187000", "200608.190000", "200608.193000", "200608.196000", "200608.199000", "200608.202000", "200608.205000", "200608.207000", "200608.210000", "200628.134000", "200628.137000", "200628.140000", "200628.143000", "200628.146000", "200628.149000", "200628.151000", "200628.154000", "200628.157000", "200628.160000", "200628.163000", "200628.166000", "200628.169000", "200628.172000", "200628.175000", "200628.177000", "200628.180000", "200628.183000", "200628.186000", "200628.189000", "200628.192000", "200648.134000", "200648.137000", "200648.140000", "200648.143000", "200648.146000", "200648.149000", "200648.152000", "200648.155000", "200648.157000", "200648.160000", "200648.163000", "200648.166000", "200648.169000", "200648.172000", "200648.175000", "200648.179000", "200648.182000", "200648.185000", "200648.188000", "200648.191000", "200728.133000", "200728.136000", "200728.139000", "200728.142000", "200728.145000", "200728.148000", "200728.151000", "200728.154000", "200728.157000", "200728.159000", "200728.162000", "200728.165000", "200728.168000", "200728.171000", "200728.174000", "200728.177000", "200728.180000", "200728.183000", "200728.185000", "200728.188000", "200728.191000", "200728.194000", "200728.197000", "200728.200000", "200728.203000", "200728.206000", "200728.209000", "200728.212000", "200728.215000", "200728.218000", "200808.133000", "200808.136000", "200808.139000", "200808.142000", "200808.145000", "200808.148000", "200808.151000", "200808.154000", "200808.157000", "200808.159000", "200808.162000", "200808.165000", "200808.168000", "200808.171000", "200808.174000", "200808.177000", "200808.180000", "200808.183000", "200808.186000", "200808.188000", "200808.191000", "200808.194000", "200808.197000", "200808.200000", "200808.203000", "200808.206000", "200808.209000", "200848.134000", "200848.137000", "200848.140000", "200848.143000", "200848.146000", "200848.149000", "200848.152000", "200848.155000", "200848.157000", "200848.160000", "200848.163000", "200848.166000", "200848.169000", "200848.172000", "200848.175000", "200848.178000", "200848.181000", "200848.184000", "200848.186000", "200848.189000", "200848.192000", "200848.195000", "200848.198000", "200848.201000", "200848.204000", "200848.207000", "200848.210000", "200928.133000", "200928.136000", "200928.139000", "200928.147000", "200928.150000", "200928.153000", "200928.155000", "200928.158000", "200928.161000", "200928.164000", "200928.167000", "200928.170000", "200928.173000", "200928.176000", "200928.179000", "200928.182000", "200928.184000", "200928.187000", "200928.190000", "200928.193000", "200928.196000", "200928.199000", "200928.202000", "200928.205000", "200928.208000", "200928.211000", "200928.214000", "201008.133000", "201008.136000", "201008.139000", "201008.142000", "201008.145000", "201008.148000", "201008.151000", "201008.154000", "201008.157000", "201008.160000", "201008.163000", "201008.166000", "201008.169000", "201008.171000", "201008.174000", "201008.177000", "201008.180000", "201008.183000", "201008.186000", "201008.189000", "201008.192000", "201008.195000", "201008.198000", "201008.201000", "201008.204000", "201008.206000", "201008.209000", "201048.134000", "201048.137000", "201048.140000", "201048.143000", "201048.146000", "201048.149000", "201048.152000", "201048.155000", "201048.158000", "201048.161000", "201048.163000", "201048.166000", "201048.169000", "201048.172000", "201048.175000", "201048.178000", "201048.181000", "201048.184000", "201048.187000", "201048.190000", "201048.193000", "201048.196000", "201048.200000", "201048.203000", "201048.206000", "201048.235000", "201128.134000", "201128.137000", "201128.140000", "201128.143000", "201128.146000", "201128.149000", "201128.152000", "201128.154000", "201128.157000", "201128.160000", "201128.163000", "201128.166000", "201128.169000", "201128.172000", "201128.175000", "201128.178000", "201128.181000", "201128.184000", "201128.187000", "201128.189000", "201128.192000", "201128.195000", "201128.198000", "201128.201000", "201128.204000", "201128.207000", "201128.210000", "201208.133000", "201208.136000", "201208.139000", "201208.142000", "201208.145000", "201208.148000", "201208.151000", "201208.165000", "201208.168000", "201208.171000", "201208.174000", "201208.177000", "201208.180000", "201208.182000", "201208.185000", "201208.188000", "201208.191000", "201208.194000", "201208.197000", "201208.200000", "201208.203000", "201208.206000", "201208.209000", "201208.212000", "201208.215000", "201208.217000", "201208.220000", "201248.133000", "201248.136000", "201248.140000", "201248.142000", "201248.145000", "201248.148000", "201248.152000", "201248.155000", "201248.158000", "201248.161000", "201248.163000", "201248.166000", "201248.169000", "201248.172000", "201248.175000", "201248.178000", "201248.181000", "201248.184000", "201248.187000", "201248.190000", "201248.193000", "201248.196000", "201248.199000", "201248.202000", "201248.205000", "201248.208000", "201248.211000", "201328.134000", "201328.137000", "201328.140000", "201328.143000", "201328.146000", "201328.149000", "201328.152000", "201328.155000", "201328.158000", "201328.161000", "201328.164000", "201328.167000", "201328.170000", "201328.172000", "201328.175000", "201328.178000", "201328.181000", "201328.184000", "201328.187000", "201328.190000", "201328.194000", "201328.197000", "201328.200000", "201328.203000", "201328.206000", "201328.209000", "201328.212000", "201348.134000", "201348.137000", "201348.140000", "201348.143000", "201348.146000", "201348.149000", "201348.152000", "201348.155000", "201348.157000", "201348.160000", "201348.163000", "201348.166000", "201348.169000", "201428.133000", "201428.136000", "201428.139000", "201428.142000", "201428.145000", "201428.148000", "201428.151000", "201428.154000", "201428.157000", "201428.160000", "201428.163000", "201428.166000", "201428.169000", "201428.172000", "201428.175000", "201428.178000", "201428.180000", "201428.183000", "201428.186000", "201428.189000", "201428.192000", "201428.195000", "201428.198000", "201428.201000", "201428.204000", "201428.207000", "201428.210000", "201508.133000", "201508.136000", "201508.139000", "201508.142000", "201508.145000", "201508.148000", "201508.150000", "201508.153000", "201508.156000", "201508.159000", "201508.162000", "201508.165000", "201508.168000", "201508.171000", "201508.174000", "201508.177000", "201508.180000", "201508.183000", "201508.186000", "201508.189000", "201508.192000", "201508.195000", "201508.198000", "201508.200000", "201508.203000", "201508.206000", "201508.209000", "201548.134000", "201548.137000", "201548.140000", "201548.143000", "201548.146000", "201548.149000", "201548.152000", "201548.155000", "201548.158000", "201548.160000", "201548.163000", "201548.166000", "201548.169000", "201548.172000", "201548.175000", "201548.178000", "201548.181000", "201548.184000", "201548.187000", "201548.190000", "201548.192000", "201548.195000", "201548.198000", "201548.201000", "201548.204000", "201548.207000", "201548.210000", "201610.081000", "201610.084000", "201610.087000", "201610.090000", "201610.093000", "201610.096000", "201610.099000", "201610.102000", "201610.105000", "201610.108000", "201610.111000", "201610.114000", "201610.117000", "201610.120000", "201610.122000"],
