{
  "AcquisitionMatrixPE": 104,
  "AcquisitionNumber": 1,
  "AcquisitionTime": "18:43:10.702500",
  "BandwidthPerPixelPhaseEncode": 17.17,
  "BaseResolution": 104,
  "BodyPartExamined": "BRAIN",
  "CoilString": "HC1-7;NC1_2",
  "ConsistencyInfo": "N4_VE11C_LATEST_20160120",
  "ConversionSoftware": "dcm2niix",
  "ConversionSoftwareVersion": "v1.0.20190720  (JP2:OpenJPEG) GCC7.3.0",
  "DerivedVendorReportedEchoSpacing": 0.000560011,
  "DeviceSerialNumber": "167006",
  "DwellTime": 2.1e-06,
  "EchoTime": 0.037,
  "EchoTrainLength": 104,
  "EffectiveEchoSpacing": 0.000560011,
  "FlipAngle": 52,
  "ImageComments": "Unaliased_MB4_PE3_LB",
  "ImageOrientationPatientDICOM": [0.99942, -0.0251728, -0.0229465, 0.0148277, 0.928016, -0.372244],
  "ImageType": [
    "ORIGINAL",
    "PRIMARY",
    "M",
    "MB",
    "ND",
    "MOSAIC"
],
  "ImagingFrequency": 123.259,
  "InPlanePhaseEncodingDirectionDICOM": "COL",
  "InstitutionAddress": "Chemin_Queen-Mary_4565_Montreal_District_CA_H3W_1W5",
  "InstitutionName": "IUGM",
  "InstitutionalDepartmentName": "Department",
  "MRAcquisitionType": "2D",
  "MagneticFieldStrength": 3,
  "Manufacturer": "Siemens",
  "ManufacturersModelName": "Prisma_fit",
  "Modality": "MR",
  "MultibandAccelerationFactor": 4,
  "PartialFourier": 1,
  "PatientPosition": "HFS",
  "PercentPhaseFOV": 100,
  "PhaseEncodingDirection": "j",
  "PhaseEncodingSteps": 104,
  "PhaseResolution": 1,
  "PixelBandwidth": 2290,
  "ProcedureStepDescription": "video_friends",
  "ProtocolName": "func_task-s01e22b",
  "PulseSequenceDetails": "%CustomerSeq%_cmrr_mbep2d_bold",
  "ReceiveCoilActiveElements": "HC1-7;NC1,2",
  "ReceiveCoilName": "HeadNeck_64",
  "ReconMatrixPE": 104,
  "RepetitionTime": 1.49,
  "SAR": 0.0335173,
  "ScanOptions": "FS",
  "ScanningSequence": "EP",
  "SequenceName": "epfid2d1_104",
  "SequenceVariant": "SK_SS",
  "SeriesDescription": "func_task-s01e22b",
  "SeriesNumber": 11,
  "ShimSetting": [619, -7273, -8841, 436, 20, -456, 12, 47],
  "SliceThickness": 2,
  "SliceTiming": [0, 0.7825, 0.0975, 0.88, 0.195, 0.98, 0.2925, 1.0775, 0.39, 1.175, 0.49, 1.2725, 0.5875, 1.37, 0.685, 0, 0.7825, 0.0975, 0.88, 0.195, 0.98, 0.2925, 1.0775, 0.39, 1.175, 0.49, 1.2725, 0.5875, 1.37, 0.685, 0, 0.7825, 0.0975, 0.88, 0.195, 0.98, 0.2925, 1.0775, 0.39, 1.175, 0.49, 1.2725, 0.5875, 1.37, 0.685, 0, 0.7825, 0.0975, 0.88, 0.195, 0.98, 0.2925, 1.0775, 0.39, 1.175, 0.49, 1.2725, 0.5875, 1.37, 0.685],
  "SoftwareVersions": "syngo_MR_E11",
  "SpacingBetweenSlices": 2,
  "StationName": "MRC35049",
  "TaskName": "friends",
  "TotalReadoutTime": 0.0576811,
  "TxRefAmp": 232.158,
  "WipMemBlock": "92274444-3794-4636-a1a1-ecccebe26b58||Sequence: R016 ve11c/master r/e634e98; Dec 19 2017 11:00:25 by eja",
  "dcmmeta_affine": [
    [-1.9988394975662231, 0.02965542860329151, -0.061330344527959824, 99.73523712158203],
    [0.05034567788243294, 1.8560329675674438, -0.7433754801750183, -72.8251953125],
    [-0.04589300975203514, 0.7444879412651062, 1.8557024002075195, -68.38180541992188],
    [0.0, 0.0, 0.0, 1.0]
],
  "dcmmeta_reorient_transform": [
    [0.0, -1.0, 0.0, 103.0],
    [1.0, 0.0, 0.0, 0.0],
    [0.0, 0.0, 1.0, 0.0],
    [0.0, 0.0, 0.0, 1.0]
],
  "dcmmeta_shape": [104, 104, 60, 474],
  "dcmmeta_slice_dim": 2,
  "dcmmeta_version": 0.6,
  "global": {
    "const": {
      "AcquisitionMatrix": [104, 0, 0, 104],
      "AngioFlag": "N",
      "BitsAllocated": 16,
      "BitsStored": 16,
      "BodyPartExamined": "BRAIN",
      "Columns": 832,
      "EchoNumbers": 1,
      "EchoTime": 37.0,
      "EchoTrainLength": 104,
      "FlipAngle": 52.0,
      "HighBit": 15,
      "ImageOrientationPatient": [0.99941972467814, -0.0251728385403, -0.0229465057054, 0.01482771420554, 0.92801646488749, -0.3722439788488],
      "ImagePositionPatient": [-841.16187829886, -775.61635374013, 295.99912859584],
      "ImageType": [
        "ORIGINAL",
        "PRIMARY",
        "M",
        "MB",
        "ND",
        "MOSAIC"
],
      "ImagedNucleus": "1H",
      "ImagingFrequency": 123.259383,
      "InPlanePhaseEncodingDirection": "COL",
      "MRAcquisitionType": "2D",
      "MagneticFieldStrength": 3.0,
      "Manufacturer": "SIEMENS",
      "ManufacturerModelName": "Prisma_fit",
      "Modality": "MR",
      "NumberOfAverages": 1.0,
      "NumberOfPhaseEncodingSteps": 104,
      "PercentPhaseFieldOfView": 100.0,
      "PercentSampling": 100.0,
      "PerformedProcedureStepStartTime": "175528.350000",
      "PhotometricInterpretation": "MONOCHROME2",
      "PixelBandwidth": 2290.0,
      "PixelRepresentation": 0,
      "PixelSpacing": [2.0, 2.0],
      "ProtocolName": "func_task-s01e22b",
      "RepetitionTime": 1490.0,
      "Rows": 832,
      "SAR": 0.03351725407062,
      "SamplesPerPixel": 1,
      "ScanOptions": "FS",
      "ScanningSequence": "EP",
      "SequenceName": "epfid2d1_104",
      "SequenceVariant": [
        "SK",
        "SS"
],
      "SeriesDescription": "func_task-s01e22b",
      "SeriesNumber": 11,
      "SeriesTime": "184408.161000",
      "SliceLocation": -39.438305358726,
      "SliceThickness": 2.0,
      "SmallestImagePixelValue": 0,
      "SoftwareVersions": "syngo MR E11",
      "SpacingBetweenSlices": 1.9999999845052,
      "SpecificCharacterSet": "ISO_IR 100",
      "StudyID": "1",
      "StudyTime": "175528.284000",
      "TransmitCoilName": "Body",
      "VariableFlipAngleFlag": "N",
      "WindowCenterWidthExplanation": "Algo1",
      "dBdt": 0.0},
    "slices": {}
  },
  "time": {
    "samples": {
      "AcquisitionNumber": [1, 2, 3, 4, 5, 6, 7, 8, 9, 10, 11, 12, 13, 14, 15, 16, 17, 18, 19, 20, 21, 22, 23, 24, 25, 26, 27, 28, 29, 30, 31, 32, 33, 34, 35, 36, 37, 38, 39, 40, 41, 42, 43, 44, 45, 46, 47, 48, 49, 50, 51, 52, 53, 54, 55, 56, 57, 58, 59, 60, 61, 62, 63, 64, 65, 66, 67, 68, 69, 70, 71, 72, 73, 74, 75, 76, 77, 78, 79, 80, 81, 82, 83, 84, 85, 86, 87, 88, 89, 90, 91, 92, 93, 94, 95, 96, 97, 98, 99, 100, 101, 102, 103, 104, 105, 106, 107, 108, 109, 110, 111, 112, 113, 114, 115, 116, 117, 118, 119, 120, 121, 122, 123, 124, 125, 126, 127, 128, 129, 130, 131, 132, 133, 134, 135, 136, 137, 138, 139, 140, 141, 142, 143, 144, 145, 146, 147, 148, 149, 150, 151, 152, 153, 154, 155, 156, 157, 158, 159, 160, 161, 162, 163, 164, 165, 166, 167, 168, 169, 170, 171, 172, 173, 174, 175, 176, 177, 178, 179, 180, 181, 182, 183, 184, 185, 186, 187, 188, 189, 190, 191, 192, 193, 194, 195, 196, 197, 198, 199, 200, 201, 202, 203, 204, 205, 206, 207, 208, 209, 210, 211, 212, 213, 214, 215, 216, 217, 218, 219, 220, 221, 222, 223, 224, 225, 226, 227, 228, 229, 230, 231, 232, 233, 234, 235, 236, 237, 238, 239, 240, 241, 242, 243, 244, 245, 246, 247, 248, 249, 250, 251, 252, 253, 254, 255, 256, 257, 258, 259, 260, 261, 262, 263, 264, 265, 266, 267, 268, 269, 270, 271, 272, 273, 274, 275, 276, 277, 278, 279, 280, 281, 282, 283, 284, 285, 286, 287, 288, 289, 290, 291, 292, 293, 294, 295, 296, 297, 298, 299, 300, 301, 302, 303, 304, 305, 306, 307, 308, 309, 310, 311, 312, 313, 314, 315, 316, 317, 318, 319, 320, 321, 322, 323, 324, 325, 326, 327, 328, 329, 330, 331, 332, 333, 334, 335, 336, 337, 338, 339, 340, 341, 342, 343, 344, 345, 346, 347, 348, 349, 350, 351, 352, 353, 354, 355, 356, 357, 358, 359, 360, 361, 362, 363, 364, 365, 366, 367, 368, 369, 370, 371, 372, 373, 374, 375, 376, 377, 378, 379, 380, 381, 382, 383, 384, 385, 386, 387, 388, 389, 390, 391, 392, 393, 394, 395, 396, 397, 398, 399, 400, 401, 402, 403, 404, 405, 406, 407, 408, 409, 410, 411, 412, 413, 414, 415, 416, 417, 418, 419, 420, 421, 422, 423, 424, 425, 426, 427, 428, 429, 430, 431, 432, 433, 434, 435, 436, 437, 438, 439, 440, 441, 442, 443, 444, 445, 446, 447, 448, 449, 450, 451, 452, 453, 454, 455, 456, 457, 458, 459, 460, 461, 462, 463, 464, 465, 466, 467, 468, 469, 470, 471, 472, 473, 474],
      "AcquisitionTime": ["184310.702500", "184312.192500", "184313.682500", "184315.172500", "184316.662500", "184318.152500", "184319.642500", "184321.132500", "184322.622500", "184324.112500", "184325.602500", "184327.092500", "184328.582500", "184330.072500", "184331.562500", "184333.052500", "184334.542500", "184336.032500", "184337.522500", "184339.012500", "184340.502500", "184341.992500", "184343.482500", "184344.972500", "184346.462500", "184347.952500", "184349.442500", "184350.932500", "184352.422500", "184353.912500", "184355.402500", "184356.892500", "184358.382500", "184359.872500", "184401.362500", "184402.852500", "184404.342500", "184405.832500", "184407.322500", "184408.812500", "184410.302500", "184411.792500", "184413.282500", "184414.772500", "184416.262500", "184417.752500", "184419.242500", "184420.732500", "184422.222500", "184423.712500", "184425.202500", "184426.692500", "184428.182500", "184429.672500", "184431.162500", "184432.652500", "184434.142500", "184435.632500", "184437.122500", "184438.612500", "184440.102500", "184441.592500", "184443.082500", "184444.572500", "184446.062500", "184447.552500", "184449.042500", "184450.532500", "184452.022500", "184453.512500", "184455.002500", "184456.492500", "184457.982500", "184459.472500", "184500.962500", "184502.452500", "184503.942500", "184505.432500", "184506.922500", "184508.412500", "184509.902500", "184511.392500", "184512.882500", "184514.372500", "184515.862500", "184517.352500", "184518.842500", "184520.332500", "184521.822500", "184523.312500", "184524.802500", "184526.292500", "184527.782500", "184529.272500", "184530.762500", "184532.252500", "184533.742500", "184535.232500", "184536.722500", "184538.212500", "184539.702500", "184541.192500", "184542.682500", "184544.172500", "184545.662500", "184547.152500", "184548.642500", "184550.132500", "184551.622500", "184553.112500", "184554.602500", "184556.092500", "184557.582500", "184559.072500", "184600.562500", "184602.052500", "184603.542500", "184605.032500", "184606.522500", "184608.012500", "184609.502500", "184610.992500", "184612.482500", "184613.972500", "184615.462500", "184616.952500", "184618.442500", "184619.932500", "184621.422500", "184622.912500", "184624.402500", "184625.892500", "184627.382500", "184628.872500", "184630.362500", "184631.852500", "184633.342500", "184634.832500", "184636.322500", "184637.812500", "184639.302500", "184640.792500", "184642.282500", "184643.772500", "184645.262500", "184646.752500", "184648.242500", "184649.732500", "184651.222500", "184652.712500", "184654.202500", "184655.692500", "184657.182500", "184658.672500", "184700.162500", "184701.652500", "184703.142500", "184704.632500", "184706.122500", "184707.612500", "184709.102500", "184710.592500", "184712.082500", "184713.572500", "184715.062500", "184716.552500", "184718.042500", "184719.532500", "184721.022500", "184722.512500", "184724.002500", "184725.492500", "184726.982500", "184728.472500", "184729.962500", "184731.452500", "184732.942500", "184734.432500", "184735.922500", "184737.412500", "184738.902500", "184740.392500", "184741.882500", "184743.372500", "184744.862500", "184746.352500", "184747.842500", "184749.332500", "184750.822500", "184752.312500", "184753.802500", "184755.292500", "184756.782500", "184758.272500", "184759.762500", "184801.252500", "184802.742500", "184804.232500", "184805.722500", "184807.212500", "184808.702500", "184810.192500", "184811.682500", "184813.172500", "184814.662500", "184816.152500", "184817.642500", "184819.132500", "184820.622500", "184822.112500", "184823.602500", "184825.092500", "184826.582500", "184828.072500", "184829.562500", "184831.052500", "184832.542500", "184834.032500", "184835.522500", "184837.012500", "184838.502500", "184839.992500", "184841.482500", "184842.972500", "184844.462500", "184845.952500", "184847.442500", "184848.932500", "184850.422500", "184851.912500", "184853.402500", "184854.892500", "184856.382500", "184857.872500", "184859.362500", "184900.852500", "184902.342500", "184903.832500", "184905.322500", "184906.812500", "184908.302500", "184909.792500", "184911.282500", "184912.772500", "184914.262500", "184915.752500", "184917.242500", "184918.732500", "184920.222500", "184921.712500", "184923.202500", "184924.692500", "184926.182500", "184927.672500", "184929.162500", "184930.652500", "184932.142500", "184933.632500", "184935.122500", "184936.612500", "184938.102500", "184939.592500", "184941.082500", "184942.572500", "184944.062500", "184945.552500", "184947.042500", "184948.532500", "184950.022500", "184951.512500", "184953.002500", "184954.492500", "184955.982500", "184957.472500", "184958.962500", "185000.452500", "185001.942500", "185003.432500", "185004.922500", "185006.412500", "185007.902500", "185009.392500", "185010.882500", "185012.372500", "185013.862500", "185015.352500", "185016.842500", "185018.332500", "185019.822500", "185021.312500", "185022.802500", "185024.292500", "185025.782500", "185027.272500", "185028.762500", "185030.252500", "185031.742500", "185033.232500", "185034.722500", "185036.212500", "185037.702500", "185039.192500", "185040.682500", "185042.172500", "185043.662500", "185045.152500", "185046.642500", "185048.132500", "185049.622500", "185051.112500", "185052.602500", "185054.092500", "185055.582500", "185057.072500", "185058.562500", "185100.052500", "185101.542500", "185103.032500", "185104.522500", "185106.012500", "185107.502500", "185108.992500", "185110.482500", "185111.972500", "185113.462500", "185114.952500", "185116.442500", "185117.932500", "185119.422500", "185120.912500", "185122.402500", "185123.892500", "185125.382500", "185126.872500", "185128.362500", "185129.852500", "185131.342500", "185132.832500", "185134.322500", "185135.812500", "185137.302500", "185138.792500", "185140.282500", "185141.772500", "185143.262500", "185144.752500", "185146.242500", "185147.732500", "185149.222500", "185150.712500", "185152.202500", "185153.692500", "185155.182500", "185156.672500", "185158.162500", "185159.652500", "185201.142500", "185202.632500", "185204.122500", "185205.612500", "185207.102500", "185208.592500", "185210.082500", "185211.572500", "185213.062500", "185214.552500", "185216.042500", "185217.532500", "185219.022500", "185220.512500", "185222.002500", "185223.492500", "185224.982500", "185226.472500", "185227.962500", "185229.452500", "185230.942500", "185232.432500", "185233.922500", "185235.412500", "185236.902500", "185238.392500", "185239.882500", "185241.372500", "185242.862500", "185244.352500", "185245.842500", "185247.332500", "185248.822500", "185250.312500", "185251.802500", "185253.292500", "185254.782500", "185256.272500", "185257.762500", "185259.252500", "185300.742500", "185302.232500", "185303.722500", "185305.212500", "185306.702500", "185308.192500", "185309.682500", "185311.172500", "185312.662500", "185314.152500", "185315.642500", "185317.132500", "185318.622500", "185320.112500", "185321.602500", "185323.092500", "185324.582500", "185326.072500", "185327.562500", "185329.052500", "185330.542500", "185332.032500", "185333.522500", "185335.012500", "185336.502500", "185337.992500", "185339.482500", "185340.972500", "185342.462500", "185343.952500", "185345.442500", "185346.932500", "185348.422500", "185349.912500", "185351.402500", "185352.892500", "185354.382500", "185355.872500", "185357.362500", "185358.852500", "185400.342500", "185401.832500", "185403.322500", "185404.812500", "185406.302500", "185407.792500", "185409.282500", "185410.772500", "185412.262500", "185413.752500", "185415.242500", "185416.732500", "185418.222500", "185419.712500", "185421.202500", "185422.692500", "185424.182500", "185425.672500", "185427.162500", "185428.652500", "185430.142500", "185431.632500", "185433.122500", "185434.612500", "185436.102500", "185437.592500", "185439.082500", "185440.572500", "185442.062500", "185443.552500", "185445.042500", "185446.532500", "185448.022500", "185449.512500", "185451.002500", "185452.492500", "185453.982500", "185455.472500"],
      "ContentTime": ["184408.165000", "184408.168000", "184428.133000", "184428.136000", "184428.139000", "184428.142000", "184428.145000", "184428.148000", "184428.158000", "184428.161000", "184428.164000", "184428.167000", "184428.170000", "184428.173000", "184428.176000", "184428.178000", "184428.181000", "184428.192000", "184428.195000", "184428.198000", "184428.201000", "184428.204000", "184448.133000", "184448.136000", "184448.139000", "184448.142000", "184448.145000", "184448.148000", "184448.150000", "184448.153000", "184448.156000", "184448.159000", "184448.162000", "184448.165000", "184448.168000", "184448.170000", "184448.173000", "184448.176000", "184448.179000", "184448.182000", "184448.185000", "184448.188000", "184508.134000", "184508.137000", "184508.140000", "184508.148000", "184508.151000", "184508.154000", "184508.157000", "184508.160000", "184508.163000", "184508.166000", "184508.183000", "184508.186000", "184508.189000", "184508.192000", "184508.195000", "184508.198000", "184508.200000", "184508.203000", "184508.214000", "184508.217000", "184528.134000", "184528.137000", "184528.140000", "184528.143000", "184528.146000", "184528.148000", "184528.151000", "184528.154000", "184528.157000", "184528.160000", "184528.163000", "184528.166000", "184528.168000", "184528.171000", "184528.174000", "184528.177000", "184528.180000", "184528.183000", "184528.186000", "184528.189000", "184528.192000", "184548.134000", "184548.137000", "184548.140000", "184548.143000", "184548.146000", "184548.149000", "184548.151000", "184548.154000", "184548.157000", "184548.160000", "184548.163000", "184548.166000", "184548.169000", "184548.172000", "184548.175000", "184548.177000", "184548.180000", "184548.183000", "184548.186000", "184548.189000", "184628.133000", "184628.136000", "184628.139000", "184628.142000", "184628.145000", "184628.148000", "184628.151000", "184628.154000", "184628.156000", "184628.159000", "184628.162000", "184628.165000", "184628.168000", "184628.171000", "184628.174000", "184628.177000", "184628.180000", "184628.182000", "184628.185000", "184628.188000", "184628.191000", "184628.194000", "184628.197000", "184628.200000", "184628.203000", "184628.206000", "184628.208000", "184628.211000", "184708.133000", "184708.136000", "184708.139000", "184708.142000", "184708.145000", "184708.148000", "184708.151000", "184708.153000", "184708.156000", "184708.159000", "184708.162000", "184708.165000", "184708.168000", "184708.171000", "184708.174000", "184708.177000", "184708.180000", "184708.183000", "184708.186000", "184708.189000", "184708.192000", "184708.194000", "184708.197000", "184708.200000", "184708.203000", "184708.206000", "184708.209000", "184748.134000", "184748.137000", "184748.140000", "184748.143000", "184748.146000", "184748.149000", "184748.152000", "184748.154000", "184748.157000", "184748.160000", "184748.163000", "184748.166000", "184748.169000", "184748.172000", "184748.175000", "184748.178000", "184748.181000", "184748.183000", "184748.186000", "184748.189000", "184748.192000", "184748.195000", "184748.198000", "184748.201000", "184748.204000", "184748.207000", "184748.210000", "184828.133000", "184828.136000", "184828.139000", "184828.142000", "184828.145000", "184828.148000", "184828.151000", "184828.153000", "184828.156000", "184828.159000", "184828.162000", "184828.165000", "184828.168000", "184828.171000", "184828.174000", "184828.177000", "184828.179000", "184828.182000", "184828.185000", "184828.188000", "184828.191000", "184828.194000", "184828.197000", "184828.200000", "184828.203000", "184828.206000", "184828.209000", "184908.133000", "184908.136000", "184908.139000", "184908.142000", "184908.145000", "184908.148000", "184908.151000", "184908.154000", "184908.157000", "184908.159000", "184908.162000", "184908.165000", "184908.168000", "184908.171000", "184908.174000", "184908.177000", "184908.180000", "184908.183000", "184908.186000", "184908.189000", "184908.191000", "184908.194000", "184908.197000", "184908.200000", "184908.203000", "184908.206000", "184908.209000", "184948.134000", "184948.148000", "184948.151000", "184948.154000", "184948.157000", "184948.160000", "184948.163000", "184948.165000", "184948.168000", "184948.171000", "184948.174000", "184948.177000", "184948.180000", "184948.183000", "184948.186000", "184948.189000", "184948.192000", "184948.195000", "184948.197000", "184948.200000", "184948.203000", "184948.206000", "184948.209000", "184948.212000", "184948.215000", "184948.218000", "184948.221000", "185028.134000", "185028.137000", "185028.140000", "185028.143000", "185028.146000", "185028.149000", "185028.152000", "185028.155000", "185028.158000", "185028.161000", "185028.163000", "185028.166000", "185028.169000", "185028.172000", "185028.175000", "185028.179000", "185028.182000", "185028.185000", "185028.188000", "185028.191000", "185028.194000", "185028.197000", "185028.199000", "185028.202000", "185028.205000", "185028.208000", "185108.133000", "185108.136000", "185108.139000", "185108.142000", "185108.145000", "185108.148000", "185108.151000", "185108.154000", "185108.157000", "185108.160000", "185108.163000", "185108.165000", "185108.168000", "185108.171000", "185108.174000", "185108.177000", "185108.180000", "185108.183000", "185108.186000", "185108.189000", "185108.192000", "185108.195000", "185108.198000", "185108.200000", "185108.203000", "185108.206000", "185108.209000", "185148.134000", "185148.137000", "185148.140000", "185148.143000", "185148.146000", "185148.149000", "185148.152000", "185148.155000", "185148.158000", "185148.160000", "185148.163000", "185148.166000", "185148.169000", "185148.172000", "185148.175000", "185148.178000", "185148.181000", "185148.184000", "185148.187000", "185148.190000", "185148.193000", "185148.195000", "185148.198000", "185148.202000", "185148.205000", "185148.208000", "185148.210000", "185228.134000", "185228.137000", "185228.140000", "185228.143000", "185228.146000", "185228.149000", "185228.152000", "185228.155000", "185228.158000", "185228.161000", "185228.163000", "185228.166000", "185228.169000", "185228.172000", "185228.175000", "185228.178000", "185228.181000", "185228.184000", "185228.192000", "185228.195000", "185228.197000", "185228.200000", "185228.203000", "185228.206000", "185228.209000", "185228.212000", "185228.215000", "185308.133000", "185308.136000", "185308.139000", "185308.142000", "185308.145000", "185308.148000", "185308.151000", "185308.154000", "185308.157000", "185308.160000", "185308.163000", "185308.165000", "185308.168000", "185308.171000", "185308.174000", "185308.177000", "185308.180000", "185308.183000", "185308.186000", "185308.189000", "185308.192000", "185308.195000", "185308.198000", "185308.201000", "185308.204000", "185308.207000", "185308.210000", "185348.133000", "185348.136000", "185348.139000", "185348.142000", "185348.145000", "185348.148000", "185348.151000", "185348.154000", "185348.157000", "185348.160000", "185348.163000", "185348.166000", "185348.169000", "185348.172000", "185348.175000", "185348.178000", "185348.181000", "185348.184000", "185348.187000", "185348.190000", "185348.193000", "185348.196000", "185348.199000", "185348.201000", "185348.205000", "185348.207000", "185348.210000", "185428.134000", "185428.137000", "185428.154000", "185428.157000", "185428.160000", "185428.163000", "185428.166000", "185428.169000", "185428.172000", "185428.175000", "185428.177000", "185428.181000", "185428.184000", "185428.187000", "185428.190000", "185428.193000", "185428.196000", "185428.199000", "185428.203000", "185428.206000", "185428.208000", "185428.211000", "185428.214000", "185428.217000", "185428.220000", "185428.223000", "185458.066000", "185458.070000", "185458.073000", "185458.076000", "185458.079000", "185458.082000", "185458.085000", "185458.088000", "185458.091000", "185458.094000", "185458.097000", "185458.100000", "185458.103000", "185458.106000", "185458.110000", "185458.113000", "185458.116000", "185458.119000", "185458.122000", "185458.125000", "185458.128000"],
