{
  "AcquisitionMatrixPE": 104,
  "AcquisitionNumber": 1,
  "AcquisitionTime": "19:51:56.105000",
  "BandwidthPerPixelPhaseEncode": 17.17,
  "BaseResolution": 104,
  "BodyPartExamined": "BRAIN",
  "CoilString": "HC1-7;NC1_2",
  "ConsistencyInfo": "N4_VE11C_LATEST_20160120",
  "ConversionSoftware": "dcm2niix",
  "ConversionSoftwareVersion": "v1.0.20190720  (JP2:OpenJPEG) GCC7.3.0",
  "DerivedVendorReportedEchoSpacing": 0.000560011,
  "DeviceSerialNumber": "167006",
  "DwellTime": 2.1e-06,
  "EchoTime": 0.037,
  "EchoTrainLength": 104,
  "EffectiveEchoSpacing": 0.000560011,
  "FlipAngle": 52,
  "ImageComments": "Unaliased_MB4_PE3_LB",
  "ImageOrientationPatientDICOM": [0.99942, -0.0251728, -0.0229465, 0.0148277, 0.928016, -0.372244],
  "ImageType": [
    "ORIGINAL",
    "PRIMARY",
    "M",
    "MB",
    "ND",
    "MOSAIC"
],
  "ImagingFrequency": 123.259,
  "InPlanePhaseEncodingDirectionDICOM": "COL",
  "InstitutionAddress": "Chemin_Queen-Mary_4565_Montreal_District_CA_H3W_1W5",
  "InstitutionName": "IUGM",
  "InstitutionalDepartmentName": "Department",
  "MRAcquisitionType": "2D",
  "MagneticFieldStrength": 3,
  "Manufacturer": "Siemens",
  "ManufacturersModelName": "Prisma_fit",
  "Modality": "MR",
  "MultibandAccelerationFactor": 4,
  "PartialFourier": 1,
  "PatientPosition": "HFS",
  "PercentPhaseFOV": 100,
  "PhaseEncodingDirection": "j",
  "PhaseEncodingSteps": 104,
  "PhaseResolution": 1,
  "PixelBandwidth": 2290,
  "ProcedureStepDescription": "video_friends",
  "ProtocolName": "func_task-s02e01a",
  "PulseSequenceDetails": "%CustomerSeq%_cmrr_mbep2d_bold",
  "ReceiveCoilActiveElements": "HC1-7;NC1,2",
  "ReceiveCoilName": "HeadNeck_64",
  "ReconMatrixPE": 104,
  "RepetitionTime": 1.49,
  "SAR": 0.0335181,
  "ScanOptions": "FS",
  "ScanningSequence": "EP",
  "SequenceName": "epfid2d1_104",
  "SequenceVariant": "SK_SS",
  "SeriesDescription": "func_task-s02e01a",
  "SeriesNumber": 21,
  "ShimSetting": [619, -7273, -8841, 436, 20, -456, 12, 47],
  "SliceThickness": 2,
  "SliceTiming": [0, 0.7825, 0.0975, 0.8825, 0.195, 0.98, 0.2925, 1.0775, 0.3925, 1.175, 0.49, 1.2725, 0.5875, 1.3725, 0.685, 0, 0.7825, 0.0975, 0.8825, 0.195, 0.98, 0.2925, 1.0775, 0.3925, 1.175, 0.49, 1.2725, 0.5875, 1.3725, 0.685, 0, 0.7825, 0.0975, 0.8825, 0.195, 0.98, 0.2925, 1.0775, 0.3925, 1.175, 0.49, 1.2725, 0.5875, 1.3725, 0.685, 0, 0.7825, 0.0975, 0.8825, 0.195, 0.98, 0.2925, 1.0775, 0.3925, 1.175, 0.49, 1.2725, 0.5875, 1.3725, 0.685],
  "SoftwareVersions": "syngo_MR_E11",
  "SpacingBetweenSlices": 2,
  "StationName": "MRC35049",
  "TaskName": "friends",
  "TotalReadoutTime": 0.0576811,
  "TxRefAmp": 232.158,
  "WipMemBlock": "1edf7ce8-70e4-4061-8c67-2ec53314993f||Sequence: R016 ve11c/master r/e634e98; Dec 19 2017 11:00:25 by eja",
  "dcmmeta_affine": [
    [-1.9988394975662231, 0.02965542860329151, -0.061330344527959824, 99.73523712158203],
    [0.05034567788243294, 1.8560329675674438, -0.7433754801750183, -72.8251953125],
    [-0.04589300975203514, 0.7444879412651062, 1.8557024002075195, -68.38180541992188],
    [0.0, 0.0, 0.0, 1.0]
],
  "dcmmeta_reorient_transform": [
    [0.0, -1.0, 0.0, 103.0],
    [1.0, 0.0, 0.0, 0.0],
    [0.0, 0.0, 1.0, 0.0],
    [0.0, 0.0, 0.0, 1.0]
],
  "dcmmeta_shape": [104, 104, 60, 477],
  "dcmmeta_slice_dim": 2,
  "dcmmeta_version": 0.6,
  "global": {
    "const": {
      "AcquisitionMatrix": [104, 0, 0, 104],
      "AngioFlag": "N",
      "BitsAllocated": 16,
      "BitsStored": 16,
      "BodyPartExamined": "BRAIN",
      "Columns": 832,
      "EchoNumbers": 1,
      "EchoTime": 37.0,
      "EchoTrainLength": 104,
      "FlipAngle": 52.0,
      "HighBit": 15,
      "ImageOrientationPatient": [0.99941972467814, -0.0251728385403, -0.0229465057054, 0.01482771420554, 0.92801646488749, -0.3722439788488],
      "ImagePositionPatient": [-841.16187829886, -775.61635374013, 295.99912859584],
      "ImageType": [
        "ORIGINAL",
        "PRIMARY",
        "M",
        "MB",
        "ND",
        "MOSAIC"
],
      "ImagedNucleus": "1H",
      "ImagingFrequency": 123.259398,
      "InPlanePhaseEncodingDirection": "COL",
      "MRAcquisitionType": "2D",
      "MagneticFieldStrength": 3.0,
      "Manufacturer": "SIEMENS",
      "ManufacturerModelName": "Prisma_fit",
      "Modality": "MR",
      "NumberOfAverages": 1.0,
      "NumberOfPhaseEncodingSteps": 104,
      "PercentPhaseFieldOfView": 100.0,
      "PercentSampling": 100.0,
      "PerformedProcedureStepStartTime": "175528.350000",
      "PhotometricInterpretation": "MONOCHROME2",
      "PixelBandwidth": 2290.0,
      "PixelRepresentation": 0,
      "PixelSpacing": [2.0, 2.0],
      "ProtocolName": "func_task-s02e01a",
      "RepetitionTime": 1490.0,
      "Rows": 832,
      "SAR": 0.03351813329646,
      "SamplesPerPixel": 1,
      "ScanOptions": "FS",
      "ScanningSequence": "EP",
      "SequenceName": "epfid2d1_104",
      "SequenceVariant": [
        "SK",
        "SS"
],
      "SeriesDescription": "func_task-s02e01a",
      "SeriesNumber": 21,
      "SeriesTime": "195328.029000",
      "SliceLocation": -39.438305358726,
      "SliceThickness": 2.0,
      "SmallestImagePixelValue": 0,
      "SoftwareVersions": "syngo MR E11",
      "SpacingBetweenSlices": 1.9999999845052,
      "SpecificCharacterSet": "ISO_IR 100",
      "StudyID": "1",
      "StudyTime": "175528.284000",
      "TransmitCoilName": "Body",
      "VariableFlipAngleFlag": "N",
      "WindowCenterWidthExplanation": "Algo1",
      "dBdt": 0.0},
    "slices": {}
  },
  "time": {
    "samples": {
      "AcquisitionNumber": [1, 2, 3, 4, 5, 6, 7, 8, 9, 10, 11, 12, 13, 14, 15, 16, 17, 18, 19, 20, 21, 22, 23, 24, 25, 26, 27, 28, 29, 30, 31, 32, 33, 34, 35, 36, 37, 38, 39, 40, 41, 42, 43, 44, 45, 46, 47, 48, 49, 50, 51, 52, 53, 54, 55, 56, 57, 58, 59, 60, 61, 62, 63, 64, 65, 66, 67, 68, 69, 70, 71, 72, 73, 74, 75, 76, 77, 78, 79, 80, 81, 82, 83, 84, 85, 86, 87, 88, 89, 90, 91, 92, 93, 94, 95, 96, 97, 98, 99, 100, 101, 102, 103, 104, 105, 106, 107, 108, 109, 110, 111, 112, 113, 114, 115, 116, 117, 118, 119, 120, 121, 122, 123, 124, 125, 126, 127, 128, 129, 130, 131, 132, 133, 134, 135, 136, 137, 138, 139, 140, 141, 142, 143, 144, 145, 146, 147, 148, 149, 150, 151, 152, 153, 154, 155, 156, 157, 158, 159, 160, 161, 162, 163, 164, 165, 166, 167, 168, 169, 170, 171, 172, 173, 174, 175, 176, 177, 178, 179, 180, 181, 182, 183, 184, 185, 186, 187, 188, 189, 190, 191, 192, 193, 194, 195, 196, 197, 198, 199, 200, 201, 202, 203, 204, 205, 206, 207, 208, 209, 210, 211, 212, 213, 214, 215, 216, 217, 218, 219, 220, 221, 222, 223, 224, 225, 226, 227, 228, 229, 230, 231, 232, 233, 234, 235, 236, 237, 238, 239, 240, 241, 242, 243, 244, 245, 246, 247, 248, 249, 250, 251, 252, 253, 254, 255, 256, 257, 258, 259, 260, 261, 262, 263, 264, 265, 266, 267, 268, 269, 270, 271, 272, 273, 274, 275, 276, 277, 278, 279, 280, 281, 282, 283, 284, 285, 286, 287, 288, 289, 290, 291, 292, 293, 294, 295, 296, 297, 298, 299, 300, 301, 302, 303, 304, 305, 306, 307, 308, 309, 310, 311, 312, 313, 314, 315, 316, 317, 318, 319, 320, 321, 322, 323, 324, 325, 326, 327, 328, 329, 330, 331, 332, 333, 334, 335, 336, 337, 338, 339, 340, 341, 342, 343, 344, 345, 346, 347, 348, 349, 350, 351, 352, 353, 354, 355, 356, 357, 358, 359, 360, 361, 362, 363, 364, 365, 366, 367, 368, 369, 370, 371, 372, 373, 374, 375, 376, 377, 378, 379, 380, 381, 382, 383, 384, 385, 386, 387, 388, 389, 390, 391, 392, 393, 394, 395, 396, 397, 398, 399, 400, 401, 402, 403, 404, 405, 406, 407, 408, 409, 410, 411, 412, 413, 414, 415, 416, 417, 418, 419, 420, 421, 422, 423, 424, 425, 426, 427, 428, 429, 430, 431, 432, 433, 434, 435, 436, 437, 438, 439, 440, 441, 442, 443, 444, 445, 446, 447, 448, 449, 450, 451, 452, 453, 454, 455, 456, 457, 458, 459, 460, 461, 462, 463, 464, 465, 466, 467, 468, 469, 470, 471, 472, 473, 474, 475, 476, 477],
      "AcquisitionTime": ["195156.105000", "195157.595000", "195159.085000", "195200.575000", "195202.065000", "195203.555000", "195205.045000", "195206.535000", "195208.025000", "195209.515000", "195211.005000", "195212.495000", "195213.985000", "195215.475000", "195216.965000", "195218.455000", "195219.945000", "195221.435000", "195222.925000", "195224.415000", "195225.905000", "195227.395000", "195228.885000", "195230.375000", "195231.865000", "195233.355000", "195234.845000", "195236.335000", "195237.825000", "195239.315000", "195240.805000", "195242.295000", "195243.785000", "195245.275000", "195246.765000", "195248.255000", "195249.745000", "195251.235000", "195252.725000", "195254.215000", "195255.705000", "195257.195000", "195258.685000", "195300.175000", "195301.665000", "195303.155000", "195304.645000", "195306.135000", "195307.625000", "195309.115000", "195310.605000", "195312.095000", "195313.585000", "195315.075000", "195316.565000", "195318.055000", "195319.545000", "195321.035000", "195322.525000", "195324.015000", "195325.505000", "195326.995000", "195328.485000", "195329.975000", "195331.465000", "195332.955000", "195334.445000", "195335.935000", "195337.425000", "195338.915000", "195340.405000", "195341.895000", "195343.385000", "195344.875000", "195346.365000", "195347.855000", "195349.345000", "195350.835000", "195352.325000", "195353.815000", "195355.305000", "195356.795000", "195358.285000", "195359.775000", "195401.265000", "195402.755000", "195404.245000", "195405.735000", "195407.225000", "195408.715000", "195410.205000", "195411.695000", "195413.185000", "195414.675000", "195416.165000", "195417.655000", "195419.145000", "195420.635000", "195422.125000", "195423.615000", "195425.105000", "195426.595000", "195428.085000", "195429.575000", "195431.065000", "195432.555000", "195434.045000", "195435.535000", "195437.025000", "195438.515000", "195440.005000", "195441.495000", "195442.985000", "195444.475000", "195445.965000", "195447.455000", "195448.945000", "195450.435000", "195451.925000", "195453.415000", "195454.905000", "195456.395000", "195457.885000", "195459.375000", "195500.865000", "195502.355000", "195503.845000", "195505.335000", "195506.825000", "195508.315000", "195509.805000", "195511.295000", "195512.785000", "195514.275000", "195515.765000", "195517.255000", "195518.745000", "195520.235000", "195521.725000", "195523.215000", "195524.705000", "195526.195000", "195527.685000", "195529.175000", "195530.665000", "195532.155000", "195533.645000", "195535.135000", "195536.625000", "195538.115000", "195539.605000", "195541.095000", "195542.585000", "195544.075000", "195545.565000", "195547.055000", "195548.545000", "195550.035000", "195551.525000", "195553.015000", "195554.505000", "195555.995000", "195557.485000", "195558.975000", "195600.465000", "195601.955000", "195603.445000", "195604.935000", "195606.425000", "195607.915000", "195609.405000", "195610.895000", "195612.385000", "195613.875000", "195615.365000", "195616.855000", "195618.345000", "195619.835000", "195621.325000", "195622.815000", "195624.305000", "195625.795000", "195627.285000", "195628.775000", "195630.265000", "195631.755000", "195633.245000", "195634.735000", "195636.225000", "195637.715000", "195639.205000", "195640.695000", "195642.185000", "195643.675000", "195645.165000", "195646.655000", "195648.145000", "195649.635000", "195651.125000", "195652.615000", "195654.105000", "195655.595000", "195657.085000", "195658.575000", "195700.065000", "195701.555000", "195703.045000", "195704.535000", "195706.025000", "195707.515000", "195709.005000", "195710.495000", "195711.985000", "195713.475000", "195714.965000", "195716.455000", "195717.945000", "195719.435000", "195720.925000", "195722.415000", "195723.905000", "195725.395000", "195726.885000", "195728.375000", "195729.865000", "195731.355000", "195732.845000", "195734.335000", "195735.825000", "195737.315000", "195738.805000", "195740.295000", "195741.785000", "195743.275000", "195744.765000", "195746.255000", "195747.745000", "195749.235000", "195750.725000", "195752.215000", "195753.705000", "195755.195000", "195756.685000", "195758.175000", "195759.665000", "195801.155000", "195802.645000", "195804.135000", "195805.625000", "195807.115000", "195808.605000", "195810.095000", "195811.585000", "195813.075000", "195814.565000", "195816.055000", "195817.545000", "195819.035000", "195820.525000", "195822.015000", "195823.505000", "195824.995000", "195826.485000", "195827.975000", "195829.465000", "195830.955000", "195832.445000", "195833.935000", "195835.425000", "195836.915000", "195838.405000", "195839.895000", "195841.385000", "195842.875000", "195844.365000", "195845.855000", "195847.345000", "195848.835000", "195850.325000", "195851.815000", "195853.305000", "195854.795000", "195856.285000", "195857.775000", "195859.265000", "195900.755000", "195902.245000", "195903.735000", "195905.225000", "195906.715000", "195908.205000", "195909.695000", "195911.185000", "195912.675000", "195914.165000", "195915.655000", "195917.145000", "195918.635000", "195920.125000", "195921.615000", "195923.105000", "195924.595000", "195926.085000", "195927.575000", "195929.065000", "195930.555000", "195932.045000", "195933.535000", "195935.025000", "195936.515000", "195938.005000", "195939.495000", "195940.985000", "195942.475000", "195943.965000", "195945.455000", "195946.945000", "195948.435000", "195949.925000", "195951.415000", "195952.905000", "195954.395000", "195955.885000", "195957.375000", "195958.865000", "200000.355000", "200001.845000", "200003.335000", "200004.825000", "200006.315000", "200007.805000", "200009.295000", "200010.785000", "200012.275000", "200013.765000", "200015.255000", "200016.745000", "200018.235000", "200019.725000", "200021.215000", "200022.705000", "200024.195000", "200025.685000", "200027.175000", "200028.665000", "200030.155000", "200031.645000", "200033.135000", "200034.625000", "200036.115000", "200037.605000", "200039.095000", "200040.585000", "200042.075000", "200043.565000", "200045.055000", "200046.545000", "200048.035000", "200049.525000", "200051.015000", "200052.505000", "200053.995000", "200055.485000", "200056.975000", "200058.465000", "200059.955000", "200101.445000", "200102.935000", "200104.425000", "200105.915000", "200107.405000", "200108.895000", "200110.385000", "200111.875000", "200113.365000", "200114.855000", "200116.345000", "200117.835000", "200119.325000", "200120.815000", "200122.305000", "200123.795000", "200125.285000", "200126.775000", "200128.265000", "200129.755000", "200131.245000", "200132.735000", "200134.225000", "200135.715000", "200137.205000", "200138.695000", "200140.185000", "200141.675000", "200143.165000", "200144.655000", "200146.145000", "200147.635000", "200149.125000", "200150.615000", "200152.105000", "200153.595000", "200155.085000", "200156.575000", "200158.065000", "200159.555000", "200201.045000", "200202.535000", "200204.025000", "200205.515000", "200207.005000", "200208.495000", "200209.985000", "200211.475000", "200212.965000", "200214.455000", "200215.945000", "200217.435000", "200218.925000", "200220.415000", "200221.905000", "200223.395000", "200224.885000", "200226.375000", "200227.865000", "200229.355000", "200230.845000", "200232.335000", "200233.825000", "200235.315000", "200236.805000", "200238.295000", "200239.785000", "200241.275000", "200242.765000", "200244.255000", "200245.745000", "200247.235000", "200248.725000", "200250.215000", "200251.705000", "200253.195000", "200254.685000", "200256.175000", "200257.665000", "200259.155000", "200300.645000", "200302.135000", "200303.625000", "200305.115000", "200306.605000", "200308.095000", "200309.585000", "200311.075000", "200312.565000", "200314.055000", "200315.545000", "200317.035000", "200318.525000", "200320.015000", "200321.505000", "200322.995000", "200324.485000", "200325.975000", "200327.465000", "200328.955000", "200330.445000", "200331.935000", "200333.425000", "200334.915000", "200336.405000", "200337.895000", "200339.385000", "200340.875000", "200342.365000", "200343.855000", "200345.345000"],
      "ContentTime": ["195328.032000", "195328.036000", "195328.038000", "195328.041000", "195328.044000", "195328.047000", "195328.050000", "195328.053000", "195328.056000", "195328.059000", "195328.062000", "195328.065000", "195328.068000", "195328.070000", "195328.073000", "195328.076000", "195328.079000", "195328.082000", "195328.092000", "195328.095000", "195328.098000", "195328.107000", "195328.110000", "195328.113000", "195328.115000", "195328.129000", "195328.132000", "195328.134000", "195328.137000", "195328.140000", "195328.143000", "195328.146000", "195328.149000", "195328.152000", "195328.154000", "195328.157000", "195328.160000", "195328.163000", "195348.005000", "195348.008000", "195348.011000", "195348.014000", "195348.017000", "195348.020000", "195348.022000", "195348.025000", "195348.028000", "195348.031000", "195348.034000", "195348.037000", "195348.040000", "195348.042000", "195348.047000", "195348.050000", "195348.053000", "195348.056000", "195348.059000", "195348.062000", "195408.005000", "195408.008000", "195408.011000", "195408.014000", "195408.017000", "195408.020000", "195408.022000", "195408.025000", "195408.028000", "195408.031000", "195408.034000", "195408.037000", "195408.040000", "195408.043000", "195408.046000", "195408.048000", "195408.051000", "195408.054000", "195408.057000", "195408.060000", "195428.006000", "195428.009000", "195428.012000", "195428.015000", "195428.018000", "195428.021000", "195428.023000", "195428.026000", "195428.029000", "195428.032000", "195428.035000", "195428.038000", "195428.041000", "195428.044000", "195428.047000", "195428.049000", "195428.052000", "195428.055000", "195428.058000", "195428.061000", "195508.006000", "195508.009000", "195508.012000", "195508.015000", "195508.018000", "195508.021000", "195508.024000", "195508.027000", "195508.030000", "195508.033000", "195508.036000", "195508.039000", "195508.042000", "195508.045000", "195508.055000", "195508.058000", "195508.061000", "195508.064000", "195508.067000", "195508.070000", "195508.073000", "195508.076000", "195508.079000", "195508.082000", "195508.085000", "195508.088000", "195508.091000", "195508.093000", "195508.096000", "195508.099000", "195548.005000", "195548.008000", "195548.011000", "195548.014000", "195548.017000", "195548.020000", "195548.023000", "195548.026000", "195548.029000", "195548.032000", "195548.035000", "195548.037000", "195548.040000", "195548.043000", "195548.046000", "195548.049000", "195548.052000", "195548.055000", "195548.058000", "195548.061000", "195548.063000", "195548.066000", "195548.069000", "195548.072000", "195548.075000", "195548.078000", "195548.081000", "195628.005000", "195628.008000", "195628.011000", "195628.014000", "195628.017000", "195628.020000", "195628.022000", "195628.025000", "195628.028000", "195628.031000", "195628.034000", "195628.037000", "195628.040000", "195628.043000", "195628.046000", "195628.049000", "195628.052000", "195628.054000", "195628.057000", "195628.060000", "195628.063000", "195628.066000", "195628.069000", "195628.072000", "195628.075000", "195628.078000", "195628.080000", "195708.006000", "195708.009000", "195708.012000", "195708.015000", "195708.018000", "195708.021000", "195708.024000", "195708.027000", "195708.030000", "195708.033000", "195708.036000", "195708.038000", "195708.041000", "195708.044000", "195708.047000", "195708.050000", "195708.053000", "195708.056000", "195708.059000", "195708.062000", "195708.065000", "195708.068000", "195708.071000", "195708.073000", "195708.076000", "195708.079000", "195748.005000", "195748.008000", "195748.011000", "195748.014000", "195748.017000", "195748.030000", "195748.033000", "195748.036000", "195748.039000", "195748.041000", "195748.044000", "195748.047000", "195748.050000", "195748.053000", "195748.056000", "195748.059000", "195748.062000", "195748.064000", "195748.067000", "195748.070000", "195748.073000", "195748.076000", "195748.079000", "195748.082000", "195748.085000", "195748.088000", "195748.090000", "195828.005000", "195828.008000", "195828.011000", "195828.014000", "195828.017000", "195828.020000", "195828.023000", "195828.029000", "195828.032000", "195828.035000", "195828.038000", "195828.041000", "195828.044000", "195828.046000", "195828.049000", "195828.052000", "195828.055000", "195828.058000", "195828.061000", "195828.064000", "195828.067000", "195828.070000", "195828.073000", "195828.075000", "195828.078000", "195828.081000", "195828.084000", "195908.006000", "195908.009000", "195908.012000", "195908.015000", "195908.018000", "195908.021000", "195908.024000", "195908.027000", "195908.030000", "195908.032000", "195908.035000", "195908.038000", "195908.041000", "195908.044000", "195908.047000", "195908.050000", "195908.053000", "195908.056000", "195908.059000", "195908.061000", "195908.064000", "195908.067000", "195908.070000", "195908.073000", "195908.076000", "195908.079000", "195908.082000", "195948.005000", "195948.008000", "195948.011000", "195948.014000", "195948.017000", "195948.020000", "195948.023000", "195948.025000", "195948.028000", "195948.031000", "195948.034000", "195948.037000", "195948.040000", "195948.043000", "195948.046000", "195948.049000", "195948.051000", "195948.054000", "195948.057000", "195948.060000", "195948.063000", "195948.066000", "195948.069000", "195948.072000", "195948.075000", "195948.078000", "195948.080000", "200028.005000", "200028.008000", "200028.011000", "200028.014000", "200028.017000", "200028.020000", "200028.023000", "200028.026000", "200028.029000", "200028.031000", "200028.034000", "200028.037000", "200028.040000", "200028.043000", "200028.046000", "200028.049000", "200028.052000", "200028.055000", "200028.057000", "200028.060000", "200028.063000", "200028.066000", "200028.069000", "200028.072000", "200028.075000", "200028.078000", "200028.081000", "200108.005000", "200108.008000", "200108.011000", "200108.014000", "200108.017000", "200108.020000", "200108.023000", "200108.026000", "200108.029000", "200108.031000", "200108.034000", "200108.037000", "200108.040000", "200108.043000", "200108.046000", "200108.049000", "200108.052000", "200108.055000", "200108.058000", "200108.060000", "200108.063000", "200108.066000", "200108.069000", "200108.072000", "200108.075000", "200108.078000", "200108.081000", "200148.006000", "200148.009000", "200148.012000", "200148.015000", "200148.018000", "200148.021000", "200148.024000", "200148.027000", "200148.030000", "200148.033000", "200148.035000", "200148.038000", "200148.041000", "200148.044000", "200148.047000", "200148.050000", "200148.053000", "200148.056000", "200148.059000", "200148.061000", "200148.064000", "200148.068000", "200148.071000", "200148.074000", "200148.077000", "200148.080000", "200228.005000", "200228.008000", "200228.011000", "200228.014000", "200228.017000", "200228.020000", "200228.023000", "200228.026000", "200228.028000", "200228.031000", "200228.034000", "200228.037000", "200228.040000", "200228.043000", "200228.046000", "200228.049000", "200228.052000", "200228.055000", "200228.058000", "200228.070000", "200228.073000", "200228.076000", "200228.079000", "200228.081000", "200228.084000", "200228.087000", "200228.090000", "200308.005000", "200308.008000", "200308.011000", "200308.014000", "200308.017000", "200308.020000", "200308.023000", "200308.025000", "200308.028000", "200308.031000", "200308.034000", "200308.037000", "200308.040000", "200308.043000", "200308.046000", "200308.049000", "200308.052000", "200308.054000", "200308.057000", "200308.060000", "200308.063000", "200308.066000", "200308.069000", "200308.072000", "200308.075000", "200308.078000", "200308.081000", "200347.458000", "200347.461000", "200347.464000", "200347.467000", "200347.470000", "200347.473000", "200347.476000", "200347.479000", "200347.482000", "200347.485000", "200347.488000", "200347.491000", "200347.494000", "200347.497000", "200347.500000", "200347.502000", "200347.505000", "200347.508000", "200347.522000", "200347.525000", "200347.528000", "200347.531000", "200347.534000", "200347.537000", "200347.540000", "200347.543000", "200347.546000"],
