{
  "AcquisitionMatrixPE": 104,
  "AcquisitionNumber": 1,
  "AcquisitionTime": "19:11:50.625000",
  "BandwidthPerPixelPhaseEncode": 17.17,
  "BaseResolution": 104,
  "BodyPartExamined": "BRAIN",
  "CoilString": "HC1-7;NC1_2",
  "ConsistencyInfo": "N4_VE11C_LATEST_20160120",
  "ConversionSoftware": "dcm2niix",
  "ConversionSoftwareVersion": "v1.0.20190720  (JP2:OpenJPEG) GCC7.3.0",
  "DerivedVendorReportedEchoSpacing": 0.000560011,
  "DeviceSerialNumber": "167006",
  "DwellTime": 2.1e-06,
  "EchoTime": 0.037,
  "EchoTrainLength": 104,
  "EffectiveEchoSpacing": 0.000560011,
  "FlipAngle": 52,
  "ImageComments": "Unaliased_MB4_PE3_LB",
  "ImageOrientationPatientDICOM": [0.99942, -0.0251728, -0.0229465, 0.0148277, 0.928016, -0.372244],
  "ImageType": [
    "ORIGINAL",
    "PRIMARY",
    "M",
    "MB",
    "ND",
    "MOSAIC"
],
  "ImagingFrequency": 123.259,
  "InPlanePhaseEncodingDirectionDICOM": "COL",
  "InstitutionAddress": "Chemin_Queen-Mary_4565_Montreal_District_CA_H3W_1W5",
  "InstitutionName": "IUGM",
  "InstitutionalDepartmentName": "Department",
  "MRAcquisitionType": "2D",
  "MagneticFieldStrength": 3,
  "Manufacturer": "Siemens",
  "ManufacturersModelName": "Prisma_fit",
  "Modality": "MR",
  "MultibandAccelerationFactor": 4,
  "PartialFourier": 1,
  "PatientPosition": "HFS",
  "PercentPhaseFOV": 100,
  "PhaseEncodingDirection": "j",
  "PhaseEncodingSteps": 104,
  "PhaseResolution": 1,
  "PixelBandwidth": 2290,
  "ProcedureStepDescription": "video_friends",
  "ProtocolName": "func_task-friends-s01e23b",
  "PulseSequenceDetails": "%CustomerSeq%_cmrr_mbep2d_bold",
  "ReceiveCoilActiveElements": "HC1-7;NC1,2",
  "ReceiveCoilName": "HeadNeck_64",
  "ReconMatrixPE": 104,
  "RepetitionTime": 1.49,
  "SAR": 0.0335136,
  "ScanOptions": "FS",
  "ScanningSequence": "EP",
  "SequenceName": "epfid2d1_104",
  "SequenceVariant": "SK_SS",
  "SeriesDescription": "func_task-friends-s01e23b",
  "SeriesNumber": 15,
  "ShimSetting": [619, -7273, -8841, 436, 20, -456, 12, 47],
  "SliceThickness": 2,
  "SliceTiming": [0, 0.785, 0.0975, 0.8825, 0.1975, 0.98, 0.295, 1.0775, 0.3925, 1.1775, 0.49, 1.275, 0.5875, 1.3725, 0.6875, 0, 0.785, 0.0975, 0.8825, 0.1975, 0.98, 0.295, 1.0775, 0.3925, 1.1775, 0.49, 1.275, 0.5875, 1.3725, 0.6875, 0, 0.785, 0.0975, 0.8825, 0.1975, 0.98, 0.295, 1.0775, 0.3925, 1.1775, 0.49, 1.275, 0.5875, 1.3725, 0.6875, 0, 0.785, 0.0975, 0.8825, 0.1975, 0.98, 0.295, 1.0775, 0.3925, 1.1775, 0.49, 1.275, 0.5875, 1.3725, 0.6875],
  "SoftwareVersions": "syngo_MR_E11",
  "SpacingBetweenSlices": 2,
  "StationName": "MRC35049",
  "TaskName": "friends",
  "TotalReadoutTime": 0.0576811,
  "TxRefAmp": 232.158,
  "WipMemBlock": "b4297fd7-220f-4683-97aa-d39edd294bb4||Sequence: R016 ve11c/master r/e634e98; Dec 19 2017 11:00:25 by eja",
  "dcmmeta_affine": [
    [-1.9988394975662231, 0.02965542860329151, -0.061330344527959824, 99.73523712158203],
    [0.05034567788243294, 1.8560329675674438, -0.7433754801750183, -72.8251953125],
    [-0.04589300975203514, 0.7444879412651062, 1.8557024002075195, -68.38180541992188],
    [0.0, 0.0, 0.0, 1.0]
],
  "dcmmeta_reorient_transform": [
    [0.0, -1.0, 0.0, 103.0],
    [1.0, 0.0, 0.0, 0.0],
    [0.0, 0.0, 1.0, 0.0],
    [0.0, 0.0, 0.0, 1.0]
],
  "dcmmeta_shape": [104, 104, 60, 462],
  "dcmmeta_slice_dim": 2,
  "dcmmeta_version": 0.6,
  "global": {
    "const": {
      "AcquisitionMatrix": [104, 0, 0, 104],
      "AngioFlag": "N",
      "BitsAllocated": 16,
      "BitsStored": 16,
      "BodyPartExamined": "BRAIN",
      "Columns": 832,
      "EchoNumbers": 1,
      "EchoTime": 37.0,
      "EchoTrainLength": 104,
      "FlipAngle": 52.0,
      "HighBit": 15,
      "ImageOrientationPatient": [0.99941972467814, -0.0251728385403, -0.0229465057054, 0.01482771420554, 0.92801646488749, -0.3722439788488],
      "ImagePositionPatient": [-841.16187829886, -775.61635374013, 295.99912859584],
      "ImageType": [
        "ORIGINAL",
        "PRIMARY",
        "M",
        "MB",
        "ND",
        "MOSAIC"
],
      "ImagedNucleus": "1H",
      "ImagingFrequency": 123.259392,
      "InPlanePhaseEncodingDirection": "COL",
      "MRAcquisitionType": "2D",
      "MagneticFieldStrength": 3.0,
      "Manufacturer": "SIEMENS",
      "ManufacturerModelName": "Prisma_fit",
      "Modality": "MR",
      "NumberOfAverages": 1.0,
      "NumberOfPhaseEncodingSteps": 104,
      "PercentPhaseFieldOfView": 100.0,
      "PercentSampling": 100.0,
      "PerformedProcedureStepStartTime": "175528.350000",
      "PhotometricInterpretation": "MONOCHROME2",
      "PixelBandwidth": 2290.0,
      "PixelRepresentation": 0,
      "PixelSpacing": [2.0, 2.0],
      "ProtocolName": "func_task-friends-s01e23b",
      "RepetitionTime": 1490.0,
      "Rows": 832,
      "SAR": 0.0335136269746,
      "SamplesPerPixel": 1,
      "ScanOptions": "FS",
      "ScanningSequence": "EP",
      "SequenceName": "epfid2d1_104",
      "SequenceVariant": [
        "SK",
        "SS"
],
      "SeriesDescription": "func_task-friends-s01e23b",
      "SeriesNumber": 15,
      "SeriesTime": "191308.032000",
      "SliceLocation": -39.438305358726,
      "SliceThickness": 2.0,
      "SmallestImagePixelValue": 0,
      "SoftwareVersions": "syngo MR E11",
      "SpacingBetweenSlices": 1.9999999845052,
      "SpecificCharacterSet": "ISO_IR 100",
      "StudyID": "1",
      "StudyTime": "175528.284000",
      "TransmitCoilName": "Body",
      "VariableFlipAngleFlag": "N",
      "WindowCenterWidthExplanation": "Algo1",
      "dBdt": 0.0},
    "slices": {}
  },
  "time": {
    "samples": {
      "AcquisitionNumber": [1, 2, 3, 4, 5, 6, 7, 8, 9, 10, 11, 12, 13, 14, 15, 16, 17, 18, 19, 20, 21, 22, 23, 24, 25, 26, 27, 28, 29, 30, 31, 32, 33, 34, 35, 36, 37, 38, 39, 40, 41, 42, 43, 44, 45, 46, 47, 48, 49, 50, 51, 52, 53, 54, 55, 56, 57, 58, 59, 60, 61, 62, 63, 64, 65, 66, 67, 68, 69, 70, 71, 72, 73, 74, 75, 76, 77, 78, 79, 80, 81, 82, 83, 84, 85, 86, 87, 88, 89, 90, 91, 92, 93, 94, 95, 96, 97, 98, 99, 100, 101, 102, 103, 104, 105, 106, 107, 108, 109, 110, 111, 112, 113, 114, 115, 116, 117, 118, 119, 120, 121, 122, 123, 124, 125, 126, 127, 128, 129, 130, 131, 132, 133, 134, 135, 136, 137, 138, 139, 140, 141, 142, 143, 144, 145, 146, 147, 148, 149, 150, 151, 152, 153, 154, 155, 156, 157, 158, 159, 160, 161, 162, 163, 164, 165, 166, 167, 168, 169, 170, 171, 172, 173, 174, 175, 176, 177, 178, 179, 180, 181, 182, 183, 184, 185, 186, 187, 188, 189, 190, 191, 192, 193, 194, 195, 196, 197, 198, 199, 200, 201, 202, 203, 204, 205, 206, 207, 208, 209, 210, 211, 212, 213, 214, 215, 216, 217, 218, 219, 220, 221, 222, 223, 224, 225, 226, 227, 228, 229, 230, 231, 232, 233, 234, 235, 236, 237, 238, 239, 240, 241, 242, 243, 244, 245, 246, 247, 248, 249, 250, 251, 252, 253, 254, 255, 256, 257, 258, 259, 260, 261, 262, 263, 264, 265, 266, 267, 268, 269, 270, 271, 272, 273, 274, 275, 276, 277, 278, 279, 280, 281, 282, 283, 284, 285, 286, 287, 288, 289, 290, 291, 292, 293, 294, 295, 296, 297, 298, 299, 300, 301, 302, 303, 304, 305, 306, 307, 308, 309, 310, 311, 312, 313, 314, 315, 316, 317, 318, 319, 320, 321, 322, 323, 324, 325, 326, 327, 328, 329, 330, 331, 332, 333, 334, 335, 336, 337, 338, 339, 340, 341, 342, 343, 344, 345, 346, 347, 348, 349, 350, 351, 352, 353, 354, 355, 356, 357, 358, 359, 360, 361, 362, 363, 364, 365, 366, 367, 368, 369, 370, 371, 372, 373, 374, 375, 376, 377, 378, 379, 380, 381, 382, 383, 384, 385, 386, 387, 388, 389, 390, 391, 392, 393, 394, 395, 396, 397, 398, 399, 400, 401, 402, 403, 404, 405, 406, 407, 408, 409, 410, 411, 412, 413, 414, 415, 416, 417, 418, 419, 420, 421, 422, 423, 424, 425, 426, 427, 428, 429, 430, 431, 432, 433, 434, 435, 436, 437, 438, 439, 440, 441, 442, 443, 444, 445, 446, 447, 448, 449, 450, 451, 452, 453, 454, 455, 456, 457, 458, 459, 460, 461, 462],
      "AcquisitionTime": ["191150.625000", "191152.115000", "191153.605000", "191155.095000", "191156.585000", "191158.075000", "191159.565000", "191201.055000", "191202.545000", "191204.035000", "191205.525000", "191207.015000", "191208.505000", "191209.995000", "191211.485000", "191212.975000", "191214.465000", "191215.955000", "191217.445000", "191218.935000", "191220.425000", "191221.915000", "191223.405000", "191224.895000", "191226.385000", "191227.875000", "191229.365000", "191230.855000", "191232.345000", "191233.835000", "191235.325000", "191236.815000", "191238.305000", "191239.795000", "191241.285000", "191242.775000", "191244.265000", "191245.755000", "191247.245000", "191248.735000", "191250.225000", "191251.715000", "191253.205000", "191254.695000", "191256.185000", "191257.675000", "191259.165000", "191300.655000", "191302.145000", "191303.635000", "191305.125000", "191306.615000", "191308.105000", "191309.595000", "191311.085000", "191312.575000", "191314.065000", "191315.555000", "191317.045000", "191318.535000", "191320.025000", "191321.515000", "191323.005000", "191324.495000", "191325.985000", "191327.475000", "191328.965000", "191330.455000", "191331.945000", "191333.435000", "191334.925000", "191336.415000", "191337.905000", "191339.395000", "191340.885000", "191342.375000", "191343.865000", "191345.355000", "191346.845000", "191348.335000", "191349.825000", "191351.315000", "191352.805000", "191354.295000", "191355.785000", "191357.275000", "191358.765000", "191400.255000", "191401.745000", "191403.235000", "191404.725000", "191406.215000", "191407.705000", "191409.195000", "191410.685000", "191412.175000", "191413.665000", "191415.155000", "191416.645000", "191418.135000", "191419.625000", "191421.115000", "191422.605000", "191424.095000", "191425.585000", "191427.075000", "191428.565000", "191430.055000", "191431.545000", "191433.035000", "191434.525000", "191436.015000", "191437.505000", "191438.995000", "191440.485000", "191441.975000", "191443.465000", "191444.955000", "191446.445000", "191447.935000", "191449.425000", "191450.915000", "191452.405000", "191453.895000", "191455.385000", "191456.875000", "191458.365000", "191459.855000", "191501.345000", "191502.835000", "191504.325000", "191505.815000", "191507.305000", "191508.795000", "191510.285000", "191511.775000", "191513.265000", "191514.755000", "191516.245000", "191517.735000", "191519.225000", "191520.715000", "191522.205000", "191523.695000", "191525.185000", "191526.675000", "191528.165000", "191529.655000", "191531.145000", "191532.635000", "191534.125000", "191535.615000", "191537.105000", "191538.595000", "191540.085000", "191541.575000", "191543.065000", "191544.555000", "191546.045000", "191547.535000", "191549.025000", "191550.515000", "191552.005000", "191553.495000", "191554.985000", "191556.475000", "191557.965000", "191559.455000", "191600.945000", "191602.435000", "191603.925000", "191605.415000", "191606.905000", "191608.395000", "191609.885000", "191611.375000", "191612.865000", "191614.355000", "191615.845000", "191617.335000", "191618.825000", "191620.315000", "191621.805000", "191623.295000", "191624.785000", "191626.275000", "191627.765000", "191629.255000", "191630.745000", "191632.235000", "191633.725000", "191635.215000", "191636.705000", "191638.195000", "191639.685000", "191641.175000", "191642.665000", "191644.155000", "191645.645000", "191647.135000", "191648.625000", "191650.115000", "191651.605000", "191653.095000", "191654.585000", "191656.075000", "191657.565000", "191659.055000", "191700.545000", "191702.035000", "191703.525000", "191705.015000", "191706.505000", "191707.995000", "191709.485000", "191710.975000", "191712.465000", "191713.955000", "191715.445000", "191716.935000", "191718.425000", "191719.915000", "191721.405000", "191722.895000", "191724.385000", "191725.875000", "191727.365000", "191728.855000", "191730.345000", "191731.835000", "191733.325000", "191734.815000", "191736.305000", "191737.795000", "191739.285000", "191740.775000", "191742.265000", "191743.755000", "191745.245000", "191746.735000", "191748.225000", "191749.715000", "191751.205000", "191752.695000", "191754.185000", "191755.675000", "191757.165000", "191758.655000", "191800.145000", "191801.635000", "191803.125000", "191804.615000", "191806.105000", "191807.595000", "191809.085000", "191810.575000", "191812.065000", "191813.555000", "191815.045000", "191816.535000", "191818.025000", "191819.515000", "191821.005000", "191822.495000", "191823.985000", "191825.475000", "191826.965000", "191828.455000", "191829.945000", "191831.435000", "191832.925000", "191834.415000", "191835.905000", "191837.395000", "191838.885000", "191840.375000", "191841.865000", "191843.355000", "191844.845000", "191846.335000", "191847.825000", "191849.315000", "191850.805000", "191852.295000", "191853.785000", "191855.275000", "191856.765000", "191858.255000", "191859.745000", "191901.235000", "191902.725000", "191904.215000", "191905.705000", "191907.195000", "191908.685000", "191910.175000", "191911.665000", "191913.155000", "191914.645000", "191916.135000", "191917.625000", "191919.115000", "191920.605000", "191922.095000", "191923.585000", "191925.075000", "191926.565000", "191928.055000", "191929.545000", "191931.035000", "191932.525000", "191934.015000", "191935.505000", "191936.995000", "191938.485000", "191939.975000", "191941.465000", "191942.955000", "191944.445000", "191945.935000", "191947.425000", "191948.915000", "191950.405000", "191951.895000", "191953.385000", "191954.875000", "191956.365000", "191957.855000", "191959.345000", "192000.835000", "192002.325000", "192003.815000", "192005.305000", "192006.795000", "192008.285000", "192009.775000", "192011.265000", "192012.755000", "192014.245000", "192015.735000", "192017.225000", "192018.715000", "192020.205000", "192021.695000", "192023.185000", "192024.675000", "192026.165000", "192027.655000", "192029.145000", "192030.635000", "192032.125000", "192033.615000", "192035.105000", "192036.595000", "192038.085000", "192039.575000", "192041.065000", "192042.555000", "192044.045000", "192045.535000", "192047.025000", "192048.515000", "192050.005000", "192051.495000", "192052.985000", "192054.475000", "192055.965000", "192057.455000", "192058.945000", "192100.435000", "192101.925000", "192103.415000", "192104.905000", "192106.395000", "192107.885000", "192109.375000", "192110.865000", "192112.355000", "192113.845000", "192115.335000", "192116.825000", "192118.315000", "192119.805000", "192121.295000", "192122.785000", "192124.275000", "192125.765000", "192127.255000", "192128.745000", "192130.235000", "192131.725000", "192133.215000", "192134.705000", "192136.195000", "192137.685000", "192139.175000", "192140.665000", "192142.155000", "192143.645000", "192145.135000", "192146.625000", "192148.115000", "192149.605000", "192151.095000", "192152.585000", "192154.075000", "192155.565000", "192157.055000", "192158.545000", "192200.035000", "192201.525000", "192203.015000", "192204.505000", "192205.995000", "192207.485000", "192208.975000", "192210.465000", "192211.955000", "192213.445000", "192214.935000", "192216.425000", "192217.915000", "192219.405000", "192220.895000", "192222.385000", "192223.875000", "192225.365000", "192226.855000", "192228.345000", "192229.835000", "192231.325000", "192232.815000", "192234.305000", "192235.795000", "192237.285000", "192238.775000", "192240.265000", "192241.755000", "192243.245000", "192244.735000", "192246.225000", "192247.715000", "192249.205000", "192250.695000", "192252.185000", "192253.675000", "192255.165000", "192256.655000", "192258.145000", "192259.635000", "192301.125000", "192302.615000", "192304.105000", "192305.595000", "192307.085000", "192308.575000", "192310.065000", "192311.555000", "192313.045000", "192314.535000", "192316.025000", "192317.515000"],
      "ContentTime": ["191308.035000", "191308.038000", "191308.041000", "191308.044000", "191308.047000", "191308.050000", "191308.053000", "191308.056000", "191308.064000", "191308.067000", "191308.071000", "191308.074000", "191308.077000", "191308.080000", "191308.083000", "191308.086000", "191308.089000", "191308.095000", "191308.098000", "191308.101000", "191308.104000", "191308.106000", "191308.109000", "191328.005000", "191328.008000", "191328.026000", "191328.029000", "191328.032000", "191328.035000", "191328.038000", "191328.041000", "191328.044000", "191328.047000", "191328.049000", "191328.052000", "191328.055000", "191328.058000", "191328.061000", "191328.064000", "191328.067000", "191328.070000", "191328.072000", "191328.075000", "191348.005000", "191348.008000", "191348.011000", "191348.014000", "191348.017000", "191348.020000", "191348.022000", "191348.025000", "191348.028000", "191348.031000", "191348.034000", "191348.037000", "191348.040000", "191348.043000", "191348.046000", "191348.049000", "191348.052000", "191348.054000", "191348.057000", "191348.070000", "191408.005000", "191408.008000", "191408.011000", "191408.014000", "191408.017000", "191408.020000", "191408.022000", "191408.025000", "191408.028000", "191408.031000", "191408.034000", "191408.037000", "191408.040000", "191408.043000", "191408.046000", "191408.049000", "191408.052000", "191408.055000", "191408.058000", "191408.061000", "191428.005000", "191428.008000", "191428.011000", "191428.014000", "191428.017000", "191428.020000", "191428.023000", "191428.026000", "191428.029000", "191428.032000", "191428.035000", "191428.038000", "191428.041000", "191428.044000", "191428.046000", "191428.049000", "191428.052000", "191428.055000", "191428.058000", "191428.061000", "191508.006000", "191508.009000", "191508.012000", "191508.015000", "191508.018000", "191508.021000", "191508.023000", "191508.026000", "191508.029000", "191508.032000", "191508.035000", "191508.038000", "191508.041000", "191508.044000", "191508.047000", "191508.050000", "191508.052000", "191508.055000", "191508.058000", "191508.061000", "191508.064000", "191508.067000", "191508.070000", "191508.073000", "191508.076000", "191508.079000", "191508.081000", "191508.084000", "191508.087000", "191548.005000", "191548.008000", "191548.011000", "191548.014000", "191548.017000", "191548.020000", "191548.023000", "191548.026000", "191548.029000", "191548.032000", "191548.035000", "191548.038000", "191548.041000", "191548.044000", "191548.047000", "191548.050000", "191548.053000", "191548.056000", "191548.059000", "191548.062000", "191548.065000", "191548.068000", "191548.071000", "191548.074000", "191548.077000", "191548.080000", "191628.005000", "191628.008000", "191628.011000", "191628.014000", "191628.017000", "191628.020000", "191628.023000", "191628.025000", "191628.028000", "191628.031000", "191628.034000", "191628.037000", "191628.040000", "191628.043000", "191628.046000", "191628.048000", "191628.051000", "191628.054000", "191628.057000", "191628.060000", "191628.063000", "191628.066000", "191628.069000", "191628.072000", "191628.075000", "191628.077000", "191628.080000", "191708.005000", "191708.008000", "191708.011000", "191708.014000", "191708.017000", "191708.020000", "191708.023000", "191708.025000", "191708.028000", "191708.031000", "191708.034000", "191708.037000", "191708.040000", "191708.043000", "191708.046000", "191708.049000", "191708.052000", "191708.055000", "191708.057000", "191708.060000", "191708.063000", "191708.066000", "191708.069000", "191708.072000", "191708.075000", "191708.078000", "191708.081000", "191748.006000", "191748.023000", "191748.026000", "191748.029000", "191748.032000", "191748.035000", "191748.038000", "191748.041000", "191748.044000", "191748.046000", "191748.049000", "191748.052000", "191748.055000", "191748.058000", "191748.061000", "191748.064000", "191748.067000", "191748.070000", "191748.073000", "191748.075000", "191748.078000", "191748.081000", "191748.084000", "191748.087000", "191748.090000", "191748.093000", "191748.096000", "191828.005000", "191828.008000", "191828.011000", "191828.014000", "191828.017000", "191828.020000", "191828.023000", "191828.026000", "191828.029000", "191828.032000", "191828.034000", "191828.037000", "191828.040000", "191828.043000", "191828.046000", "191828.049000", "191828.052000", "191828.055000", "191828.058000", "191828.061000", "191828.064000", "191828.066000", "191828.069000", "191828.072000", "191828.075000", "191828.078000", "191828.081000", "191908.005000", "191908.008000", "191908.011000", "191908.014000", "191908.017000", "191908.020000", "191908.023000", "191908.026000", "191908.029000", "191908.032000", "191908.035000", "191908.038000", "191908.041000", "191908.043000", "191908.046000", "191908.049000", "191908.052000", "191908.055000", "191908.058000", "191908.061000", "191908.069000", "191908.072000", "191908.075000", "191908.078000", "191908.081000", "191908.084000", "191908.087000", "191948.006000", "191948.009000", "191948.012000", "191948.015000", "191948.018000", "191948.021000", "191948.024000", "191948.027000", "191948.030000", "191948.032000", "191948.035000", "191948.038000", "191948.041000", "191948.044000", "191948.047000", "191948.050000", "191948.053000", "191948.056000", "191948.059000", "191948.062000", "191948.065000", "191948.068000", "191948.070000", "191948.073000", "191948.076000", "191948.079000", "191948.082000", "192028.006000", "192028.009000", "192028.012000", "192028.015000", "192028.018000", "192028.021000", "192028.024000", "192028.027000", "192028.030000", "192028.033000", "192028.036000", "192028.038000", "192028.041000", "192028.044000", "192028.047000", "192028.050000", "192028.053000", "192028.056000", "192028.060000", "192028.063000", "192028.065000", "192028.068000", "192028.071000", "192028.074000", "192028.077000", "192028.080000", "192108.005000", "192108.008000", "192108.011000", "192108.014000", "192108.017000", "192108.020000", "192108.023000", "192108.026000", "192108.029000", "192108.031000", "192108.034000", "192108.037000", "192108.040000", "192108.043000", "192108.046000", "192108.049000", "192108.052000", "192108.055000", "192108.058000", "192108.061000", "192108.064000", "192108.067000", "192108.070000", "192108.073000", "192108.076000", "192108.078000", "192108.081000", "192148.005000", "192148.008000", "192148.011000", "192148.014000", "192148.017000", "192148.020000", "192148.023000", "192148.026000", "192148.029000", "192148.032000", "192148.035000", "192148.038000", "192148.041000", "192148.043000", "192148.046000", "192148.049000", "192148.052000", "192148.055000", "192148.058000", "192148.061000", "192148.064000", "192148.067000", "192148.070000", "192148.072000", "192148.075000", "192148.078000", "192148.081000", "192228.006000", "192228.009000", "192228.028000", "192228.031000", "192228.034000", "192228.037000", "192228.040000", "192228.043000", "192228.046000", "192228.049000", "192228.052000", "192228.054000", "192228.057000", "192228.060000", "192228.063000", "192228.066000", "192228.069000", "192228.072000", "192228.075000", "192228.078000", "192228.081000", "192228.084000", "192228.086000", "192228.089000", "192228.092000", "192228.095000", "192228.098000", "192308.005000", "192308.008000", "192308.011000", "192308.014000", "192308.017000", "192308.020000", "192308.023000", "192308.026000", "192308.029000", "192308.032000", "192308.035000", "192308.038000", "192308.040000", "192308.043000", "192308.046000", "192308.049000", "192308.052000", "192308.055000", "192308.058000", "192308.061000", "192308.064000", "192308.067000", "192308.070000", "192308.072000", "192308.075000", "192308.078000", "192308.081000", "192319.554000", "192319.557000", "192319.560000", "192319.563000", "192319.567000", "192319.570000", "192319.573000", "192319.576000"],
