{
  "AcquisitionMatrixPE": 104,
  "AcquisitionNumber": 1,
  "AcquisitionTime": "19:23:46.940000",
  "BandwidthPerPixelPhaseEncode": 17.17,
  "BaseResolution": 104,
  "BodyPartExamined": "BRAIN",
  "CoilString": "HC1-7;NC1_2",
  "ConsistencyInfo": "N4_VE11C_LATEST_20160120",
  "ConversionSoftware": "dcm2niix",
  "ConversionSoftwareVersion": "v1.0.20190720  (JP2:OpenJPEG) GCC7.3.0",
  "DerivedVendorReportedEchoSpacing": 0.000560011,
  "DeviceSerialNumber": "167006",
  "DwellTime": 2.1e-06,
  "EchoTime": 0.037,
  "EchoTrainLength": 104,
  "EffectiveEchoSpacing": 0.000560011,
  "FlipAngle": 52,
  "ImageComments": "Unaliased_MB4_PE3_LB",
  "ImageOrientationPatientDICOM": [0.99942, -0.0251728, -0.0229465, 0.0148277, 0.928016, -0.372244],
  "ImageType": [
    "ORIGINAL",
    "PRIMARY",
    "M",
    "MB",
    "ND",
    "MOSAIC"
],
  "ImagingFrequency": 123.259,
  "InPlanePhaseEncodingDirectionDICOM": "COL",
  "InstitutionAddress": "Chemin_Queen-Mary_4565_Montreal_District_CA_H3W_1W5",
  "InstitutionName": "IUGM",
  "InstitutionalDepartmentName": "Department",
  "MRAcquisitionType": "2D",
  "MagneticFieldStrength": 3,
  "Manufacturer": "Siemens",
  "ManufacturersModelName": "Prisma_fit",
  "Modality": "MR",
  "MultibandAccelerationFactor": 4,
  "PartialFourier": 1,
  "PatientPosition": "HFS",
  "PercentPhaseFOV": 100,
  "PhaseEncodingDirection": "j",
  "PhaseEncodingSteps": 104,
  "PhaseResolution": 1,
  "PixelBandwidth": 2290,
  "ProcedureStepDescription": "video_friends",
  "ProtocolName": "func_task-s01e24a",
  "PulseSequenceDetails": "%CustomerSeq%_cmrr_mbep2d_bold",
  "ReceiveCoilActiveElements": "HC1-7;NC1,2",
  "ReceiveCoilName": "HeadNeck_64",
  "ReconMatrixPE": 104,
  "RepetitionTime": 1.49,
  "SAR": 0.0335284,
  "ScanOptions": "FS",
  "ScanningSequence": "EP",
  "SequenceName": "epfid2d1_104",
  "SequenceVariant": "SK_SS",
  "SeriesDescription": "func_task-s01e24a",
  "SeriesNumber": 17,
  "ShimSetting": [619, -7273, -8841, 436, 20, -456, 12, 47],
  "SliceThickness": 2,
  "SliceTiming": [0, 0.785, 0.0975, 0.8825, 0.195, 0.98, 0.295, 1.0775, 0.3925, 1.175, 0.49, 1.275, 0.5875, 1.3725, 0.685, 0, 0.785, 0.0975, 0.8825, 0.195, 0.98, 0.295, 1.0775, 0.3925, 1.175, 0.49, 1.275, 0.5875, 1.3725, 0.685, 0, 0.785, 0.0975, 0.8825, 0.195, 0.98, 0.295, 1.0775, 0.3925, 1.175, 0.49, 1.275, 0.5875, 1.3725, 0.685, 0, 0.785, 0.0975, 0.8825, 0.195, 0.98, 0.295, 1.0775, 0.3925, 1.175, 0.49, 1.275, 0.5875, 1.3725, 0.685],
  "SoftwareVersions": "syngo_MR_E11",
  "SpacingBetweenSlices": 2,
  "StationName": "MRC35049",
  "TaskName": "friends",
  "TotalReadoutTime": 0.0576811,
  "TxRefAmp": 232.158,
  "WipMemBlock": "3a4349f6-71ea-4c62-b083-7d17b8164846||Sequence: R016 ve11c/master r/e634e98; Dec 19 2017 11:00:25 by eja",
  "dcmmeta_affine": [
    [-1.9988394975662231, 0.02965542860329151, -0.061330344527959824, 99.73523712158203],
    [0.05034567788243294, 1.8560329675674438, -0.7433754801750183, -72.8251953125],
    [-0.04589300975203514, 0.7444879412651062, 1.8557024002075195, -68.38180541992188],
    [0.0, 0.0, 0.0, 1.0]
],
  "dcmmeta_reorient_transform": [
    [0.0, -1.0, 0.0, 103.0],
    [1.0, 0.0, 0.0, 0.0],
    [0.0, 0.0, 1.0, 0.0],
    [0.0, 0.0, 0.0, 1.0]
],
  "dcmmeta_shape": [104, 104, 60, 515],
  "dcmmeta_slice_dim": 2,
  "dcmmeta_version": 0.6,
  "global": {
    "const": {
      "AcquisitionMatrix": [104, 0, 0, 104],
      "AngioFlag": "N",
      "BitsAllocated": 16,
      "BitsStored": 16,
      "BodyPartExamined": "BRAIN",
      "Columns": 832,
      "EchoNumbers": 1,
      "EchoTime": 37.0,
      "EchoTrainLength": 104,
      "FlipAngle": 52.0,
      "HighBit": 15,
      "ImageOrientationPatient": [0.99941972467814, -0.0251728385403, -0.0229465057054, 0.01482771420554, 0.92801646488749, -0.3722439788488],
      "ImagePositionPatient": [-841.16187829886, -775.61635374013, 295.99912859584],
      "ImageType": [
        "ORIGINAL",
        "PRIMARY",
        "M",
        "MB",
        "ND",
        "MOSAIC"
],
      "ImagedNucleus": "1H",
      "ImagingFrequency": 123.259393,
      "InPlanePhaseEncodingDirection": "COL",
      "MRAcquisitionType": "2D",
      "MagneticFieldStrength": 3.0,
      "Manufacturer": "SIEMENS",
      "ManufacturerModelName": "Prisma_fit",
      "Modality": "MR",
      "NumberOfAverages": 1.0,
      "NumberOfPhaseEncodingSteps": 104,
      "PercentPhaseFieldOfView": 100.0,
      "PercentSampling": 100.0,
      "PerformedProcedureStepStartTime": "175528.350000",
      "PhotometricInterpretation": "MONOCHROME2",
      "PixelBandwidth": 2290.0,
      "PixelRepresentation": 0,
      "PixelSpacing": [2.0, 2.0],
      "ProtocolName": "func_task-s01e24a",
      "RepetitionTime": 1490.0,
      "Rows": 832,
      "SAR": 0.03352838980457,
      "SamplesPerPixel": 1,
      "ScanOptions": "FS",
      "ScanningSequence": "EP",
      "SequenceName": "epfid2d1_104",
      "SequenceVariant": [
        "SK",
        "SS"
],
      "SeriesDescription": "func_task-s01e24a",
      "SeriesNumber": 17,
      "SeriesTime": "192448.169000",
      "SliceLocation": -39.438305358726,
      "SliceThickness": 2.0,
      "SmallestImagePixelValue": 0,
      "SoftwareVersions": "syngo MR E11",
      "SpacingBetweenSlices": 1.9999999845052,
      "SpecificCharacterSet": "ISO_IR 100",
      "StudyID": "1",
      "StudyTime": "175528.284000",
      "TransmitCoilName": "Body",
      "VariableFlipAngleFlag": "N",
      "WindowCenterWidthExplanation": "Algo1",
      "dBdt": 0.0},
    "slices": {}
  },
  "time": {
    "samples": {
      "AcquisitionNumber": [1, 2, 3, 4, 5, 6, 7, 8, 9, 10, 11, 12, 13, 14, 15, 16, 17, 18, 19, 20, 21, 22, 23, 24, 25, 26, 27, 28, 29, 30, 31, 32, 33, 34, 35, 36, 37, 38, 39, 40, 41, 42, 43, 44, 45, 46, 47, 48, 49, 50, 51, 52, 53, 54, 55, 56, 57, 58, 59, 60, 61, 62, 63, 64, 65, 66, 67, 68, 69, 70, 71, 72, 73, 74, 75, 76, 77, 78, 79, 80, 81, 82, 83, 84, 85, 86, 87, 88, 89, 90, 91, 92, 93, 94, 95, 96, 97, 98, 99, 100, 101, 102, 103, 104, 105, 106, 107, 108, 109, 110, 111, 112, 113, 114, 115, 116, 117, 118, 119, 120, 121, 122, 123, 124, 125, 126, 127, 128, 129, 130, 131, 132, 133, 134, 135, 136, 137, 138, 139, 140, 141, 142, 143, 144, 145, 146, 147, 148, 149, 150, 151, 152, 153, 154, 155, 156, 157, 158, 159, 160, 161, 162, 163, 164, 165, 166, 167, 168, 169, 170, 171, 172, 173, 174, 175, 176, 177, 178, 179, 180, 181, 182, 183, 184, 185, 186, 187, 188, 189, 190, 191, 192, 193, 194, 195, 196, 197, 198, 199, 200, 201, 202, 203, 204, 205, 206, 207, 208, 209, 210, 211, 212, 213, 214, 215, 216, 217, 218, 219, 220, 221, 222, 223, 224, 225, 226, 227, 228, 229, 230, 231, 232, 233, 234, 235, 236, 237, 238, 239, 240, 241, 242, 243, 244, 245, 246, 247, 248, 249, 250, 251, 252, 253, 254, 255, 256, 257, 258, 259, 260, 261, 262, 263, 264, 265, 266, 267, 268, 269, 270, 271, 272, 273, 274, 275, 276, 277, 278, 279, 280, 281, 282, 283, 284, 285, 286, 287, 288, 289, 290, 291, 292, 293, 294, 295, 296, 297, 298, 299, 300, 301, 302, 303, 304, 305, 306, 307, 308, 309, 310, 311, 312, 313, 314, 315, 316, 317, 318, 319, 320, 321, 322, 323, 324, 325, 326, 327, 328, 329, 330, 331, 332, 333, 334, 335, 336, 337, 338, 339, 340, 341, 342, 343, 344, 345, 346, 347, 348, 349, 350, 351, 352, 353, 354, 355, 356, 357, 358, 359, 360, 361, 362, 363, 364, 365, 366, 367, 368, 369, 370, 371, 372, 373, 374, 375, 376, 377, 378, 379, 380, 381, 382, 383, 384, 385, 386, 387, 388, 389, 390, 391, 392, 393, 394, 395, 396, 397, 398, 399, 400, 401, 402, 403, 404, 405, 406, 407, 408, 409, 410, 411, 412, 413, 414, 415, 416, 417, 418, 419, 420, 421, 422, 423, 424, 425, 426, 427, 428, 429, 430, 431, 432, 433, 434, 435, 436, 437, 438, 439, 440, 441, 442, 443, 444, 445, 446, 447, 448, 449, 450, 451, 452, 453, 454, 455, 456, 457, 458, 459, 460, 461, 462, 463, 464, 465, 466, 467, 468, 469, 470, 471, 472, 473, 474, 475, 476, 477, 478, 479, 480, 481, 482, 483, 484, 485, 486, 487, 488, 489, 490, 491, 492, 493, 494, 495, 496, 497, 498, 499, 500, 501, 502, 503, 504, 505, 506, 507, 508, 509, 510, 511, 512, 513, 514, 515],
      "AcquisitionTime": ["192346.940000", "192348.430000", "192349.920000", "192351.410000", "192352.900000", "192354.390000", "192355.880000", "192357.370000", "192358.860000", "192400.350000", "192401.840000", "192403.330000", "192404.820000", "192406.310000", "192407.800000", "192409.290000", "192410.780000", "192412.270000", "192413.760000", "192415.250000", "192416.740000", "192418.230000", "192419.720000", "192421.210000", "192422.700000", "192424.190000", "192425.680000", "192427.170000", "192428.660000", "192430.150000", "192431.640000", "192433.130000", "192434.620000", "192436.110000", "192437.600000", "192439.090000", "192440.580000", "192442.070000", "192443.560000", "192445.050000", "192446.540000", "192448.030000", "192449.520000", "192451.010000", "192452.500000", "192453.990000", "192455.480000", "192456.970000", "192458.460000", "192459.950000", "192501.440000", "192502.930000", "192504.420000", "192505.910000", "192507.400000", "192508.890000", "192510.380000", "192511.870000", "192513.360000", "192514.850000", "192516.340000", "192517.830000", "192519.320000", "192520.810000", "192522.300000", "192523.790000", "192525.280000", "192526.770000", "192528.260000", "192529.750000", "192531.240000", "192532.730000", "192534.220000", "192535.710000", "192537.200000", "192538.690000", "192540.180000", "192541.670000", "192543.160000", "192544.650000", "192546.140000", "192547.630000", "192549.120000", "192550.610000", "192552.100000", "192553.590000", "192555.080000", "192556.570000", "192558.060000", "192559.550000", "192601.040000", "192602.530000", "192604.020000", "192605.510000", "192607.000000", "192608.490000", "192609.980000", "192611.470000", "192612.960000", "192614.450000", "192615.940000", "192617.430000", "192618.920000", "192620.410000", "192621.900000", "192623.390000", "192624.880000", "192626.370000", "192627.860000", "192629.350000", "192630.840000", "192632.330000", "192633.820000", "192635.310000", "192636.800000", "192638.290000", "192639.780000", "192641.270000", "192642.760000", "192644.250000", "192645.740000", "192647.230000", "192648.720000", "192650.210000", "192651.700000", "192653.190000", "192654.680000", "192656.170000", "192657.660000", "192659.150000", "192700.640000", "192702.130000", "192703.620000", "192705.110000", "192706.600000", "192708.090000", "192709.580000", "192711.070000", "192712.560000", "192714.050000", "192715.540000", "192717.030000", "192718.520000", "192720.010000", "192721.500000", "192722.990000", "192724.480000", "192725.970000", "192727.460000", "192728.950000", "192730.440000", "192731.930000", "192733.420000", "192734.910000", "192736.400000", "192737.890000", "192739.380000", "192740.870000", "192742.360000", "192743.850000", "192745.340000", "192746.830000", "192748.320000", "192749.810000", "192751.300000", "192752.790000", "192754.280000", "192755.770000", "192757.260000", "192758.750000", "192800.240000", "192801.730000", "192803.220000", "192804.710000", "192806.200000", "192807.690000", "192809.180000", "192810.670000", "192812.160000", "192813.650000", "192815.140000", "192816.630000", "192818.120000", "192819.610000", "192821.100000", "192822.590000", "192824.080000", "192825.570000", "192827.060000", "192828.550000", "192830.040000", "192831.530000", "192833.020000", "192834.510000", "192836.000000", "192837.490000", "192838.980000", "192840.470000", "192841.960000", "192843.450000", "192844.940000", "192846.430000", "192847.920000", "192849.410000", "192850.900000", "192852.390000", "192853.880000", "192855.370000", "192856.860000", "192858.350000", "192859.840000", "192901.330000", "192902.820000", "192904.310000", "192905.800000", "192907.290000", "192908.780000", "192910.270000", "192911.760000", "192913.250000", "192914.740000", "192916.230000", "192917.720000", "192919.210000", "192920.700000", "192922.190000", "192923.680000", "192925.170000", "192926.660000", "192928.150000", "192929.640000", "192931.130000", "192932.620000", "192934.110000", "192935.600000", "192937.090000", "192938.580000", "192940.070000", "192941.560000", "192943.050000", "192944.540000", "192946.030000", "192947.520000", "192949.010000", "192950.500000", "192951.990000", "192953.480000", "192954.970000", "192956.460000", "192957.950000", "192959.440000", "193000.930000", "193002.420000", "193003.910000", "193005.400000", "193006.890000", "193008.380000", "193009.870000", "193011.360000", "193012.850000", "193014.340000", "193015.830000", "193017.320000", "193018.810000", "193020.300000", "193021.790000", "193023.280000", "193024.770000", "193026.260000", "193027.750000", "193029.240000", "193030.730000", "193032.220000", "193033.710000", "193035.200000", "193036.690000", "193038.180000", "193039.670000", "193041.160000", "193042.650000", "193044.140000", "193045.630000", "193047.120000", "193048.610000", "193050.100000", "193051.590000", "193053.080000", "193054.570000", "193056.060000", "193057.550000", "193059.040000", "193100.530000", "193102.020000", "193103.510000", "193105.000000", "193106.490000", "193107.980000", "193109.470000", "193110.960000", "193112.450000", "193113.940000", "193115.430000", "193116.920000", "193118.410000", "193119.900000", "193121.390000", "193122.880000", "193124.370000", "193125.860000", "193127.350000", "193128.840000", "193130.330000", "193131.820000", "193133.310000", "193134.800000", "193136.290000", "193137.780000", "193139.270000", "193140.760000", "193142.250000", "193143.740000", "193145.230000", "193146.720000", "193148.210000", "193149.700000", "193151.190000", "193152.680000", "193154.170000", "193155.660000", "193157.150000", "193158.640000", "193200.130000", "193201.620000", "193203.110000", "193204.600000", "193206.090000", "193207.580000", "193209.070000", "193210.560000", "193212.050000", "193213.540000", "193215.030000", "193216.520000", "193218.010000", "193219.500000", "193220.990000", "193222.480000", "193223.970000", "193225.460000", "193226.950000", "193228.440000", "193229.930000", "193231.420000", "193232.910000", "193234.400000", "193235.890000", "193237.380000", "193238.870000", "193240.360000", "193241.850000", "193243.340000", "193244.830000", "193246.320000", "193247.810000", "193249.300000", "193250.790000", "193252.280000", "193253.770000", "193255.260000", "193256.750000", "193258.240000", "193259.730000", "193301.220000", "193302.710000", "193304.200000", "193305.690000", "193307.180000", "193308.670000", "193310.160000", "193311.650000", "193313.140000", "193314.630000", "193316.120000", "193317.610000", "193319.100000", "193320.590000", "193322.080000", "193323.570000", "193325.060000", "193326.550000", "193328.040000", "193329.530000", "193331.020000", "193332.510000", "193334.000000", "193335.490000", "193336.980000", "193338.470000", "193339.960000", "193341.450000", "193342.940000", "193344.430000", "193345.920000", "193347.410000", "193348.900000", "193350.390000", "193351.880000", "193353.370000", "193354.860000", "193356.350000", "193357.840000", "193359.330000", "193400.820000", "193402.310000", "193403.800000", "193405.290000", "193406.780000", "193408.270000", "193409.760000", "193411.250000", "193412.740000", "193414.230000", "193415.720000", "193417.210000", "193418.700000", "193420.190000", "193421.680000", "193423.170000", "193424.660000", "193426.150000", "193427.640000", "193429.130000", "193430.620000", "193432.110000", "193433.600000", "193435.090000", "193436.580000", "193438.070000", "193439.560000", "193441.050000", "193442.540000", "193444.030000", "193445.520000", "193447.010000", "193448.500000", "193449.990000", "193451.480000", "193452.970000", "193454.460000", "193455.950000", "193457.440000", "193458.930000", "193500.420000", "193501.910000", "193503.400000", "193504.890000", "193506.380000", "193507.870000", "193509.360000", "193510.850000", "193512.340000", "193513.830000", "193515.320000", "193516.810000", "193518.300000", "193519.790000", "193521.280000", "193522.770000", "193524.260000", "193525.750000", "193527.240000", "193528.730000", "193530.220000", "193531.710000", "193533.200000", "193534.690000", "193536.180000", "193537.670000", "193539.160000", "193540.650000", "193542.140000", "193543.630000", "193545.120000", "193546.610000", "193548.100000", "193549.590000", "193551.080000", "193552.570000", "193554.060000", "193555.550000", "193557.040000", "193558.530000", "193600.020000", "193601.510000", "193603.000000", "193604.490000", "193605.980000", "193607.470000", "193608.960000", "193610.450000", "193611.940000", "193613.430000", "193614.920000", "193616.410000", "193617.900000", "193619.390000", "193620.880000", "193622.370000", "193623.860000", "193625.350000", "193626.840000", "193628.330000", "193629.820000", "193631.310000", "193632.800000"],
      "ContentTime": ["192448.171000", "192448.175000", "192448.178000", "192448.181000", "192448.183000", "192508.134000", "192508.137000", "192508.140000", "192508.147000", "192508.150000", "192508.153000", "192508.156000", "192508.159000", "192508.161000", "192508.164000", "192508.167000", "192508.170000", "192508.173000", "192508.176000", "192508.179000", "192508.182000", "192508.185000", "192508.187000", "192508.190000", "192508.193000", "192528.133000", "192528.136000", "192528.139000", "192528.142000", "192528.144000", "192528.147000", "192528.150000", "192528.153000", "192528.156000", "192528.159000", "192528.162000", "192528.165000", "192528.167000", "192528.170000", "192528.173000", "192528.176000", "192528.179000", "192528.182000", "192528.185000", "192528.187000", "192548.133000", "192548.136000", "192548.139000", "192548.145000", "192548.148000", "192548.151000", "192548.154000", "192548.157000", "192548.160000", "192548.163000", "192548.166000", "192548.168000", "192548.171000", "192548.174000", "192548.177000", "192548.180000", "192548.183000", "192548.186000", "192548.189000", "192548.191000", "192608.133000", "192608.136000", "192608.139000", "192608.142000", "192608.145000", "192608.148000", "192608.150000", "192608.153000", "192608.156000", "192608.159000", "192608.162000", "192608.165000", "192608.168000", "192608.171000", "192608.175000", "192608.178000", "192608.181000", "192608.184000", "192608.186000", "192608.189000", "192628.133000", "192628.136000", "192628.139000", "192628.142000", "192628.145000", "192628.147000", "192628.150000", "192628.153000", "192628.156000", "192628.159000", "192628.162000", "192628.165000", "192628.168000", "192628.170000", "192628.173000", "192628.176000", "192628.179000", "192628.182000", "192628.185000", "192628.188000", "192628.191000", "192708.134000", "192708.137000", "192708.140000", "192708.143000", "192708.146000", "192708.149000", "192708.152000", "192708.154000", "192708.157000", "192708.160000", "192708.163000", "192708.166000", "192708.169000", "192708.172000", "192708.175000", "192708.178000", "192708.181000", "192708.184000", "192708.186000", "192708.189000", "192708.192000", "192708.195000", "192708.198000", "192708.201000", "192708.204000", "192708.207000", "192708.210000", "192708.225000", "192748.133000", "192748.136000", "192748.139000", "192748.142000", "192748.145000", "192748.148000", "192748.151000", "192748.153000", "192748.156000", "192748.159000", "192748.162000", "192748.165000", "192748.168000", "192748.171000", "192748.174000", "192748.177000", "192748.179000", "192748.182000", "192748.185000", "192748.188000", "192748.191000", "192748.194000", "192748.197000", "192748.200000", "192748.207000", "192748.210000", "192748.213000", "192828.133000", "192828.136000", "192828.139000", "192828.142000", "192828.145000", "192828.148000", "192828.151000", "192828.154000", "192828.157000", "192828.160000", "192828.163000", "192828.166000", "192828.169000", "192828.172000", "192828.174000", "192828.177000", "192828.180000", "192828.183000", "192828.186000", "192828.189000", "192828.192000", "192828.195000", "192828.198000", "192828.201000", "192828.204000", "192828.207000", "192828.210000", "192908.134000", "192908.137000", "192908.140000", "192908.143000", "192908.146000", "192908.149000", "192908.152000", "192908.155000", "192908.165000", "192908.168000", "192908.171000", "192908.174000", "192908.177000", "192908.180000", "192908.183000", "192908.186000", "192908.189000", "192908.192000", "192908.195000", "192908.198000", "192908.201000", "192908.205000", "192908.208000", "192908.211000", "192908.214000", "192908.217000", "192948.134000", "192948.137000", "192948.140000", "192948.143000", "192948.146000", "192948.149000", "192948.152000", "192948.155000", "192948.158000", "192948.161000", "192948.163000", "192948.166000", "192948.169000", "192948.172000", "192948.175000", "192948.178000", "192948.181000", "192948.184000", "192948.187000", "192948.190000", "192948.193000", "192948.196000", "192948.198000", "192948.201000", "192948.204000", "192948.207000", "192948.210000", "193028.133000", "193028.136000", "193028.139000", "193028.142000", "193028.145000", "193028.148000", "193028.151000", "193028.171000", "193028.173000", "193028.176000", "193028.179000", "193028.182000", "193028.185000", "193028.188000", "193028.191000", "193028.194000", "193028.197000", "193028.200000", "193028.203000", "193028.206000", "193028.209000", "193028.212000", "193028.215000", "193028.218000", "193028.221000", "193028.224000", "193028.227000", "193108.133000", "193108.136000", "193108.139000", "193108.142000", "193108.145000", "193108.148000", "193108.151000", "193108.154000", "193108.157000", "193108.159000", "193108.162000", "193108.165000", "193108.168000", "193108.171000", "193108.174000", "193108.177000", "193108.180000", "193108.183000", "193108.186000", "193108.189000", "193108.192000", "193108.194000", "193108.197000", "193108.200000", "193108.203000", "193108.206000", "193108.209000", "193148.134000", "193148.137000", "193148.140000", "193148.143000", "193148.146000", "193148.149000", "193148.152000", "193148.155000", "193148.158000", "193148.161000", "193148.164000", "193148.167000", "193148.170000", "193148.173000", "193148.176000", "193148.179000", "193148.182000", "193148.185000", "193148.188000", "193148.191000", "193148.194000", "193148.197000", "193148.200000", "193148.203000", "193148.205000", "193148.208000", "193148.212000", "193228.133000", "193228.136000", "193228.139000", "193228.142000", "193228.145000", "193228.148000", "193228.151000", "193228.154000", "193228.156000", "193228.159000", "193228.162000", "193228.165000", "193228.168000", "193228.171000", "193228.174000", "193228.177000", "193228.180000", "193228.183000", "193228.186000", "193228.189000", "193228.191000", "193228.194000", "193228.197000", "193228.200000", "193228.203000", "193228.206000", "193228.209000", "193308.133000", "193308.136000", "193308.139000", "193308.142000", "193308.145000", "193308.148000", "193308.151000", "193308.154000", "193308.157000", "193308.160000", "193308.163000", "193308.166000", "193308.169000", "193308.172000", "193308.175000", "193308.178000", "193308.181000", "193308.184000", "193308.187000", "193308.190000", "193308.193000", "193308.196000", "193308.199000", "193308.202000", "193308.205000", "193308.208000", "193348.134000", "193348.137000", "193348.140000", "193348.143000", "193348.146000", "193348.149000", "193348.152000", "193348.155000", "193348.158000", "193348.161000", "193348.164000", "193348.167000", "193348.170000", "193348.173000", "193348.176000", "193348.178000", "193348.181000", "193348.184000", "193348.187000", "193348.190000", "193348.193000", "193348.196000", "193348.199000", "193348.202000", "193348.205000", "193348.207000", "193348.210000", "193428.134000", "193428.137000", "193428.140000", "193428.143000", "193428.146000", "193428.149000", "193428.152000", "193428.155000", "193428.158000", "193428.160000", "193428.163000", "193428.166000", "193428.169000", "193428.172000", "193428.175000", "193428.178000", "193428.181000", "193428.184000", "193428.187000", "193428.190000", "193428.193000", "193428.196000", "193428.198000", "193428.201000", "193428.204000", "193428.207000", "193428.210000", "193508.133000", "193508.136000", "193508.139000", "193508.142000", "193508.145000", "193508.148000", "193508.151000", "193508.154000", "193508.157000", "193508.160000", "193508.163000", "193508.166000", "193508.169000", "193508.172000", "193508.174000", "193508.177000", "193508.180000", "193508.183000", "193508.186000", "193508.189000", "193508.192000", "193508.195000", "193508.198000", "193508.201000", "193508.204000", "193508.206000", "193508.209000", "193548.134000", "193548.137000", "193548.140000", "193548.143000", "193548.146000", "193548.149000", "193548.152000", "193548.155000", "193548.158000", "193548.161000", "193548.164000", "193548.167000", "193548.170000", "193548.173000", "193548.176000", "193548.179000", "193548.182000", "193548.185000", "193548.188000", "193548.191000", "193548.194000", "193548.196000", "193548.199000", "193548.202000", "193548.205000", "193548.208000", "193548.211000", "193628.134000", "193628.137000", "193628.140000", "193628.143000", "193628.146000", "193628.149000", "193628.152000", "193628.155000", "193628.157000", "193628.160000", "193628.163000", "193628.166000", "193628.169000", "193628.172000", "193628.175000", "193628.178000", "193628.181000", "193628.184000", "193628.187000", "193628.190000", "193628.192000", "193628.195000", "193628.198000", "193628.201000", "193628.204000", "193628.207000", "193628.219000", "193635.393000", "193635.397000", "193635.400000", "193635.403000", "193635.406000"],
