{
  "AcquisitionMatrixPE": 104,
  "AcquisitionNumber": 1,
  "AcquisitionTime": "11:54:39.397500",
  "BandwidthPerPixelPhaseEncode": 17.17,
  "BaseResolution": 104,
  "BodyPartExamined": "BRAIN",
  "CoilString": "HC1-7;NC1_2",
  "ConsistencyInfo": "N4_VE11C_LATEST_20160120",
  "ConversionSoftware": "dcm2niix",
  "ConversionSoftwareVersion": "v1.0.20190902",
  "DerivedVendorReportedEchoSpacing": 0.000560011,
  "DeviceSerialNumber": "167006",
  "DwellTime": 2.1e-06,
  "EchoTime": 0.037,
  "EchoTrainLength": 104,
  "EffectiveEchoSpacing": 0.000560011,
  "FlipAngle": 52,
  "HeudiconvVersion": "0.10.0",
  "ImageComments": "Unaliased_MB4_PE3_LB",
  "ImageOrientationPatientDICOM": [0.996661, 0.0753659, 0.0314289, -0.057118, 0.918507, -0.391258],
  "ImageType": [
    "ORIGINAL",
    "PRIMARY",
    "M",
    "MB",
    "ND",
    "MOSAIC"
],
  "ImagingFrequency": 123.259,
  "InPlanePhaseEncodingDirectionDICOM": "COL",
  "InstitutionAddress": "Chemin_Queen-Mary_4565_Montreal_District_CA_H3W_1W5",
  "InstitutionName": "IUGM",
  "InstitutionalDepartmentName": "Department",
  "MRAcquisitionType": "2D",
  "MagneticFieldStrength": 3,
  "Manufacturer": "Siemens",
  "ManufacturersModelName": "Prisma_fit",
  "Modality": "MR",
  "MultibandAccelerationFactor": 4,
  "PartialFourier": 1,
  "PatientPosition": "HFS",
  "PercentPhaseFOV": 100,
  "PhaseEncodingDirection": "j",
  "PhaseEncodingSteps": 104,
  "PhaseResolution": 1,
  "PixelBandwidth": 2290,
  "ProcedureStepDescription": "video_friends",
  "ProtocolName": "func_task-friends-s05e10b",
  "PulseSequenceDetails": "%CustomerSeq%_cmrr_mbep2d_bold",
  "ReceiveCoilActiveElements": "HC1-7;NC1,2",
  "ReceiveCoilName": "HeadNeck_64",
  "ReconMatrixPE": 104,
  "RepetitionTime": 1.49,
  "SAR": 0.04028,
  "ScanOptions": "FS",
  "ScanningSequence": "EP",
  "SequenceName": "epfid2d1_104",
  "SequenceVariant": "SK_SS",
  "SeriesDescription": "func_task-friends-s05e10b",
  "SeriesNumber": 15,
  "ShimSetting": [630, -7187, -8811, 663, 69, -67, -56, -21],
  "SliceThickness": 2,
  "SliceTiming": [0, 0.7825, 0.0975, 0.8825, 0.195, 0.98, 0.2925, 1.0775, 0.3925, 1.175, 0.49, 1.2725, 0.5875, 1.3725, 0.685, 0, 0.7825, 0.0975, 0.8825, 0.195, 0.98, 0.2925, 1.0775, 0.3925, 1.175, 0.49, 1.2725, 0.5875, 1.3725, 0.685, 0, 0.7825, 0.0975, 0.8825, 0.195, 0.98, 0.2925, 1.0775, 0.3925, 1.175, 0.49, 1.2725, 0.5875, 1.3725, 0.685, 0, 0.7825, 0.0975, 0.8825, 0.195, 0.98, 0.2925, 1.0775, 0.3925, 1.175, 0.49, 1.2725, 0.5875, 1.3725, 0.685],
  "SoftwareVersions": "syngo_MR_E11",
  "SpacingBetweenSlices": 2,
  "StationName": "MRC35049",
  "TaskName": "s05e10b",
  "TotalReadoutTime": 0.0576811,
  "TxRefAmp": 259.841,
  "WipMemBlock": "77dfb267-9ace-4e10-a31c-304bd29b59dc||Sequence: R016 ve11c/master r/e634e98; Dec 19 2017 11:00:25 by eja",
  "dcmmeta_affine": [
    [-1.9933210611343384, -0.11423607170581818, 0.11671032011508942, 105.887451171875],
    [-0.15073183178901672, 1.8370133638381958, -0.7763128280639648, -58.90884780883789],
    [0.0628577470779419, 0.782516360282898, 1.8394882678985596, -70.02803802490234],
    [0.0, 0.0, 0.0, 1.0]
],
  "dcmmeta_reorient_transform": [
    [0.0, -1.0, 0.0, 103.0],
    [1.0, 0.0, 0.0, 0.0],
    [0.0, 0.0, 1.0, 0.0],
    [0.0, 0.0, 0.0, 1.0]
],
  "dcmmeta_shape": [104, 104, 60, 484],
  "dcmmeta_slice_dim": 2,
  "dcmmeta_version": 0.6,
  "global": {
    "const": {
      "AcquisitionMatrix": [104, 0, 0, 104],
      "AngioFlag": "N",
      "BitsAllocated": 16,
      "BitsStored": 16,
      "BodyPartExamined": "BRAIN",
      "Columns": 832,
      "EchoNumbers": 1,
      "EchoTime": 37.0,
      "EchoTrainLength": 104,
      "FlipAngle": 52.0,
      "HighBit": 15,
      "ImageOrientationPatient": [0.99666052650338, 0.07536591273784, 0.03142887378204, -0.0571180371561, 0.91850670991727, -0.3912581675421],
      "ImagePositionPatient": [-778.10806543134, -853.8428026887, 272.52687339407],
      "ImageType": [
        "ORIGINAL",
        "PRIMARY",
        "M",
        "MB",
        "ND",
        "MOSAIC"
],
      "ImagedNucleus": "1H",
      "ImagingFrequency": 123.258857,
      "InPlanePhaseEncodingDirection": "COL",
      "MRAcquisitionType": "2D",
      "MagneticFieldStrength": 3.0,
      "Manufacturer": "SIEMENS",
      "ManufacturerModelName": "Prisma_fit",
      "Modality": "MR",
      "NumberOfAverages": 1.0,
      "NumberOfPhaseEncodingSteps": 104,
      "PercentPhaseFieldOfView": 100.0,
      "PercentSampling": 100.0,
      "PerformedProcedureStepStartTime": "103831.729000",
      "PhotometricInterpretation": "MONOCHROME2",
      "PixelBandwidth": 2290.0,
      "PixelRepresentation": 0,
      "PixelSpacing": [2.0, 2.0],
      "ProtocolName": "func_task-friends-s05e10b",
      "RepetitionTime": 1490.0,
      "Rows": 832,
      "SAR": 0.04027996525752,
      "SamplesPerPixel": 1,
      "ScanOptions": "FS",
      "ScanningSequence": "EP",
      "SequenceName": "epfid2d1_104",
      "SequenceVariant": [
        "SK",
        "SS"
],
      "SeriesDescription": "func_task-friends-s05e10b",
      "SeriesNumber": 15,
      "SeriesTime": "115536.288000",
      "SliceLocation": -35.362947714714,
      "SliceThickness": 2.0,
      "SmallestImagePixelValue": 0,
      "SoftwareVersions": "syngo MR E11",
      "SpacingBetweenSlices": 2.0000000392527,
      "SpecificCharacterSet": "ISO_IR 100",
      "StudyID": "1",
      "StudyTime": "103831.671000",
      "TransmitCoilName": "Body",
      "VariableFlipAngleFlag": "N",
      "WindowCenterWidthExplanation": "Algo1",
      "dBdt": 0.0},
    "slices": {}
  },
  "time": {
    "samples": {
      "AcquisitionNumber": [1, 2, 3, 4, 5, 6, 7, 8, 9, 10, 11, 12, 13, 14, 15, 16, 17, 18, 19, 20, 21, 22, 23, 24, 25, 26, 27, 28, 29, 30, 31, 32, 33, 34, 35, 36, 37, 38, 39, 40, 41, 42, 43, 44, 45, 46, 47, 48, 49, 50, 51, 52, 53, 54, 55, 56, 57, 58, 59, 60, 61, 62, 63, 64, 65, 66, 67, 68, 69, 70, 71, 72, 73, 74, 75, 76, 77, 78, 79, 80, 81, 82, 83, 84, 85, 86, 87, 88, 89, 90, 91, 92, 93, 94, 95, 96, 97, 98, 99, 100, 101, 102, 103, 104, 105, 106, 107, 108, 109, 110, 111, 112, 113, 114, 115, 116, 117, 118, 119, 120, 121, 122, 123, 124, 125, 126, 127, 128, 129, 130, 131, 132, 133, 134, 135, 136, 137, 138, 139, 140, 141, 142, 143, 144, 145, 146, 147, 148, 149, 150, 151, 152, 153, 154, 155, 156, 157, 158, 159, 160, 161, 162, 163, 164, 165, 166, 167, 168, 169, 170, 171, 172, 173, 174, 175, 176, 177, 178, 179, 180, 181, 182, 183, 184, 185, 186, 187, 188, 189, 190, 191, 192, 193, 194, 195, 196, 197, 198, 199, 200, 201, 202, 203, 204, 205, 206, 207, 208, 209, 210, 211, 212, 213, 214, 215, 216, 217, 218, 219, 220, 221, 222, 223, 224, 225, 226, 227, 228, 229, 230, 231, 232, 233, 234, 235, 236, 237, 238, 239, 240, 241, 242, 243, 244, 245, 246, 247, 248, 249, 250, 251, 252, 253, 254, 255, 256, 257, 258, 259, 260, 261, 262, 263, 264, 265, 266, 267, 268, 269, 270, 271, 272, 273, 274, 275, 276, 277, 278, 279, 280, 281, 282, 283, 284, 285, 286, 287, 288, 289, 290, 291, 292, 293, 294, 295, 296, 297, 298, 299, 300, 301, 302, 303, 304, 305, 306, 307, 308, 309, 310, 311, 312, 313, 314, 315, 316, 317, 318, 319, 320, 321, 322, 323, 324, 325, 326, 327, 328, 329, 330, 331, 332, 333, 334, 335, 336, 337, 338, 339, 340, 341, 342, 343, 344, 345, 346, 347, 348, 349, 350, 351, 352, 353, 354, 355, 356, 357, 358, 359, 360, 361, 362, 363, 364, 365, 366, 367, 368, 369, 370, 371, 372, 373, 374, 375, 376, 377, 378, 379, 380, 381, 382, 383, 384, 385, 386, 387, 388, 389, 390, 391, 392, 393, 394, 395, 396, 397, 398, 399, 400, 401, 402, 403, 404, 405, 406, 407, 408, 409, 410, 411, 412, 413, 414, 415, 416, 417, 418, 419, 420, 421, 422, 423, 424, 425, 426, 427, 428, 429, 430, 431, 432, 433, 434, 435, 436, 437, 438, 439, 440, 441, 442, 443, 444, 445, 446, 447, 448, 449, 450, 451, 452, 453, 454, 455, 456, 457, 458, 459, 460, 461, 462, 463, 464, 465, 466, 467, 468, 469, 470, 471, 472, 473, 474, 475, 476, 477, 478, 479, 480, 481, 482, 483, 484],
      "AcquisitionTime": ["115439.397500", "115440.887500", "115442.377500", "115443.867500", "115445.357500", "115446.847500", "115448.337500", "115449.827500", "115451.317500", "115452.807500", "115454.297500", "115455.787500", "115457.277500", "115458.767500", "115500.257500", "115501.747500", "115503.237500", "115504.727500", "115506.217500", "115507.707500", "115509.197500", "115510.687500", "115512.177500", "115513.667500", "115515.157500", "115516.647500", "115518.137500", "115519.627500", "115521.117500", "115522.607500", "115524.097500", "115525.587500", "115527.077500", "115528.567500", "115530.057500", "115531.547500", "115533.037500", "115534.527500", "115536.017500", "115537.507500", "115538.997500", "115540.487500", "115541.977500", "115543.467500", "115544.957500", "115546.447500", "115547.937500", "115549.427500", "115550.917500", "115552.407500", "115553.897500", "115555.387500", "115556.877500", "115558.367500", "115559.857500", "115601.347500", "115602.837500", "115604.327500", "115605.817500", "115607.307500", "115608.797500", "115610.287500", "115611.777500", "115613.267500", "115614.757500", "115616.247500", "115617.737500", "115619.227500", "115620.717500", "115622.207500", "115623.697500", "115625.187500", "115626.677500", "115628.167500", "115629.657500", "115631.147500", "115632.637500", "115634.127500", "115635.617500", "115637.107500", "115638.597500", "115640.087500", "115641.577500", "115643.067500", "115644.557500", "115646.047500", "115647.537500", "115649.027500", "115650.517500", "115652.007500", "115653.497500", "115654.987500", "115656.477500", "115657.967500", "115659.457500", "115700.947500", "115702.437500", "115703.927500", "115705.417500", "115706.907500", "115708.397500", "115709.887500", "115711.377500", "115712.867500", "115714.357500", "115715.847500", "115717.337500", "115718.827500", "115720.317500", "115721.807500", "115723.297500", "115724.787500", "115726.277500", "115727.767500", "115729.257500", "115730.747500", "115732.237500", "115733.727500", "115735.217500", "115736.707500", "115738.197500", "115739.687500", "115741.177500", "115742.667500", "115744.157500", "115745.647500", "115747.137500", "115748.627500", "115750.117500", "115751.607500", "115753.097500", "115754.587500", "115756.077500", "115757.567500", "115759.057500", "115800.547500", "115802.037500", "115803.527500", "115805.017500", "115806.507500", "115807.997500", "115809.487500", "115810.977500", "115812.467500", "115813.957500", "115815.447500", "115816.937500", "115818.427500", "115819.917500", "115821.407500", "115822.897500", "115824.387500", "115825.877500", "115827.367500", "115828.857500", "115830.347500", "115831.837500", "115833.327500", "115834.817500", "115836.307500", "115837.797500", "115839.287500", "115840.777500", "115842.267500", "115843.757500", "115845.247500", "115846.737500", "115848.227500", "115849.717500", "115851.207500", "115852.697500", "115854.187500", "115855.677500", "115857.167500", "115858.657500", "115900.147500", "115901.637500", "115903.127500", "115904.617500", "115906.107500", "115907.597500", "115909.087500", "115910.577500", "115912.067500", "115913.557500", "115915.047500", "115916.537500", "115918.027500", "115919.517500", "115921.007500", "115922.497500", "115923.987500", "115925.477500", "115926.967500", "115928.457500", "115929.947500", "115931.437500", "115932.927500", "115934.417500", "115935.907500", "115937.397500", "115938.887500", "115940.377500", "115941.867500", "115943.357500", "115944.847500", "115946.337500", "115947.827500", "115949.317500", "115950.807500", "115952.297500", "115953.787500", "115955.277500", "115956.767500", "115958.257500", "115959.747500", "120001.237500", "120002.727500", "120004.217500", "120005.707500", "120007.197500", "120008.687500", "120010.177500", "120011.667500", "120013.157500", "120014.647500", "120016.137500", "120017.627500", "120019.117500", "120020.607500", "120022.097500", "120023.587500", "120025.077500", "120026.567500", "120028.057500", "120029.547500", "120031.037500", "120032.527500", "120034.017500", "120035.507500", "120036.997500", "120038.487500", "120039.977500", "120041.467500", "120042.957500", "120044.447500", "120045.937500", "120047.427500", "120048.917500", "120050.407500", "120051.897500", "120053.387500", "120054.877500", "120056.367500", "120057.857500", "120059.347500", "120100.837500", "120102.327500", "120103.817500", "120105.307500", "120106.797500", "120108.287500", "120109.777500", "120111.267500", "120112.757500", "120114.247500", "120115.737500", "120117.227500", "120118.717500", "120120.207500", "120121.697500", "120123.187500", "120124.677500", "120126.167500", "120127.657500", "120129.147500", "120130.637500", "120132.127500", "120133.617500", "120135.107500", "120136.597500", "120138.087500", "120139.577500", "120141.067500", "120142.557500", "120144.047500", "120145.537500", "120147.027500", "120148.517500", "120150.007500", "120151.497500", "120152.987500", "120154.477500", "120155.967500", "120157.457500", "120158.947500", "120200.437500", "120201.927500", "120203.417500", "120204.907500", "120206.397500", "120207.887500", "120209.377500", "120210.867500", "120212.357500", "120213.847500", "120215.337500", "120216.827500", "120218.317500", "120219.807500", "120221.297500", "120222.787500", "120224.277500", "120225.767500", "120227.257500", "120228.747500", "120230.237500", "120231.727500", "120233.217500", "120234.707500", "120236.197500", "120237.687500", "120239.177500", "120240.667500", "120242.157500", "120243.647500", "120245.137500", "120246.627500", "120248.117500", "120249.607500", "120251.097500", "120252.587500", "120254.077500", "120255.567500", "120257.057500", "120258.547500", "120300.037500", "120301.527500", "120303.017500", "120304.507500", "120305.997500", "120307.487500", "120308.977500", "120310.467500", "120311.957500", "120313.447500", "120314.937500", "120316.427500", "120317.917500", "120319.407500", "120320.897500", "120322.387500", "120323.877500", "120325.367500", "120326.857500", "120328.347500", "120329.837500", "120331.327500", "120332.817500", "120334.307500", "120335.797500", "120337.287500", "120338.777500", "120340.267500", "120341.757500", "120343.247500", "120344.737500", "120346.227500", "120347.717500", "120349.207500", "120350.697500", "120352.187500", "120353.677500", "120355.167500", "120356.657500", "120358.147500", "120359.637500", "120401.127500", "120402.617500", "120404.107500", "120405.597500", "120407.087500", "120408.577500", "120410.067500", "120411.557500", "120413.047500", "120414.537500", "120416.027500", "120417.517500", "120419.007500", "120420.497500", "120421.987500", "120423.477500", "120424.967500", "120426.457500", "120427.947500", "120429.437500", "120430.927500", "120432.417500", "120433.907500", "120435.397500", "120436.887500", "120438.377500", "120439.867500", "120441.357500", "120442.847500", "120444.337500", "120445.827500", "120447.317500", "120448.807500", "120450.297500", "120451.787500", "120453.277500", "120454.767500", "120456.257500", "120457.747500", "120459.237500", "120500.727500", "120502.217500", "120503.707500", "120505.197500", "120506.687500", "120508.177500", "120509.667500", "120511.157500", "120512.647500", "120514.137500", "120515.627500", "120517.117500", "120518.607500", "120520.097500", "120521.587500", "120523.077500", "120524.567500", "120526.057500", "120527.547500", "120529.037500", "120530.527500", "120532.017500", "120533.507500", "120534.997500", "120536.487500", "120537.977500", "120539.467500", "120540.957500", "120542.447500", "120543.937500", "120545.427500", "120546.917500", "120548.407500", "120549.897500", "120551.387500", "120552.877500", "120554.367500", "120555.857500", "120557.347500", "120558.837500", "120600.327500", "120601.817500", "120603.307500", "120604.797500", "120606.287500", "120607.777500", "120609.267500", "120610.757500", "120612.247500", "120613.737500", "120615.227500", "120616.717500", "120618.207500", "120619.697500", "120621.187500", "120622.677500", "120624.167500", "120625.657500", "120627.147500", "120628.637500", "120630.127500", "120631.617500", "120633.107500", "120634.597500", "120636.087500", "120637.577500", "120639.067500"],
      "ContentTime": ["115536.290000", "115536.294000", "115536.296000", "115556.245000", "115556.248000", "115556.251000", "115556.253000", "115556.256000", "115556.266000", "115556.269000", "115556.272000", "115556.274000", "115556.277000", "115556.280000", "115556.283000", "115556.290000", "115556.293000", "115556.296000", "115556.298000", "115556.301000", "115556.304000", "115556.307000", "115556.310000", "115616.244000", "115616.278000", "115616.281000", "115616.283000", "115616.286000", "115616.289000", "115616.292000", "115616.295000", "115616.298000", "115616.301000", "115616.303000", "115616.306000", "115616.309000", "115616.312000", "115616.315000", "115616.318000", "115616.320000", "115616.323000", "115616.331000", "115616.335000", "115636.245000", "115636.248000", "115636.251000", "115636.254000", "115636.256000", "115636.259000", "115636.262000", "115636.265000", "115636.268000", "115636.271000", "115636.273000", "115636.276000", "115636.279000", "115636.282000", "115636.285000", "115636.288000", "115636.291000", "115636.295000", "115636.298000", "115636.301000", "115636.304000", "115656.245000", "115656.257000", "115656.260000", "115656.263000", "115656.266000", "115656.268000", "115656.271000", "115656.274000", "115656.277000", "115656.280000", "115656.282000", "115656.285000", "115656.288000", "115656.291000", "115656.294000", "115656.297000", "115656.299000", "115656.302000", "115656.305000", "115656.308000", "115716.245000", "115716.248000", "115716.251000", "115716.254000", "115716.256000", "115716.259000", "115716.262000", "115716.265000", "115716.268000", "115716.271000", "115716.274000", "115716.276000", "115716.279000", "115716.282000", "115716.285000", "115716.288000", "115716.291000", "115716.293000", "115716.296000", "115716.299000", "115756.245000", "115756.248000", "115756.251000", "115756.254000", "115756.256000", "115756.259000", "115756.262000", "115756.265000", "115756.268000", "115756.271000", "115756.274000", "115756.276000", "115756.279000", "115756.282000", "115756.285000", "115756.288000", "115756.291000", "115756.293000", "115756.296000", "115756.299000", "115756.302000", "115756.305000", "115756.308000", "115756.310000", "115756.313000", "115756.317000", "115756.319000", "115836.244000", "115836.268000", "115836.271000", "115836.274000", "115836.277000", "115836.279000", "115836.282000", "115836.285000", "115836.288000", "115836.291000", "115836.294000", "115836.297000", "115836.299000", "115836.302000", "115836.305000", "115836.308000", "115836.311000", "115836.314000", "115836.316000", "115836.319000", "115836.322000", "115836.325000", "115836.328000", "115836.331000", "115836.334000", "115836.337000", "115836.339000", "115916.245000", "115916.248000", "115916.251000", "115916.254000", "115916.257000", "115916.260000", "115916.262000", "115916.265000", "115916.268000", "115916.271000", "115916.274000", "115916.277000", "115916.280000", "115916.283000", "115916.285000", "115916.288000", "115916.291000", "115916.294000", "115916.297000", "115916.300000", "115916.303000", "115916.306000", "115916.308000", "115916.311000", "115916.314000", "115916.317000", "115916.320000", "115956.245000", "115956.248000", "115956.251000", "115956.254000", "115956.257000", "115956.260000", "115956.263000", "115956.265000", "115956.268000", "115956.271000", "115956.274000", "115956.277000", "115956.280000", "115956.283000", "115956.286000", "115956.288000", "115956.291000", "115956.294000", "115956.297000", "115956.300000", "115956.303000", "115956.306000", "115956.309000", "115956.311000", "115956.314000", "115956.317000", "115956.320000", "120036.245000", "120036.248000", "120036.251000", "120036.254000", "120036.257000", "120036.260000", "120036.263000", "120036.265000", "120036.268000", "120036.287000", "120036.290000", "120036.293000", "120036.296000", "120036.299000", "120036.302000", "120036.305000", "120036.308000", "120036.311000", "120036.314000", "120036.317000", "120036.320000", "120036.323000", "120036.326000", "120036.329000", "120036.332000", "120036.335000", "120116.245000", "120116.248000", "120116.251000", "120116.254000", "120116.257000", "120116.260000", "120116.262000", "120116.265000", "120116.268000", "120116.271000", "120116.283000", "120116.286000", "120116.289000", "120116.292000", "120116.295000", "120116.298000", "120116.301000", "120116.304000", "120116.307000", "120116.310000", "120116.312000", "120116.315000", "120116.318000", "120116.321000", "120116.324000", "120116.327000", "120116.330000", "120156.245000", "120156.248000", "120156.251000", "120156.254000", "120156.257000", "120156.260000", "120156.262000", "120156.265000", "120156.268000", "120156.271000", "120156.274000", "120156.277000", "120156.280000", "120156.283000", "120156.286000", "120156.288000", "120156.291000", "120156.294000", "120156.297000", "120156.300000", "120156.303000", "120156.306000", "120156.308000", "120156.311000", "120156.314000", "120156.317000", "120156.320000", "120236.245000", "120236.255000", "120236.265000", "120236.268000", "120236.271000", "120236.274000", "120236.282000", "120236.285000", "120236.291000", "120236.303000", "120236.306000", "120236.316000", "120236.323000", "120236.327000", "120236.339000", "120236.342000", "120236.350000", "120236.359000", "120236.362000", "120236.365000", "120236.368000", "120236.371000", "120236.374000", "120236.377000", "120236.380000", "120236.383000", "120236.386000", "120316.244000", "120316.247000", "120316.250000", "120316.253000", "120316.256000", "120316.259000", "120316.262000", "120316.264000", "120316.267000", "120316.270000", "120316.273000", "120316.276000", "120316.279000", "120316.282000", "120316.285000", "120316.288000", "120316.291000", "120316.294000", "120316.297000", "120316.300000", "120316.303000", "120316.306000", "120316.308000", "120316.311000", "120316.314000", "120316.317000", "120316.320000", "120356.245000", "120356.248000", "120356.251000", "120356.254000", "120356.257000", "120356.260000", "120356.263000", "120356.266000", "120356.269000", "120356.272000", "120356.274000", "120356.277000", "120356.280000", "120356.283000", "120356.294000", "120356.297000", "120356.300000", "120356.303000", "120356.306000", "120356.309000", "120356.312000", "120356.314000", "120356.317000", "120356.320000", "120356.323000", "120356.326000", "120356.329000", "120436.245000", "120436.248000", "120436.255000", "120436.257000", "120436.260000", "120436.263000", "120436.266000", "120436.269000", "120436.272000", "120436.275000", "120436.278000", "120436.281000", "120436.284000", "120436.287000", "120436.290000", "120436.293000", "120436.295000", "120436.298000", "120436.301000", "120436.304000", "120436.307000", "120436.310000", "120436.313000", "120436.316000", "120436.319000", "120436.321000", "120436.324000", "120516.246000", "120516.249000", "120516.252000", "120516.255000", "120516.258000", "120516.273000", "120516.275000", "120516.278000", "120516.281000", "120516.284000", "120516.287000", "120516.290000", "120516.294000", "120516.297000", "120516.300000", "120516.303000", "120516.306000", "120516.309000", "120516.312000", "120516.315000", "120516.318000", "120516.321000", "120516.330000", "120516.333000", "120516.336000", "120516.339000", "120536.244000", "120536.247000", "120536.250000", "120536.253000", "120536.256000", "120536.259000", "120536.262000", "120536.265000", "120536.268000", "120536.271000", "120536.274000", "120536.277000", "120536.279000", "120536.282000", "120616.245000", "120616.248000", "120616.251000", "120616.254000", "120616.257000", "120616.260000", "120616.263000", "120616.266000", "120616.269000", "120616.272000", "120616.275000", "120616.277000", "120616.280000", "120616.283000", "120616.286000", "120616.289000", "120616.292000", "120616.295000", "120616.298000", "120616.301000", "120616.304000", "120616.307000", "120616.309000", "120616.312000", "120616.315000", "120616.318000", "120616.321000", "120641.528000", "120641.532000", "120641.534000", "120641.537000", "120641.554000", "120641.557000", "120641.560000", "120641.563000", "120641.566000", "120641.569000", "120641.571000", "120641.578000", "120641.581000", "120641.584000", "120641.587000", "120641.590000", "120641.593000"],
