{
  "AcquisitionMatrixPE": 104,
  "AcquisitionNumber": 1,
  "AcquisitionTime": "11:42:6.220000",
  "BandwidthPerPixelPhaseEncode": 17.17,
  "BaseResolution": 104,
  "BodyPartExamined": "BRAIN",
  "CoilString": "HC1-7;NC1_2",
  "ConsistencyInfo": "N4_VE11C_LATEST_20160120",
  "ConversionSoftware": "dcm2niix",
  "ConversionSoftwareVersion": "v1.0.20190902",
  "DerivedVendorReportedEchoSpacing": 0.000560011,
  "DeviceSerialNumber": "167006",
  "DwellTime": 2.1e-06,
  "EchoTime": 0.037,
  "EchoTrainLength": 104,
  "EffectiveEchoSpacing": 0.000560011,
  "FlipAngle": 52,
  "HeudiconvVersion": "0.10.0",
  "ImageComments": "Unaliased_MB4_PE3_LB",
  "ImageOrientationPatientDICOM": [0.996661, 0.0753659, 0.0314289, -0.057118, 0.918507, -0.391258],
  "ImageType": [
    "ORIGINAL",
    "PRIMARY",
    "M",
    "MB",
    "ND",
    "MOSAIC"
],
  "ImagingFrequency": 123.259,
  "InPlanePhaseEncodingDirectionDICOM": "COL",
  "InstitutionAddress": "Chemin_Queen-Mary_4565_Montreal_District_CA_H3W_1W5",
  "InstitutionName": "IUGM",
  "InstitutionalDepartmentName": "Department",
  "MRAcquisitionType": "2D",
  "MagneticFieldStrength": 3,
  "Manufacturer": "Siemens",
  "ManufacturersModelName": "Prisma_fit",
  "Modality": "MR",
  "MultibandAccelerationFactor": 4,
  "PartialFourier": 1,
  "PatientPosition": "HFS",
  "PercentPhaseFOV": 100,
  "PhaseEncodingDirection": "j",
  "PhaseEncodingSteps": 104,
  "PhaseResolution": 1,
  "PixelBandwidth": 2290,
  "ProcedureStepDescription": "video_friends",
  "ProtocolName": "func_task-friends-s05e10a",
  "PulseSequenceDetails": "%CustomerSeq%_cmrr_mbep2d_bold",
  "ReceiveCoilActiveElements": "HC1-7;NC1,2",
  "ReceiveCoilName": "HeadNeck_64",
  "ReconMatrixPE": 104,
  "RepetitionTime": 1.49,
  "SAR": 0.0402675,
  "ScanOptions": "FS",
  "ScanningSequence": "EP",
  "SequenceName": "epfid2d1_104",
  "SequenceVariant": "SK_SS",
  "SeriesDescription": "func_task-friends-s05e10a",
  "SeriesNumber": 13,
  "ShimSetting": [630, -7187, -8811, 663, 69, -67, -56, -21],
  "SliceThickness": 2,
  "SliceTiming": [0, 0.7825, 0.0975, 0.88, 0.195, 0.98, 0.2925, 1.0775, 0.3925, 1.175, 0.49, 1.2725, 0.5875, 1.37, 0.685, 0, 0.7825, 0.0975, 0.88, 0.195, 0.98, 0.2925, 1.0775, 0.3925, 1.175, 0.49, 1.2725, 0.5875, 1.37, 0.685, 0, 0.7825, 0.0975, 0.88, 0.195, 0.98, 0.2925, 1.0775, 0.3925, 1.175, 0.49, 1.2725, 0.5875, 1.37, 0.685, 0, 0.7825, 0.0975, 0.88, 0.195, 0.98, 0.2925, 1.0775, 0.3925, 1.175, 0.49, 1.2725, 0.5875, 1.37, 0.685],
  "SoftwareVersions": "syngo_MR_E11",
  "SpacingBetweenSlices": 2,
  "StationName": "MRC35049",
  "TaskName": "s05e10a",
  "TotalReadoutTime": 0.0576811,
  "TxRefAmp": 259.841,
  "WipMemBlock": "3635cce3-63f0-4391-bf88-a5f2fda6501f||Sequence: R016 ve11c/master r/e634e98; Dec 19 2017 11:00:25 by eja",
  "dcmmeta_affine": [
    [-1.9933210611343384, -0.11423607170581818, 0.11671032011508942, 105.887451171875],
    [-0.15073183178901672, 1.8370133638381958, -0.7763128280639648, -58.90884780883789],
    [0.0628577470779419, 0.782516360282898, 1.8394882678985596, -70.02803802490234],
    [0.0, 0.0, 0.0, 1.0]
],
  "dcmmeta_reorient_transform": [
    [0.0, -1.0, 0.0, 103.0],
    [1.0, 0.0, 0.0, 0.0],
    [0.0, 0.0, 1.0, 0.0],
    [0.0, 0.0, 0.0, 1.0]
],
  "dcmmeta_shape": [104, 104, 60, 450],
  "dcmmeta_slice_dim": 2,
  "dcmmeta_version": 0.6,
  "global": {
    "const": {
      "AcquisitionMatrix": [104, 0, 0, 104],
      "AngioFlag": "N",
      "BitsAllocated": 16,
      "BitsStored": 16,
      "BodyPartExamined": "BRAIN",
      "Columns": 832,
      "EchoNumbers": 1,
      "EchoTime": 37.0,
      "EchoTrainLength": 104,
      "FlipAngle": 52.0,
      "HighBit": 15,
      "ImageOrientationPatient": [0.99666052650338, 0.07536591273784, 0.03142887378204, -0.0571180371561, 0.91850670991727, -0.3912581675421],
      "ImagePositionPatient": [-778.10806543134, -853.8428026887, 272.52687339407],
      "ImageType": [
        "ORIGINAL",
        "PRIMARY",
        "M",
        "MB",
        "ND",
        "MOSAIC"
],
      "ImagedNucleus": "1H",
      "ImagingFrequency": 123.258853,
      "InPlanePhaseEncodingDirection": "COL",
      "MRAcquisitionType": "2D",
      "MagneticFieldStrength": 3.0,
      "Manufacturer": "SIEMENS",
      "ManufacturerModelName": "Prisma_fit",
      "Modality": "MR",
      "NumberOfAverages": 1.0,
      "NumberOfPhaseEncodingSteps": 104,
      "PercentPhaseFieldOfView": 100.0,
      "PercentSampling": 100.0,
      "PerformedProcedureStepStartTime": "103831.729000",
      "PhotometricInterpretation": "MONOCHROME2",
      "PixelBandwidth": 2290.0,
      "PixelRepresentation": 0,
      "PixelSpacing": [2.0, 2.0],
      "ProtocolName": "func_task-friends-s05e10a",
      "RepetitionTime": 1490.0,
      "Rows": 832,
      "SAR": 0.04026755055575,
      "SamplesPerPixel": 1,
      "ScanOptions": "FS",
      "ScanningSequence": "EP",
      "SequenceName": "epfid2d1_104",
      "SequenceVariant": [
        "SK",
        "SS"
],
      "SeriesDescription": "func_task-friends-s05e10a",
      "SeriesNumber": 13,
      "SeriesTime": "114329.448000",
      "SliceLocation": -35.362947714714,
      "SliceThickness": 2.0,
      "SmallestImagePixelValue": 0,
      "SoftwareVersions": "syngo MR E11",
      "SpacingBetweenSlices": 2.0000000392527,
      "SpecificCharacterSet": "ISO_IR 100",
      "StudyID": "1",
      "StudyTime": "103831.671000",
      "TransmitCoilName": "Body",
      "VariableFlipAngleFlag": "N",
      "WindowCenterWidthExplanation": "Algo1",
      "dBdt": 0.0},
    "slices": {}
  },
  "time": {
    "samples": {
      "AcquisitionNumber": [1, 2, 3, 4, 5, 6, 7, 8, 9, 10, 11, 12, 13, 14, 15, 16, 17, 18, 19, 20, 21, 22, 23, 24, 25, 26, 27, 28, 29, 30, 31, 32, 33, 34, 35, 36, 37, 38, 39, 40, 41, 42, 43, 44, 45, 46, 47, 48, 49, 50, 51, 52, 53, 54, 55, 56, 57, 58, 59, 60, 61, 62, 63, 64, 65, 66, 67, 68, 69, 70, 71, 72, 73, 74, 75, 76, 77, 78, 79, 80, 81, 82, 83, 84, 85, 86, 87, 88, 89, 90, 91, 92, 93, 94, 95, 96, 97, 98, 99, 100, 101, 102, 103, 104, 105, 106, 107, 108, 109, 110, 111, 112, 113, 114, 115, 116, 117, 118, 119, 120, 121, 122, 123, 124, 125, 126, 127, 128, 129, 130, 131, 132, 133, 134, 135, 136, 137, 138, 139, 140, 141, 142, 143, 144, 145, 146, 147, 148, 149, 150, 151, 152, 153, 154, 155, 156, 157, 158, 159, 160, 161, 162, 163, 164, 165, 166, 167, 168, 169, 170, 171, 172, 173, 174, 175, 176, 177, 178, 179, 180, 181, 182, 183, 184, 185, 186, 187, 188, 189, 190, 191, 192, 193, 194, 195, 196, 197, 198, 199, 200, 201, 202, 203, 204, 205, 206, 207, 208, 209, 210, 211, 212, 213, 214, 215, 216, 217, 218, 219, 220, 221, 222, 223, 224, 225, 226, 227, 228, 229, 230, 231, 232, 233, 234, 235, 236, 237, 238, 239, 240, 241, 242, 243, 244, 245, 246, 247, 248, 249, 250, 251, 252, 253, 254, 255, 256, 257, 258, 259, 260, 261, 262, 263, 264, 265, 266, 267, 268, 269, 270, 271, 272, 273, 274, 275, 276, 277, 278, 279, 280, 281, 282, 283, 284, 285, 286, 287, 288, 289, 290, 291, 292, 293, 294, 295, 296, 297, 298, 299, 300, 301, 302, 303, 304, 305, 306, 307, 308, 309, 310, 311, 312, 313, 314, 315, 316, 317, 318, 319, 320, 321, 322, 323, 324, 325, 326, 327, 328, 329, 330, 331, 332, 333, 334, 335, 336, 337, 338, 339, 340, 341, 342, 343, 344, 345, 346, 347, 348, 349, 350, 351, 352, 353, 354, 355, 356, 357, 358, 359, 360, 361, 362, 363, 364, 365, 366, 367, 368, 369, 370, 371, 372, 373, 374, 375, 376, 377, 378, 379, 380, 381, 382, 383, 384, 385, 386, 387, 388, 389, 390, 391, 392, 393, 394, 395, 396, 397, 398, 399, 400, 401, 402, 403, 404, 405, 406, 407, 408, 409, 410, 411, 412, 413, 414, 415, 416, 417, 418, 419, 420, 421, 422, 423, 424, 425, 426, 427, 428, 429, 430, 431, 432, 433, 434, 435, 436, 437, 438, 439, 440, 441, 442, 443, 444, 445, 446, 447, 448, 449, 450],
      "AcquisitionTime": ["114206.220000", "114207.710000", "114209.200000", "114210.690000", "114212.180000", "114213.670000", "114215.160000", "114216.650000", "114218.140000", "114219.630000", "114221.120000", "114222.610000", "114224.100000", "114225.590000", "114227.080000", "114228.570000", "114230.060000", "114231.550000", "114233.040000", "114234.530000", "114236.020000", "114237.510000", "114239.000000", "114240.490000", "114241.980000", "114243.470000", "114244.960000", "114246.450000", "114247.940000", "114249.430000", "114250.920000", "114252.410000", "114253.900000", "114255.390000", "114256.880000", "114258.370000", "114259.860000", "114301.350000", "114302.840000", "114304.330000", "114305.820000", "114307.310000", "114308.800000", "114310.290000", "114311.780000", "114313.270000", "114314.760000", "114316.250000", "114317.740000", "114319.230000", "114320.720000", "114322.210000", "114323.700000", "114325.190000", "114326.680000", "114328.170000", "114329.660000", "114331.150000", "114332.640000", "114334.130000", "114335.620000", "114337.110000", "114338.600000", "114340.090000", "114341.580000", "114343.070000", "114344.560000", "114346.050000", "114347.540000", "114349.030000", "114350.520000", "114352.010000", "114353.500000", "114354.990000", "114356.480000", "114357.970000", "114359.460000", "114400.950000", "114402.440000", "114403.930000", "114405.420000", "114406.910000", "114408.400000", "114409.890000", "114411.380000", "114412.870000", "114414.360000", "114415.850000", "114417.340000", "114418.830000", "114420.320000", "114421.810000", "114423.300000", "114424.790000", "114426.280000", "114427.770000", "114429.260000", "114430.750000", "114432.240000", "114433.730000", "114435.220000", "114436.710000", "114438.200000", "114439.690000", "114441.180000", "114442.670000", "114444.160000", "114445.650000", "114447.140000", "114448.630000", "114450.120000", "114451.610000", "114453.100000", "114454.590000", "114456.080000", "114457.570000", "114459.060000", "114500.550000", "114502.040000", "114503.530000", "114505.020000", "114506.510000", "114508.000000", "114509.490000", "114510.980000", "114512.470000", "114513.960000", "114515.450000", "114516.940000", "114518.430000", "114519.920000", "114521.410000", "114522.900000", "114524.390000", "114525.880000", "114527.370000", "114528.860000", "114530.350000", "114531.840000", "114533.330000", "114534.820000", "114536.310000", "114537.800000", "114539.290000", "114540.780000", "114542.270000", "114543.760000", "114545.250000", "114546.740000", "114548.230000", "114549.720000", "114551.210000", "114552.700000", "114554.190000", "114555.680000", "114557.170000", "114558.660000", "114600.150000", "114601.640000", "114603.130000", "114604.620000", "114606.110000", "114607.600000", "114609.090000", "114610.580000", "114612.070000", "114613.560000", "114615.050000", "114616.540000", "114618.030000", "114619.520000", "114621.010000", "114622.500000", "114623.990000", "114625.480000", "114626.970000", "114628.460000", "114629.950000", "114631.440000", "114632.930000", "114634.420000", "114635.910000", "114637.400000", "114638.890000", "114640.380000", "114641.870000", "114643.360000", "114644.850000", "114646.340000", "114647.830000", "114649.320000", "114650.810000", "114652.300000", "114653.790000", "114655.280000", "114656.770000", "114658.260000", "114659.750000", "114701.240000", "114702.730000", "114704.220000", "114705.710000", "114707.200000", "114708.690000", "114710.180000", "114711.670000", "114713.160000", "114714.650000", "114716.140000", "114717.630000", "114719.120000", "114720.610000", "114722.100000", "114723.590000", "114725.080000", "114726.570000", "114728.060000", "114729.550000", "114731.040000", "114732.530000", "114734.020000", "114735.510000", "114737.000000", "114738.490000", "114739.980000", "114741.470000", "114742.960000", "114744.450000", "114745.940000", "114747.430000", "114748.920000", "114750.410000", "114751.900000", "114753.390000", "114754.880000", "114756.370000", "114757.860000", "114759.350000", "114800.840000", "114802.330000", "114803.820000", "114805.310000", "114806.800000", "114808.290000", "114809.780000", "114811.270000", "114812.760000", "114814.250000", "114815.740000", "114817.230000", "114818.720000", "114820.210000", "114821.700000", "114823.190000", "114824.680000", "114826.170000", "114827.660000", "114829.150000", "114830.640000", "114832.130000", "114833.620000", "114835.110000", "114836.600000", "114838.090000", "114839.580000", "114841.070000", "114842.560000", "114844.050000", "114845.540000", "114847.030000", "114848.520000", "114850.010000", "114851.500000", "114852.990000", "114854.480000", "114855.970000", "114857.460000", "114858.950000", "114900.440000", "114901.930000", "114903.420000", "114904.910000", "114906.400000", "114907.890000", "114909.380000", "114910.870000", "114912.360000", "114913.850000", "114915.340000", "114916.830000", "114918.320000", "114919.810000", "114921.300000", "114922.790000", "114924.280000", "114925.770000", "114927.260000", "114928.750000", "114930.240000", "114931.730000", "114933.220000", "114934.710000", "114936.200000", "114937.690000", "114939.180000", "114940.670000", "114942.160000", "114943.650000", "114945.140000", "114946.630000", "114948.120000", "114949.610000", "114951.100000", "114952.590000", "114954.080000", "114955.570000", "114957.060000", "114958.550000", "115000.040000", "115001.530000", "115003.020000", "115004.510000", "115006.000000", "115007.490000", "115008.980000", "115010.470000", "115011.960000", "115013.450000", "115014.940000", "115016.430000", "115017.920000", "115019.410000", "115020.900000", "115022.390000", "115023.880000", "115025.370000", "115026.860000", "115028.350000", "115029.840000", "115031.330000", "115032.820000", "115034.310000", "115035.800000", "115037.290000", "115038.780000", "115040.270000", "115041.760000", "115043.250000", "115044.740000", "115046.230000", "115047.720000", "115049.210000", "115050.700000", "115052.190000", "115053.680000", "115055.170000", "115056.660000", "115058.150000", "115059.640000", "115101.130000", "115102.620000", "115104.110000", "115105.600000", "115107.090000", "115108.580000", "115110.070000", "115111.560000", "115113.050000", "115114.540000", "115116.030000", "115117.520000", "115119.010000", "115120.500000", "115121.990000", "115123.480000", "115124.970000", "115126.460000", "115127.950000", "115129.440000", "115130.930000", "115132.420000", "115133.910000", "115135.400000", "115136.890000", "115138.380000", "115139.870000", "115141.360000", "115142.850000", "115144.340000", "115145.830000", "115147.320000", "115148.810000", "115150.300000", "115151.790000", "115153.280000", "115154.770000", "115156.260000", "115157.750000", "115159.240000", "115200.730000", "115202.220000", "115203.710000", "115205.200000", "115206.690000", "115208.180000", "115209.670000", "115211.160000", "115212.650000", "115214.140000", "115215.630000", "115217.120000", "115218.610000", "115220.100000", "115221.590000", "115223.080000", "115224.570000", "115226.060000", "115227.550000", "115229.040000", "115230.530000", "115232.020000", "115233.510000", "115235.000000", "115236.490000", "115237.980000", "115239.470000", "115240.960000", "115242.450000", "115243.940000", "115245.430000", "115246.920000", "115248.410000", "115249.900000", "115251.390000", "115252.880000", "115254.370000", "115255.860000", "115257.350000", "115258.840000", "115300.330000", "115301.820000", "115303.310000", "115304.800000", "115306.290000", "115307.780000", "115309.270000", "115310.760000", "115312.250000", "115313.740000", "115315.230000"],
      "ContentTime": ["114329.451000", "114329.454000", "114329.457000", "114329.460000", "114329.463000", "114329.465000", "114329.468000", "114329.471000", "114329.474000", "114329.477000", "114329.480000", "114329.482000", "114329.485000", "114329.488000", "114329.491000", "114329.494000", "114329.504000", "114329.507000", "114329.510000", "114329.513000", "114329.515000", "114329.518000", "114329.521000", "114329.524000", "114329.527000", "114329.530000", "114329.533000", "114349.416000", "114349.419000", "114349.423000", "114349.426000", "114349.429000", "114349.432000", "114349.435000", "114349.438000", "114349.441000", "114349.444000", "114349.447000", "114349.450000", "114349.453000", "114349.456000", "114349.459000", "114349.462000", "114349.465000", "114349.468000", "114349.471000", "114349.474000", "114409.417000", "114409.420000", "114409.423000", "114409.426000", "114409.430000", "114409.433000", "114409.436000", "114409.439000", "114409.442000", "114409.444000", "114409.447000", "114409.450000", "114409.453000", "114409.456000", "114409.459000", "114409.462000", "114409.464000", "114409.467000", "114409.470000", "114409.473000", "114429.416000", "114429.419000", "114429.422000", "114429.424000", "114429.427000", "114429.430000", "114429.433000", "114429.436000", "114429.439000", "114429.441000", "114429.455000", "114429.457000", "114429.460000", "114429.463000", "114429.466000", "114429.469000", "114429.472000", "114429.474000", "114429.477000", "114429.480000", "114429.483000", "114449.416000", "114449.419000", "114449.422000", "114449.425000", "114449.427000", "114449.430000", "114449.433000", "114449.436000", "114449.439000", "114449.442000", "114449.444000", "114449.447000", "114449.450000", "114449.453000", "114449.456000", "114449.459000", "114449.461000", "114449.464000", "114449.467000", "114449.470000", "114529.415000", "114529.418000", "114529.421000", "114529.424000", "114529.427000", "114529.429000", "114529.432000", "114529.435000", "114529.438000", "114529.441000", "114529.444000", "114529.447000", "114529.450000", "114529.452000", "114529.455000", "114529.458000", "114529.461000", "114529.464000", "114529.467000", "114529.470000", "114529.472000", "114529.484000", "114529.487000", "114529.490000", "114529.493000", "114529.495000", "114529.498000", "114529.501000", "114609.416000", "114609.419000", "114609.422000", "114609.425000", "114609.427000", "114609.430000", "114609.433000", "114609.436000", "114609.439000", "114609.442000", "114609.445000", "114609.447000", "114609.450000", "114609.453000", "114609.456000", "114609.459000", "114609.461000", "114609.464000", "114609.467000", "114609.470000", "114609.473000", "114609.476000", "114609.479000", "114609.481000", "114609.484000", "114609.487000", "114609.490000", "114649.416000", "114649.419000", "114649.422000", "114649.425000", "114649.428000", "114649.430000", "114649.433000", "114649.436000", "114649.439000", "114649.442000", "114649.445000", "114649.448000", "114649.450000", "114649.453000", "114649.456000", "114649.460000", "114649.463000", "114649.466000", "114649.470000", "114649.473000", "114649.476000", "114649.479000", "114649.482000", "114649.484000", "114649.487000", "114649.490000", "114729.416000", "114729.419000", "114729.422000", "114729.425000", "114729.428000", "114729.430000", "114729.433000", "114729.436000", "114729.439000", "114729.442000", "114729.445000", "114729.447000", "114729.450000", "114729.453000", "114729.456000", "114729.459000", "114729.462000", "114729.465000", "114729.468000", "114729.471000", "114729.473000", "114729.476000", "114729.479000", "114729.482000", "114729.485000", "114729.488000", "114729.491000", "114809.416000", "114809.419000", "114809.422000", "114809.425000", "114809.428000", "114809.431000", "114809.434000", "114809.437000", "114809.440000", "114809.443000", "114809.446000", "114809.449000", "114809.451000", "114809.454000", "114809.457000", "114809.460000", "114809.463000", "114809.466000", "114809.469000", "114809.472000", "114809.475000", "114809.478000", "114809.480000", "114809.483000", "114809.486000", "114809.489000", "114809.492000", "114849.416000", "114849.419000", "114849.422000", "114849.425000", "114849.428000", "114849.431000", "114849.433000", "114849.436000", "114849.439000", "114849.442000", "114849.445000", "114849.447000", "114849.450000", "114849.453000", "114849.456000", "114849.459000", "114849.462000", "114849.465000", "114849.468000", "114849.470000", "114849.473000", "114849.476000", "114849.479000", "114849.482000", "114849.485000", "114849.487000", "114849.490000", "114929.416000", "114929.419000", "114929.422000", "114929.425000", "114929.427000", "114929.430000", "114929.433000", "114929.436000", "114929.439000", "114929.442000", "114929.445000", "114929.448000", "114929.450000", "114929.453000", "114929.456000", "114929.459000", "114929.462000", "114929.465000", "114929.468000", "114929.470000", "114929.473000", "114929.476000", "114929.479000", "114929.482000", "114929.485000", "114929.487000", "114929.490000", "115009.415000", "115009.418000", "115009.421000", "115009.424000", "115009.427000", "115009.430000", "115009.432000", "115009.435000", "115009.438000", "115009.441000", "115009.444000", "115009.447000", "115009.450000", "115009.453000", "115009.456000", "115009.459000", "115009.462000", "115009.464000", "115009.467000", "115009.470000", "115009.473000", "115009.476000", "115009.479000", "115009.482000", "115009.484000", "115009.487000", "115009.490000", "115049.416000", "115049.419000", "115049.433000", "115049.436000", "115049.439000", "115049.442000", "115049.445000", "115049.448000", "115049.450000", "115049.453000", "115049.456000", "115049.459000", "115049.462000", "115049.465000", "115049.467000", "115049.470000", "115049.473000", "115049.476000", "115049.479000", "115049.482000", "115049.485000", "115049.488000", "115049.491000", "115049.494000", "115049.497000", "115049.500000", "115049.502000", "115129.416000", "115129.419000", "115129.422000", "115129.425000", "115129.428000", "115129.430000", "115129.433000", "115129.436000", "115129.439000", "115129.442000", "115129.445000", "115129.447000", "115129.450000", "115129.454000", "115129.457000", "115129.460000", "115129.463000", "115129.466000", "115129.469000", "115129.472000", "115129.474000", "115129.477000", "115129.480000", "115129.483000", "115129.486000", "115129.489000", "115209.416000", "115209.419000", "115209.422000", "115209.425000", "115209.428000", "115209.430000", "115209.433000", "115209.436000", "115209.439000", "115209.442000", "115209.445000", "115209.448000", "115209.451000", "115209.453000", "115209.456000", "115209.459000", "115209.462000", "115209.465000", "115209.468000", "115209.471000", "115209.473000", "115209.476000", "115209.479000", "115209.482000", "115209.485000", "115209.488000", "115209.490000", "115249.416000", "115249.419000", "115249.422000", "115249.425000", "115249.428000", "115249.431000", "115249.433000", "115249.436000", "115249.439000", "115249.442000", "115249.445000", "115249.448000", "115249.450000", "115249.453000", "115249.456000", "115249.459000", "115249.462000", "115249.465000", "115249.468000", "115249.471000", "115249.474000", "115249.477000", "115249.480000", "115249.483000", "115249.486000", "115249.489000", "115249.491000", "115316.918000", "115316.921000", "115316.924000", "115316.927000", "115316.930000", "115316.933000", "115316.936000", "115316.939000", "115316.942000", "115316.945000", "115316.948000", "115316.951000", "115316.954000", "115316.957000", "115316.960000", "115316.963000", "115316.966000", "115316.969000", "115316.972000"],
