{
  "AcquisitionMatrixPE": 104,
  "AcquisitionNumber": 1,
  "AcquisitionTime": "11:13:50.555000",
  "BandwidthPerPixelPhaseEncode": 17.17,
  "BaseResolution": 104,
  "BodyPartExamined": "BRAIN",
  "CoilString": "HC1-7;NC1_2",
  "ConsistencyInfo": "N4_VE11C_LATEST_20160120",
  "ConversionSoftware": "dcm2niix",
  "ConversionSoftwareVersion": "v1.0.20190902",
  "DerivedVendorReportedEchoSpacing": 0.000560011,
  "DeviceSerialNumber": "167006",
  "DwellTime": 2.1e-06,
  "EchoTime": 0.037,
  "EchoTrainLength": 104,
  "EffectiveEchoSpacing": 0.000560011,
  "FlipAngle": 52,
  "HeudiconvVersion": "0.10.0",
  "ImageComments": "Unaliased_MB4_PE3_LB",
  "ImageOrientationPatientDICOM": [0.996661, 0.0753659, 0.0314289, -0.057118, 0.918507, -0.391258],
  "ImageType": [
    "ORIGINAL",
    "PRIMARY",
    "M",
    "MB",
    "ND",
    "MOSAIC"
],
  "ImagingFrequency": 123.259,
  "InPlanePhaseEncodingDirectionDICOM": "COL",
  "InstitutionAddress": "Chemin_Queen-Mary_4565_Montreal_District_CA_H3W_1W5",
  "InstitutionName": "IUGM",
  "InstitutionalDepartmentName": "Department",
  "MRAcquisitionType": "2D",
  "MagneticFieldStrength": 3,
  "Manufacturer": "Siemens",
  "ManufacturersModelName": "Prisma_fit",
  "Modality": "MR",
  "MultibandAccelerationFactor": 4,
  "PartialFourier": 1,
  "PatientPosition": "HFS",
  "PercentPhaseFOV": 100,
  "PhaseEncodingDirection": "j",
  "PhaseEncodingSteps": 104,
  "PhaseResolution": 1,
  "PixelBandwidth": 2290,
  "ProcedureStepDescription": "video_friends",
  "ProtocolName": "func_task-friends-s05e09a",
  "PulseSequenceDetails": "%CustomerSeq%_cmrr_mbep2d_bold",
  "ReceiveCoilActiveElements": "HC1-7;NC1,2",
  "ReceiveCoilName": "HeadNeck_64",
  "ReconMatrixPE": 104,
  "RepetitionTime": 1.49,
  "SAR": 0.0402699,
  "ScanOptions": "FS",
  "ScanningSequence": "EP",
  "SequenceName": "epfid2d1_104",
  "SequenceVariant": "SK_SS",
  "SeriesDescription": "func_task-friends-s05e09a",
  "SeriesNumber": 9,
  "ShimSetting": [630, -7187, -8811, 663, 69, -67, -56, -21],
  "SliceThickness": 2,
  "SliceTiming": [0, 0.785, 0.0975, 0.8825, 0.1975, 0.98, 0.295, 1.0775, 0.3925, 1.175, 0.49, 1.275, 0.5875, 1.3725, 0.685, 0, 0.785, 0.0975, 0.8825, 0.1975, 0.98, 0.295, 1.0775, 0.3925, 1.175, 0.49, 1.275, 0.5875, 1.3725, 0.685, 0, 0.785, 0.0975, 0.8825, 0.1975, 0.98, 0.295, 1.0775, 0.3925, 1.175, 0.49, 1.275, 0.5875, 1.3725, 0.685, 0, 0.785, 0.0975, 0.8825, 0.1975, 0.98, 0.295, 1.0775, 0.3925, 1.175, 0.49, 1.275, 0.5875, 1.3725, 0.685],
  "SoftwareVersions": "syngo_MR_E11",
  "SpacingBetweenSlices": 2,
  "StationName": "MRC35049",
  "TaskName": "s05e09a",
  "TotalReadoutTime": 0.0576811,
  "TxRefAmp": 259.841,
  "WipMemBlock": "9e0279c1-0993-4456-91db-e10409661dad||Sequence: R016 ve11c/master r/e634e98; Dec 19 2017 11:00:25 by eja",
  "dcmmeta_affine": [
    [-1.9933210611343384, -0.11423607170581818, 0.11671032011508942, 105.887451171875],
    [-0.15073183178901672, 1.8370133638381958, -0.7763128280639648, -58.90884780883789],
    [0.0628577470779419, 0.782516360282898, 1.8394882678985596, -70.02803802490234],
    [0.0, 0.0, 0.0, 1.0]
],
  "dcmmeta_reorient_transform": [
    [0.0, -1.0, 0.0, 103.0],
    [1.0, 0.0, 0.0, 0.0],
    [0.0, 0.0, 1.0, 0.0],
    [0.0, 0.0, 0.0, 1.0]
],
  "dcmmeta_shape": [104, 104, 60, 456],
  "dcmmeta_slice_dim": 2,
  "dcmmeta_version": 0.6,
  "global": {
    "const": {
      "AcquisitionMatrix": [104, 0, 0, 104],
      "AngioFlag": "N",
      "BitsAllocated": 16,
      "BitsStored": 16,
      "BodyPartExamined": "BRAIN",
      "Columns": 832,
      "EchoNumbers": 1,
      "EchoTime": 37.0,
      "EchoTrainLength": 104,
      "FlipAngle": 52.0,
      "HighBit": 15,
      "ImageOrientationPatient": [0.99666052650338, 0.07536591273784, 0.03142887378204, -0.0571180371561, 0.91850670991727, -0.3912581675421],
      "ImagePositionPatient": [-778.10806543134, -853.8428026887, 272.52687339407],
      "ImageType": [
        "ORIGINAL",
        "PRIMARY",
        "M",
        "MB",
        "ND",
        "MOSAIC"
],
      "ImagedNucleus": "1H",
      "ImagingFrequency": 123.258835,
      "InPlanePhaseEncodingDirection": "COL",
      "MRAcquisitionType": "2D",
      "MagneticFieldStrength": 3.0,
      "Manufacturer": "SIEMENS",
      "ManufacturerModelName": "Prisma_fit",
      "Modality": "MR",
      "NumberOfAverages": 1.0,
      "NumberOfPhaseEncodingSteps": 104,
      "PercentPhaseFieldOfView": 100.0,
      "PercentSampling": 100.0,
      "PerformedProcedureStepStartTime": "103831.729000",
      "PhotometricInterpretation": "MONOCHROME2",
      "PixelBandwidth": 2290.0,
      "PixelRepresentation": 0,
      "PixelSpacing": [2.0, 2.0],
      "ProtocolName": "func_task-friends-s05e09a",
      "RepetitionTime": 1490.0,
      "Rows": 832,
      "SAR": 0.04026987145863,
      "SamplesPerPixel": 1,
      "ScanOptions": "FS",
      "ScanningSequence": "EP",
      "SequenceName": "epfid2d1_104",
      "SequenceVariant": [
        "SK",
        "SS"
],
      "SeriesDescription": "func_task-friends-s05e09a",
      "SeriesNumber": 9,
      "SeriesTime": "111516.278000",
      "SliceLocation": -35.362947714714,
      "SliceThickness": 2.0,
      "SmallestImagePixelValue": 0,
      "SoftwareVersions": "syngo MR E11",
      "SpacingBetweenSlices": 2.0000000392527,
      "SpecificCharacterSet": "ISO_IR 100",
      "StudyID": "1",
      "StudyTime": "103831.671000",
      "TransmitCoilName": "Body",
      "VariableFlipAngleFlag": "N",
      "WindowCenterWidthExplanation": "Algo1",
      "dBdt": 0.0},
    "slices": {}
  },
  "time": {
    "samples": {
      "AcquisitionNumber": [1, 2, 3, 4, 5, 6, 7, 8, 9, 10, 11, 12, 13, 14, 15, 16, 17, 18, 19, 20, 21, 22, 23, 24, 25, 26, 27, 28, 29, 30, 31, 32, 33, 34, 35, 36, 37, 38, 39, 40, 41, 42, 43, 44, 45, 46, 47, 48, 49, 50, 51, 52, 53, 54, 55, 56, 57, 58, 59, 60, 61, 62, 63, 64, 65, 66, 67, 68, 69, 70, 71, 72, 73, 74, 75, 76, 77, 78, 79, 80, 81, 82, 83, 84, 85, 86, 87, 88, 89, 90, 91, 92, 93, 94, 95, 96, 97, 98, 99, 100, 101, 102, 103, 104, 105, 106, 107, 108, 109, 110, 111, 112, 113, 114, 115, 116, 117, 118, 119, 120, 121, 122, 123, 124, 125, 126, 127, 128, 129, 130, 131, 132, 133, 134, 135, 136, 137, 138, 139, 140, 141, 142, 143, 144, 145, 146, 147, 148, 149, 150, 151, 152, 153, 154, 155, 156, 157, 158, 159, 160, 161, 162, 163, 164, 165, 166, 167, 168, 169, 170, 171, 172, 173, 174, 175, 176, 177, 178, 179, 180, 181, 182, 183, 184, 185, 186, 187, 188, 189, 190, 191, 192, 193, 194, 195, 196, 197, 198, 199, 200, 201, 202, 203, 204, 205, 206, 207, 208, 209, 210, 211, 212, 213, 214, 215, 216, 217, 218, 219, 220, 221, 222, 223, 224, 225, 226, 227, 228, 229, 230, 231, 232, 233, 234, 235, 236, 237, 238, 239, 240, 241, 242, 243, 244, 245, 246, 247, 248, 249, 250, 251, 252, 253, 254, 255, 256, 257, 258, 259, 260, 261, 262, 263, 264, 265, 266, 267, 268, 269, 270, 271, 272, 273, 274, 275, 276, 277, 278, 279, 280, 281, 282, 283, 284, 285, 286, 287, 288, 289, 290, 291, 292, 293, 294, 295, 296, 297, 298, 299, 300, 301, 302, 303, 304, 305, 306, 307, 308, 309, 310, 311, 312, 313, 314, 315, 316, 317, 318, 319, 320, 321, 322, 323, 324, 325, 326, 327, 328, 329, 330, 331, 332, 333, 334, 335, 336, 337, 338, 339, 340, 341, 342, 343, 344, 345, 346, 347, 348, 349, 350, 351, 352, 353, 354, 355, 356, 357, 358, 359, 360, 361, 362, 363, 364, 365, 366, 367, 368, 369, 370, 371, 372, 373, 374, 375, 376, 377, 378, 379, 380, 381, 382, 383, 384, 385, 386, 387, 388, 389, 390, 391, 392, 393, 394, 395, 396, 397, 398, 399, 400, 401, 402, 403, 404, 405, 406, 407, 408, 409, 410, 411, 412, 413, 414, 415, 416, 417, 418, 419, 420, 421, 422, 423, 424, 425, 426, 427, 428, 429, 430, 431, 432, 433, 434, 435, 436, 437, 438, 439, 440, 441, 442, 443, 444, 445, 446, 447, 448, 449, 450, 451, 452, 453, 454, 455, 456],
      "AcquisitionTime": ["111350.555000", "111352.045000", "111353.535000", "111355.025000", "111356.515000", "111358.005000", "111359.495000", "111400.985000", "111402.475000", "111403.965000", "111405.455000", "111406.945000", "111408.435000", "111409.925000", "111411.415000", "111412.905000", "111414.395000", "111415.885000", "111417.375000", "111418.865000", "111420.355000", "111421.845000", "111423.335000", "111424.825000", "111426.315000", "111427.805000", "111429.295000", "111430.785000", "111432.275000", "111433.765000", "111435.255000", "111436.745000", "111438.235000", "111439.725000", "111441.215000", "111442.705000", "111444.195000", "111445.685000", "111447.175000", "111448.665000", "111450.155000", "111451.645000", "111453.135000", "111454.625000", "111456.115000", "111457.605000", "111459.095000", "111500.585000", "111502.075000", "111503.565000", "111505.055000", "111506.545000", "111508.035000", "111509.525000", "111511.015000", "111512.505000", "111513.995000", "111515.485000", "111516.975000", "111518.465000", "111519.955000", "111521.445000", "111522.935000", "111524.425000", "111525.915000", "111527.405000", "111528.895000", "111530.385000", "111531.875000", "111533.365000", "111534.855000", "111536.345000", "111537.835000", "111539.325000", "111540.815000", "111542.305000", "111543.795000", "111545.285000", "111546.775000", "111548.265000", "111549.755000", "111551.245000", "111552.735000", "111554.225000", "111555.715000", "111557.205000", "111558.695000", "111600.185000", "111601.675000", "111603.165000", "111604.655000", "111606.145000", "111607.635000", "111609.125000", "111610.615000", "111612.105000", "111613.595000", "111615.085000", "111616.575000", "111618.065000", "111619.555000", "111621.045000", "111622.535000", "111624.025000", "111625.515000", "111627.005000", "111628.495000", "111629.985000", "111631.475000", "111632.965000", "111634.455000", "111635.945000", "111637.435000", "111638.925000", "111640.415000", "111641.905000", "111643.395000", "111644.885000", "111646.375000", "111647.865000", "111649.355000", "111650.845000", "111652.335000", "111653.825000", "111655.315000", "111656.805000", "111658.295000", "111659.785000", "111701.275000", "111702.765000", "111704.255000", "111705.745000", "111707.235000", "111708.725000", "111710.215000", "111711.705000", "111713.195000", "111714.685000", "111716.175000", "111717.665000", "111719.155000", "111720.645000", "111722.135000", "111723.625000", "111725.115000", "111726.605000", "111728.095000", "111729.585000", "111731.075000", "111732.565000", "111734.055000", "111735.545000", "111737.035000", "111738.525000", "111740.015000", "111741.505000", "111742.995000", "111744.485000", "111745.975000", "111747.465000", "111748.955000", "111750.445000", "111751.935000", "111753.425000", "111754.915000", "111756.405000", "111757.895000", "111759.385000", "111800.875000", "111802.365000", "111803.855000", "111805.345000", "111806.835000", "111808.325000", "111809.815000", "111811.305000", "111812.795000", "111814.285000", "111815.775000", "111817.265000", "111818.755000", "111820.245000", "111821.735000", "111823.225000", "111824.715000", "111826.205000", "111827.695000", "111829.185000", "111830.675000", "111832.165000", "111833.655000", "111835.145000", "111836.635000", "111838.125000", "111839.615000", "111841.105000", "111842.595000", "111844.085000", "111845.575000", "111847.065000", "111848.555000", "111850.045000", "111851.535000", "111853.025000", "111854.515000", "111856.005000", "111857.495000", "111858.985000", "111900.475000", "111901.965000", "111903.455000", "111904.945000", "111906.435000", "111907.925000", "111909.415000", "111910.905000", "111912.395000", "111913.885000", "111915.375000", "111916.865000", "111918.355000", "111919.845000", "111921.335000", "111922.825000", "111924.315000", "111925.805000", "111927.295000", "111928.785000", "111930.275000", "111931.765000", "111933.255000", "111934.745000", "111936.235000", "111937.725000", "111939.215000", "111940.705000", "111942.195000", "111943.685000", "111945.175000", "111946.665000", "111948.155000", "111949.645000", "111951.135000", "111952.625000", "111954.115000", "111955.605000", "111957.095000", "111958.585000", "112000.075000", "112001.565000", "112003.055000", "112004.545000", "112006.035000", "112007.525000", "112009.015000", "112010.505000", "112011.995000", "112013.485000", "112014.975000", "112016.465000", "112017.955000", "112019.445000", "112020.935000", "112022.425000", "112023.915000", "112025.405000", "112026.895000", "112028.385000", "112029.875000", "112031.365000", "112032.855000", "112034.345000", "112035.835000", "112037.325000", "112038.815000", "112040.305000", "112041.795000", "112043.285000", "112044.775000", "112046.265000", "112047.755000", "112049.245000", "112050.735000", "112052.225000", "112053.715000", "112055.205000", "112056.695000", "112058.185000", "112059.675000", "112101.165000", "112102.655000", "112104.145000", "112105.635000", "112107.125000", "112108.615000", "112110.105000", "112111.595000", "112113.085000", "112114.575000", "112116.065000", "112117.555000", "112119.045000", "112120.535000", "112122.025000", "112123.515000", "112125.005000", "112126.495000", "112127.985000", "112129.475000", "112130.965000", "112132.455000", "112133.945000", "112135.435000", "112136.925000", "112138.415000", "112139.905000", "112141.395000", "112142.885000", "112144.375000", "112145.865000", "112147.355000", "112148.845000", "112150.335000", "112151.825000", "112153.315000", "112154.805000", "112156.295000", "112157.785000", "112159.275000", "112200.765000", "112202.255000", "112203.745000", "112205.235000", "112206.725000", "112208.215000", "112209.705000", "112211.195000", "112212.685000", "112214.175000", "112215.665000", "112217.155000", "112218.645000", "112220.135000", "112221.625000", "112223.115000", "112224.605000", "112226.095000", "112227.585000", "112229.075000", "112230.565000", "112232.055000", "112233.545000", "112235.035000", "112236.525000", "112238.015000", "112239.505000", "112240.995000", "112242.485000", "112243.975000", "112245.465000", "112246.955000", "112248.445000", "112249.935000", "112251.425000", "112252.915000", "112254.405000", "112255.895000", "112257.385000", "112258.875000", "112300.365000", "112301.855000", "112303.345000", "112304.835000", "112306.325000", "112307.815000", "112309.305000", "112310.795000", "112312.285000", "112313.775000", "112315.265000", "112316.755000", "112318.245000", "112319.735000", "112321.225000", "112322.715000", "112324.205000", "112325.695000", "112327.185000", "112328.675000", "112330.165000", "112331.655000", "112333.145000", "112334.635000", "112336.125000", "112337.615000", "112339.105000", "112340.595000", "112342.085000", "112343.575000", "112345.065000", "112346.555000", "112348.045000", "112349.535000", "112351.025000", "112352.515000", "112354.005000", "112355.495000", "112356.985000", "112358.475000", "112359.965000", "112401.455000", "112402.945000", "112404.435000", "112405.925000", "112407.415000", "112408.905000", "112410.395000", "112411.885000", "112413.375000", "112414.865000", "112416.355000", "112417.845000", "112419.335000", "112420.825000", "112422.315000", "112423.805000", "112425.295000", "112426.785000", "112428.275000", "112429.765000", "112431.255000", "112432.745000", "112434.235000", "112435.725000", "112437.215000", "112438.705000", "112440.195000", "112441.685000", "112443.175000", "112444.665000", "112446.155000", "112447.645000", "112449.135000", "112450.625000", "112452.115000", "112453.605000", "112455.095000", "112456.585000", "112458.075000", "112459.565000", "112501.055000", "112502.545000", "112504.035000", "112505.525000", "112507.015000", "112508.505000"],
      "ContentTime": ["111516.281000", "111516.284000", "111516.287000", "111516.290000", "111516.293000", "111516.296000", "111516.298000", "111516.301000", "111516.304000", "111516.307000", "111516.310000", "111516.312000", "111516.315000", "111516.318000", "111516.321000", "111516.324000", "111516.327000", "111516.329000", "111516.332000", "111516.335000", "111516.338000", "111516.341000", "111516.343000", "111516.346000", "111516.349000", "111516.359000", "111516.362000", "111516.365000", "111516.367000", "111516.370000", "111516.373000", "111536.245000", "111536.248000", "111536.251000", "111536.254000", "111536.256000", "111536.259000", "111536.262000", "111536.265000", "111536.268000", "111536.271000", "111536.273000", "111536.276000", "111536.279000", "111536.282000", "111536.285000", "111536.288000", "111536.290000", "111536.293000", "111536.296000", "111536.299000", "111556.245000", "111556.248000", "111556.251000", "111556.253000", "111556.256000", "111556.285000", "111556.288000", "111556.291000", "111556.294000", "111556.297000", "111556.300000", "111556.302000", "111556.305000", "111556.308000", "111556.311000", "111556.314000", "111556.317000", "111556.319000", "111556.322000", "111556.325000", "111616.245000", "111616.248000", "111616.251000", "111616.253000", "111616.256000", "111616.259000", "111616.262000", "111616.265000", "111616.268000", "111616.271000", "111616.273000", "111616.285000", "111616.288000", "111616.290000", "111616.293000", "111616.296000", "111616.299000", "111616.302000", "111616.305000", "111616.307000", "111616.310000", "111656.244000", "111656.247000", "111656.250000", "111656.253000", "111656.255000", "111656.258000", "111656.261000", "111656.264000", "111656.267000", "111656.269000", "111656.272000", "111656.275000", "111656.278000", "111656.281000", "111656.284000", "111656.286000", "111656.289000", "111656.292000", "111656.298000", "111656.301000", "111656.304000", "111656.307000", "111656.309000", "111656.312000", "111656.315000", "111656.318000", "111656.321000", "111656.324000", "111656.326000", "111656.329000", "111656.332000", "111656.335000", "111736.245000", "111736.248000", "111736.251000", "111736.254000", "111736.257000", "111736.259000", "111736.262000", "111736.265000", "111736.268000", "111736.271000", "111736.274000", "111736.276000", "111736.279000", "111736.291000", "111736.294000", "111736.297000", "111736.300000", "111736.302000", "111736.305000", "111736.308000", "111736.311000", "111736.314000", "111736.317000", "111736.319000", "111736.322000", "111736.325000", "111736.328000", "111816.245000", "111816.248000", "111816.251000", "111816.254000", "111816.256000", "111816.259000", "111816.262000", "111816.265000", "111816.268000", "111816.280000", "111816.283000", "111816.286000", "111816.289000", "111816.292000", "111816.295000", "111816.298000", "111816.301000", "111816.303000", "111816.306000", "111816.309000", "111816.312000", "111816.315000", "111816.327000", "111816.330000", "111816.342000", "111816.345000", "111856.245000", "111856.248000", "111856.251000", "111856.254000", "111856.256000", "111856.259000", "111856.262000", "111856.265000", "111856.268000", "111856.270000", "111856.273000", "111856.276000", "111856.279000", "111856.282000", "111856.285000", "111856.288000", "111856.290000", "111856.293000", "111856.296000", "111856.299000", "111856.302000", "111856.305000", "111856.307000", "111856.310000", "111856.319000", "111856.322000", "111856.324000", "111936.245000", "111936.248000", "111936.251000", "111936.254000", "111936.256000", "111936.259000", "111936.262000", "111936.265000", "111936.268000", "111936.271000", "111936.273000", "111936.276000", "111936.279000", "111936.282000", "111936.285000", "111936.288000", "111936.290000", "111936.293000", "111936.296000", "111936.299000", "111936.302000", "111936.305000", "111936.308000", "111936.311000", "111936.313000", "111936.316000", "111936.319000", "112016.245000", "112016.248000", "112016.251000", "112016.254000", "112016.256000", "112016.259000", "112016.262000", "112016.265000", "112016.268000", "112016.271000", "112016.274000", "112016.276000", "112016.279000", "112016.282000", "112016.285000", "112016.288000", "112016.291000", "112016.294000", "112016.296000", "112016.299000", "112016.302000", "112016.305000", "112016.308000", "112016.311000", "112016.313000", "112016.316000", "112016.319000", "112056.245000", "112056.248000", "112056.251000", "112056.254000", "112056.256000", "112056.259000", "112056.262000", "112056.265000", "112056.268000", "112056.271000", "112056.273000", "112056.276000", "112056.279000", "112056.282000", "112056.285000", "112056.288000", "112056.290000", "112056.293000", "112056.296000", "112056.299000", "112056.302000", "112056.305000", "112056.307000", "112056.310000", "112056.313000", "112056.316000", "112056.319000", "112136.244000", "112136.247000", "112136.250000", "112136.253000", "112136.255000", "112136.258000", "112136.261000", "112136.264000", "112136.267000", "112136.270000", "112136.273000", "112136.275000", "112136.278000", "112136.281000", "112136.284000", "112136.287000", "112136.290000", "112136.292000", "112136.295000", "112136.298000", "112136.301000", "112136.304000", "112136.307000", "112136.309000", "112136.312000", "112136.315000", "112136.318000", "112216.245000", "112216.248000", "112216.251000", "112216.254000", "112216.257000", "112216.259000", "112216.262000", "112216.265000", "112216.268000", "112216.271000", "112216.274000", "112216.276000", "112216.279000", "112216.282000", "112216.285000", "112216.288000", "112216.291000", "112216.294000", "112216.297000", "112216.300000", "112216.303000", "112216.306000", "112216.309000", "112216.312000", "112216.315000", "112216.318000", "112256.245000", "112256.248000", "112256.251000", "112256.254000", "112256.256000", "112256.259000", "112256.262000", "112256.265000", "112256.268000", "112256.271000", "112256.274000", "112256.276000", "112256.279000", "112256.282000", "112256.285000", "112256.288000", "112256.291000", "112256.293000", "112256.296000", "112256.299000", "112256.302000", "112256.305000", "112256.307000", "112256.310000", "112256.325000", "112256.328000", "112256.331000", "112336.245000", "112336.248000", "112336.251000", "112336.254000", "112336.256000", "112336.259000", "112336.262000", "112336.265000", "112336.268000", "112336.271000", "112336.273000", "112336.276000", "112336.279000", "112336.282000", "112336.285000", "112336.288000", "112336.298000", "112336.300000", "112336.303000", "112336.306000", "112336.309000", "112336.312000", "112336.315000", "112336.317000", "112336.320000", "112336.323000", "112336.326000", "112416.245000", "112416.248000", "112416.252000", "112416.255000", "112416.258000", "112416.261000", "112416.264000", "112416.267000", "112416.270000", "112416.272000", "112416.275000", "112416.278000", "112416.281000", "112416.284000", "112416.287000", "112416.290000", "112416.293000", "112416.295000", "112416.298000", "112416.301000", "112416.304000", "112416.307000", "112416.310000", "112416.313000", "112416.316000", "112416.319000", "112416.322000", "112456.245000", "112456.248000", "112456.251000", "112456.254000", "112456.257000", "112456.260000", "112456.263000", "112456.266000", "112456.269000", "112456.272000", "112456.275000", "112456.278000", "112456.281000", "112456.284000", "112456.286000", "112456.289000", "112456.292000", "112456.296000", "112456.299000", "112456.302000", "112456.305000", "112456.308000", "112456.310000", "112456.313000", "112456.316000", "112456.319000", "112456.322000", "112510.684000", "112510.688000", "112510.691000", "112510.693000", "112510.696000", "112510.700000", "112510.703000", "112510.705000", "112510.708000", "112510.711000"],
