{
  "AcquisitionMatrixPE": 104,
  "AcquisitionNumber": 1,
  "AcquisitionTime": "10:29:54.115000",
  "BandwidthPerPixelPhaseEncode": 17.17,
  "BaseResolution": 104,
  "BodyPartExamined": "BRAIN",
  "CoilString": "HC1-7;NC1_2",
  "ConsistencyInfo": "N4_VE11C_LATEST_20160120",
  "ConversionSoftware": "dcm2niix",
  "ConversionSoftwareVersion": "v1.0.20190902",
  "DerivedVendorReportedEchoSpacing": 0.000560011,
  "DeviceSerialNumber": "167006",
  "DwellTime": 2.1e-06,
  "EchoTime": 0.037,
  "EchoTrainLength": 104,
  "EffectiveEchoSpacing": 0.000560011,
  "FlipAngle": 52,
  "ImageComments": "Unaliased_MB4_PE3_LB",
  "ImageOrientationPatientDICOM": [0.997718, 0.0641355, 0.0211266, -0.0561305, 0.961638, -0.268517],
  "ImageType": [
    "ORIGINAL",
    "PRIMARY",
    "M",
    "MB",
    "ND",
    "MOSAIC"
],
  "ImagingFrequency": 123.259,
  "InPlanePhaseEncodingDirectionDICOM": "COL",
  "InstitutionAddress": "Chemin_Queen-Mary_4565_Montreal_District_CA_H3W_1W5",
  "InstitutionName": "IUGM",
  "InstitutionalDepartmentName": "Department",
  "MRAcquisitionType": "2D",
  "MagneticFieldStrength": 3,
  "Manufacturer": "Siemens",
  "ManufacturersModelName": "Prisma_fit",
  "Modality": "MR",
  "MultibandAccelerationFactor": 4,
  "PartialFourier": 1,
  "PatientPosition": "HFS",
  "PercentPhaseFOV": 100,
  "PhaseEncodingDirection": "j",
  "PhaseEncodingSteps": 104,
  "PhaseResolution": 1,
  "PixelBandwidth": 2290,
  "ProcedureStepDescription": "video_friends",
  "ProtocolName": "func_task-friends-s03e17b",
  "PulseSequenceDetails": "%CustomerSeq%_cmrr_mbep2d_bold",
  "ReceiveCoilActiveElements": "HC1-7;NC1,2",
  "ReceiveCoilName": "HeadNeck_64",
  "ReconMatrixPE": 104,
  "RepetitionTime": 1.49,
  "SAR": 0.0382718,
  "ScanOptions": "FS",
  "ScanningSequence": "EP",
  "SequenceName": "epfid2d1_104",
  "SequenceVariant": "SK_SS",
  "SeriesDescription": "func_task-friends-s03e17b",
  "SeriesNumber": 19,
  "ShimSetting": [635, -7214, -8822, 683, 98, -75, 98, -14],
  "SliceThickness": 2,
  "SliceTiming": [0, 0.785, 0.0975, 0.8825, 0.195, 0.98, 0.295, 1.0775, 0.3925, 1.175, 0.49, 1.2725, 0.5875, 1.3725, 0.685, 0, 0.785, 0.0975, 0.8825, 0.195, 0.98, 0.295, 1.0775, 0.3925, 1.175, 0.49, 1.2725, 0.5875, 1.3725, 0.685, 0, 0.785, 0.0975, 0.8825, 0.195, 0.98, 0.295, 1.0775, 0.3925, 1.175, 0.49, 1.2725, 0.5875, 1.3725, 0.685, 0, 0.785, 0.0975, 0.8825, 0.195, 0.98, 0.295, 1.0775, 0.3925, 1.175, 0.49, 1.2725, 0.5875, 1.3725, 0.685],
  "SoftwareVersions": "syngo_MR_E11",
  "SpacingBetweenSlices": 2,
  "StationName": "MRC35049",
  "TaskName": "s03e17b",
  "TotalReadoutTime": 0.0576811,
  "TxRefAmp": 245.432,
  "WipMemBlock": "e6b4f30c-85ee-4f51-a6b1-9d8a6cf9d198||Sequence: R016 ve11c/master r/e634e98; Dec 19 2017 11:00:25 by eja",
  "dcmmeta_affine": [
    [-1.995435118675232, -0.11226092278957367, 0.07507520914077759, 106.71717834472656],
    [-0.12827108800411224, 1.923276424407959, -0.5334362387657166, -67.69092559814453],
    [0.04225316643714905, 0.5370336771011353, 1.9260865449905396, -53.476409912109375],
    [0.0, 0.0, 0.0, 1.0]
],
  "dcmmeta_reorient_transform": [
    [0.0, -1.0, 0.0, 103.0],
    [1.0, 0.0, 0.0, 0.0],
    [0.0, 0.0, 1.0, 0.0],
    [0.0, 0.0, 0.0, 1.0]
],
  "dcmmeta_shape": [104, 104, 60, 453],
  "dcmmeta_slice_dim": 2,
  "dcmmeta_version": 0.6,
  "global": {
    "const": {
      "AcquisitionMatrix": [104, 0, 0, 104],
      "AngioFlag": "N",
      "BitsAllocated": 16,
      "BitsStored": 16,
      "BodyPartExamined": "BRAIN",
      "Columns": 832,
      "EchoNumbers": 1,
      "EchoTime": 37.0,
      "EchoTrainLength": 104,
      "FlipAngle": 52.0,
      "HighBit": 15,
      "ImageOrientationPatient": [0.99771754504037, 0.06413554259289, 0.02112658266121, -0.0561304609253, 0.96163822243276, -0.2685168533122],
      "ImagePositionPatient": [-780.62969773909, -877.16984672009, 181.93817936373],
      "ImageType": [
        "ORIGINAL",
        "PRIMARY",
        "M",
        "MB",
        "ND",
        "MOSAIC"
],
      "ImagedNucleus": "1H",
      "ImagingFrequency": 123.259301,
      "InPlanePhaseEncodingDirection": "COL",
      "MRAcquisitionType": "2D",
      "MagneticFieldStrength": 3.0,
      "Manufacturer": "SIEMENS",
      "ManufacturerModelName": "Prisma_fit",
      "Modality": "MR",
      "NumberOfAverages": 1.0,
      "NumberOfPhaseEncodingSteps": 104,
      "PercentPhaseFieldOfView": 100.0,
      "PercentSampling": 100.0,
      "PerformedProcedureStepStartTime": "085551.575000",
      "PhotometricInterpretation": "MONOCHROME2",
      "PixelBandwidth": 2290.0,
      "PixelRepresentation": 0,
      "PixelSpacing": [2.0, 2.0],
      "ProtocolName": "func_task-friends-s03e17b",
      "RepetitionTime": 1490.0,
      "Rows": 832,
      "SAR": 0.03827177241374,
      "SamplesPerPixel": 1,
      "ScanOptions": "FS",
      "ScanningSequence": "EP",
      "SequenceName": "epfid2d1_104",
      "SequenceVariant": [
        "SK",
        "SS"
],
      "SeriesDescription": "func_task-friends-s03e17b",
      "SeriesNumber": 19,
      "SeriesTime": "103119.592000",
      "SliceLocation": -29.439792159465,
      "SliceThickness": 2.0,
      "SmallestImagePixelValue": 0,
      "SoftwareVersions": "syngo MR E11",
      "SpacingBetweenSlices": 1.9999999857906,
      "SpecificCharacterSet": "ISO_IR 100",
      "StudyID": "1",
      "StudyTime": "085551.436000",
      "TransmitCoilName": "Body",
      "VariableFlipAngleFlag": "N",
      "WindowCenterWidthExplanation": "Algo1",
      "dBdt": 0.0},
    "slices": {}
  },
  "time": {
    "samples": {
      "AcquisitionNumber": [1, 2, 3, 4, 5, 6, 7, 8, 9, 10, 11, 12, 13, 14, 15, 16, 17, 18, 19, 20, 21, 22, 23, 24, 25, 26, 27, 28, 29, 30, 31, 32, 33, 34, 35, 36, 37, 38, 39, 40, 41, 42, 43, 44, 45, 46, 47, 48, 49, 50, 51, 52, 53, 54, 55, 56, 57, 58, 59, 60, 61, 62, 63, 64, 65, 66, 67, 68, 69, 70, 71, 72, 73, 74, 75, 76, 77, 78, 79, 80, 81, 82, 83, 84, 85, 86, 87, 88, 89, 90, 91, 92, 93, 94, 95, 96, 97, 98, 99, 100, 101, 102, 103, 104, 105, 106, 107, 108, 109, 110, 111, 112, 113, 114, 115, 116, 117, 118, 119, 120, 121, 122, 123, 124, 125, 126, 127, 128, 129, 130, 131, 132, 133, 134, 135, 136, 137, 138, 139, 140, 141, 142, 143, 144, 145, 146, 147, 148, 149, 150, 151, 152, 153, 154, 155, 156, 157, 158, 159, 160, 161, 162, 163, 164, 165, 166, 167, 168, 169, 170, 171, 172, 173, 174, 175, 176, 177, 178, 179, 180, 181, 182, 183, 184, 185, 186, 187, 188, 189, 190, 191, 192, 193, 194, 195, 196, 197, 198, 199, 200, 201, 202, 203, 204, 205, 206, 207, 208, 209, 210, 211, 212, 213, 214, 215, 216, 217, 218, 219, 220, 221, 222, 223, 224, 225, 226, 227, 228, 229, 230, 231, 232, 233, 234, 235, 236, 237, 238, 239, 240, 241, 242, 243, 244, 245, 246, 247, 248, 249, 250, 251, 252, 253, 254, 255, 256, 257, 258, 259, 260, 261, 262, 263, 264, 265, 266, 267, 268, 269, 270, 271, 272, 273, 274, 275, 276, 277, 278, 279, 280, 281, 282, 283, 284, 285, 286, 287, 288, 289, 290, 291, 292, 293, 294, 295, 296, 297, 298, 299, 300, 301, 302, 303, 304, 305, 306, 307, 308, 309, 310, 311, 312, 313, 314, 315, 316, 317, 318, 319, 320, 321, 322, 323, 324, 325, 326, 327, 328, 329, 330, 331, 332, 333, 334, 335, 336, 337, 338, 339, 340, 341, 342, 343, 344, 345, 346, 347, 348, 349, 350, 351, 352, 353, 354, 355, 356, 357, 358, 359, 360, 361, 362, 363, 364, 365, 366, 367, 368, 369, 370, 371, 372, 373, 374, 375, 376, 377, 378, 379, 380, 381, 382, 383, 384, 385, 386, 387, 388, 389, 390, 391, 392, 393, 394, 395, 396, 397, 398, 399, 400, 401, 402, 403, 404, 405, 406, 407, 408, 409, 410, 411, 412, 413, 414, 415, 416, 417, 418, 419, 420, 421, 422, 423, 424, 425, 426, 427, 428, 429, 430, 431, 432, 433, 434, 435, 436, 437, 438, 439, 440, 441, 442, 443, 444, 445, 446, 447, 448, 449, 450, 451, 452, 453],
      "AcquisitionTime": ["102954.115000", "102955.605000", "102957.095000", "102958.585000", "103000.075000", "103001.565000", "103003.055000", "103004.545000", "103006.035000", "103007.525000", "103009.015000", "103010.505000", "103011.995000", "103013.485000", "103014.975000", "103016.465000", "103017.955000", "103019.445000", "103020.935000", "103022.425000", "103023.915000", "103025.405000", "103026.895000", "103028.385000", "103029.875000", "103031.365000", "103032.855000", "103034.345000", "103035.835000", "103037.325000", "103038.815000", "103040.305000", "103041.795000", "103043.285000", "103044.775000", "103046.265000", "103047.755000", "103049.245000", "103050.735000", "103052.225000", "103053.715000", "103055.205000", "103056.695000", "103058.185000", "103059.675000", "103101.165000", "103102.655000", "103104.145000", "103105.635000", "103107.125000", "103108.615000", "103110.105000", "103111.595000", "103113.085000", "103114.575000", "103116.065000", "103117.555000", "103119.045000", "103120.535000", "103122.025000", "103123.515000", "103125.005000", "103126.495000", "103127.985000", "103129.475000", "103130.965000", "103132.455000", "103133.945000", "103135.435000", "103136.925000", "103138.415000", "103139.905000", "103141.395000", "103142.885000", "103144.375000", "103145.865000", "103147.355000", "103148.845000", "103150.335000", "103151.825000", "103153.315000", "103154.805000", "103156.295000", "103157.785000", "103159.275000", "103200.765000", "103202.255000", "103203.745000", "103205.235000", "103206.725000", "103208.215000", "103209.705000", "103211.195000", "103212.685000", "103214.175000", "103215.665000", "103217.155000", "103218.645000", "103220.135000", "103221.625000", "103223.115000", "103224.605000", "103226.095000", "103227.585000", "103229.075000", "103230.565000", "103232.055000", "103233.545000", "103235.035000", "103236.525000", "103238.015000", "103239.505000", "103240.995000", "103242.485000", "103243.975000", "103245.465000", "103246.955000", "103248.445000", "103249.935000", "103251.425000", "103252.915000", "103254.405000", "103255.895000", "103257.385000", "103258.875000", "103300.365000", "103301.855000", "103303.345000", "103304.835000", "103306.325000", "103307.815000", "103309.305000", "103310.795000", "103312.285000", "103313.775000", "103315.265000", "103316.755000", "103318.245000", "103319.735000", "103321.225000", "103322.715000", "103324.205000", "103325.695000", "103327.185000", "103328.675000", "103330.165000", "103331.655000", "103333.145000", "103334.635000", "103336.125000", "103337.615000", "103339.105000", "103340.595000", "103342.085000", "103343.575000", "103345.065000", "103346.555000", "103348.045000", "103349.535000", "103351.025000", "103352.515000", "103354.005000", "103355.495000", "103356.985000", "103358.475000", "103359.965000", "103401.455000", "103402.945000", "103404.435000", "103405.925000", "103407.415000", "103408.905000", "103410.395000", "103411.885000", "103413.375000", "103414.865000", "103416.355000", "103417.845000", "103419.335000", "103420.825000", "103422.315000", "103423.805000", "103425.295000", "103426.785000", "103428.275000", "103429.765000", "103431.255000", "103432.745000", "103434.235000", "103435.725000", "103437.215000", "103438.705000", "103440.195000", "103441.685000", "103443.175000", "103444.665000", "103446.155000", "103447.645000", "103449.135000", "103450.625000", "103452.115000", "103453.605000", "103455.095000", "103456.585000", "103458.075000", "103459.565000", "103501.055000", "103502.545000", "103504.035000", "103505.525000", "103507.015000", "103508.505000", "103509.995000", "103511.485000", "103512.975000", "103514.465000", "103515.955000", "103517.445000", "103518.935000", "103520.425000", "103521.915000", "103523.405000", "103524.895000", "103526.385000", "103527.875000", "103529.365000", "103530.855000", "103532.345000", "103533.835000", "103535.325000", "103536.815000", "103538.305000", "103539.795000", "103541.285000", "103542.775000", "103544.265000", "103545.755000", "103547.245000", "103548.735000", "103550.225000", "103551.715000", "103553.205000", "103554.695000", "103556.185000", "103557.675000", "103559.165000", "103600.655000", "103602.145000", "103603.635000", "103605.125000", "103606.615000", "103608.105000", "103609.595000", "103611.085000", "103612.575000", "103614.065000", "103615.555000", "103617.045000", "103618.535000", "103620.025000", "103621.515000", "103623.005000", "103624.495000", "103625.985000", "103627.475000", "103628.965000", "103630.455000", "103631.945000", "103633.435000", "103634.925000", "103636.415000", "103637.905000", "103639.395000", "103640.885000", "103642.375000", "103643.865000", "103645.355000", "103646.845000", "103648.335000", "103649.825000", "103651.315000", "103652.805000", "103654.295000", "103655.785000", "103657.275000", "103658.765000", "103700.255000", "103701.745000", "103703.235000", "103704.725000", "103706.215000", "103707.705000", "103709.195000", "103710.685000", "103712.175000", "103713.665000", "103715.155000", "103716.645000", "103718.135000", "103719.625000", "103721.115000", "103722.605000", "103724.095000", "103725.585000", "103727.075000", "103728.565000", "103730.055000", "103731.545000", "103733.035000", "103734.525000", "103736.015000", "103737.505000", "103738.995000", "103740.485000", "103741.975000", "103743.465000", "103744.955000", "103746.445000", "103747.935000", "103749.425000", "103750.915000", "103752.405000", "103753.895000", "103755.385000", "103756.875000", "103758.365000", "103759.855000", "103801.345000", "103802.835000", "103804.325000", "103805.815000", "103807.305000", "103808.795000", "103810.285000", "103811.775000", "103813.265000", "103814.755000", "103816.245000", "103817.735000", "103819.225000", "103820.715000", "103822.205000", "103823.695000", "103825.185000", "103826.675000", "103828.165000", "103829.655000", "103831.145000", "103832.635000", "103834.125000", "103835.615000", "103837.105000", "103838.595000", "103840.085000", "103841.575000", "103843.065000", "103844.555000", "103846.045000", "103847.535000", "103849.025000", "103850.515000", "103852.005000", "103853.495000", "103854.985000", "103856.475000", "103857.965000", "103859.455000", "103900.945000", "103902.435000", "103903.925000", "103905.415000", "103906.905000", "103908.395000", "103909.885000", "103911.375000", "103912.865000", "103914.355000", "103915.845000", "103917.335000", "103918.825000", "103920.315000", "103921.805000", "103923.295000", "103924.785000", "103926.275000", "103927.765000", "103929.255000", "103930.745000", "103932.235000", "103933.725000", "103935.215000", "103936.705000", "103938.195000", "103939.685000", "103941.175000", "103942.665000", "103944.155000", "103945.645000", "103947.135000", "103948.625000", "103950.115000", "103951.605000", "103953.095000", "103954.585000", "103956.075000", "103957.565000", "103959.055000", "104000.545000", "104002.035000", "104003.525000", "104005.015000", "104006.505000", "104007.995000", "104009.485000", "104010.975000", "104012.465000", "104013.955000", "104015.445000", "104016.935000", "104018.425000", "104019.915000", "104021.405000", "104022.895000", "104024.385000", "104025.875000", "104027.365000", "104028.855000", "104030.345000", "104031.835000", "104033.325000", "104034.815000", "104036.305000", "104037.795000", "104039.285000", "104040.775000", "104042.265000", "104043.755000", "104045.245000", "104046.735000", "104048.225000", "104049.715000", "104051.205000", "104052.695000", "104054.185000", "104055.675000", "104057.165000", "104058.655000", "104100.145000", "104101.635000", "104103.125000", "104104.615000", "104106.105000", "104107.595000"],
      "ContentTime": ["103119.594000", "103119.598000", "103119.601000", "103119.604000", "103119.606000", "103119.609000", "103119.612000", "103119.615000", "103119.618000", "103119.621000", "103119.624000", "103119.626000", "103119.629000", "103119.632000", "103119.635000", "103119.638000", "103119.641000", "103119.644000", "103119.646000", "103119.658000", "103119.661000", "103119.664000", "103119.667000", "103119.670000", "103119.673000", "103119.676000", "103119.679000", "103119.682000", "103119.684000", "103119.687000", "103139.565000", "103139.568000", "103139.571000", "103139.574000", "103139.577000", "103139.586000", "103139.589000", "103139.592000", "103139.595000", "103139.597000", "103139.600000", "103139.603000", "103139.606000", "103139.609000", "103139.611000", "103139.614000", "103139.617000", "103139.620000", "103139.623000", "103139.626000", "103159.565000", "103159.569000", "103159.572000", "103159.575000", "103159.577000", "103159.581000", "103159.584000", "103159.586000", "103159.589000", "103159.592000", "103159.595000", "103159.598000", "103159.600000", "103159.603000", "103159.606000", "103159.609000", "103159.612000", "103159.615000", "103159.617000", "103159.620000", "103219.565000", "103219.568000", "103219.571000", "103219.574000", "103219.577000", "103219.580000", "103219.582000", "103219.585000", "103219.588000", "103219.591000", "103219.594000", "103219.597000", "103219.599000", "103219.602000", "103219.605000", "103219.608000", "103219.611000", "103219.614000", "103219.617000", "103219.619000", "103219.622000", "103259.565000", "103259.568000", "103259.571000", "103259.574000", "103259.577000", "103259.579000", "103259.582000", "103259.585000", "103259.588000", "103259.591000", "103259.594000", "103259.596000", "103259.599000", "103259.602000", "103259.610000", "103259.612000", "103259.615000", "103259.618000", "103259.621000", "103259.624000", "103259.627000", "103259.630000", "103259.632000", "103259.635000", "103259.638000", "103259.641000", "103259.644000", "103259.647000", "103259.650000", "103259.653000", "103259.656000", "103259.659000", "103339.566000", "103339.569000", "103339.572000", "103339.575000", "103339.578000", "103339.580000", "103339.583000", "103339.586000", "103339.589000", "103339.592000", "103339.595000", "103339.598000", "103339.601000", "103339.603000", "103339.606000", "103339.609000", "103339.612000", "103339.615000", "103339.618000", "103339.621000", "103339.623000", "103339.626000", "103339.629000", "103339.632000", "103339.635000", "103339.638000", "103339.641000", "103419.565000", "103419.568000", "103419.571000", "103419.574000", "103419.577000", "103419.579000", "103419.582000", "103419.585000", "103419.588000", "103419.591000", "103419.594000", "103419.596000", "103419.599000", "103419.602000", "103419.605000", "103419.608000", "103419.611000", "103419.614000", "103419.617000", "103419.633000", "103419.636000", "103419.639000", "103419.642000", "103419.644000", "103419.647000", "103419.650000", "103419.653000", "103439.565000", "103439.568000", "103439.571000", "103439.574000", "103439.577000", "103439.580000", "103439.583000", "103439.585000", "103439.588000", "103439.591000", "103439.594000", "103439.597000", "103439.600000", "103519.565000", "103519.568000", "103519.571000", "103519.574000", "103519.577000", "103519.580000", "103519.583000", "103519.586000", "103519.588000", "103519.591000", "103519.594000", "103519.597000", "103519.600000", "103519.603000", "103519.606000", "103519.609000", "103519.611000", "103519.614000", "103519.617000", "103519.620000", "103519.623000", "103519.626000", "103519.629000", "103519.639000", "103519.642000", "103519.645000", "103519.648000", "103559.566000", "103559.569000", "103559.572000", "103559.575000", "103559.578000", "103559.581000", "103559.584000", "103559.586000", "103559.589000", "103559.592000", "103559.595000", "103559.598000", "103559.601000", "103559.604000", "103559.606000", "103559.609000", "103559.612000", "103559.615000", "103559.618000", "103559.621000", "103559.624000", "103559.627000", "103559.629000", "103559.632000", "103559.635000", "103559.638000", "103559.641000", "103639.565000", "103639.568000", "103639.571000", "103639.574000", "103639.577000", "103639.580000", "103639.583000", "103639.586000", "103639.588000", "103639.591000", "103639.594000", "103639.597000", "103639.600000", "103639.603000", "103639.606000", "103639.609000", "103639.611000", "103639.614000", "103639.617000", "103639.620000", "103639.623000", "103639.626000", "103639.629000", "103639.632000", "103639.634000", "103639.637000", "103639.640000", "103719.565000", "103719.568000", "103719.571000", "103719.574000", "103719.577000", "103719.580000", "103719.583000", "103719.585000", "103719.588000", "103719.591000", "103719.594000", "103719.597000", "103719.600000", "103719.603000", "103719.606000", "103719.608000", "103719.611000", "103719.615000", "103719.618000", "103719.621000", "103719.624000", "103719.627000", "103719.630000", "103719.633000", "103719.635000", "103719.638000", "103719.641000", "103759.565000", "103759.568000", "103759.571000", "103759.574000", "103759.577000", "103759.580000", "103759.583000", "103759.586000", "103759.588000", "103759.591000", "103759.596000", "103759.599000", "103759.602000", "103759.605000", "103759.608000", "103759.611000", "103759.614000", "103759.617000", "103759.620000", "103759.622000", "103759.625000", "103759.628000", "103759.631000", "103759.634000", "103759.637000", "103759.640000", "103759.643000", "103839.565000", "103839.568000", "103839.571000", "103839.574000", "103839.585000", "103839.588000", "103839.591000", "103839.594000", "103839.597000", "103839.600000", "103839.603000", "103839.606000", "103839.609000", "103839.611000", "103839.614000", "103839.617000", "103839.620000", "103839.623000", "103839.626000", "103839.629000", "103839.632000", "103839.634000", "103839.637000", "103839.640000", "103839.643000", "103839.646000", "103839.649000", "103919.578000", "103919.581000", "103919.584000", "103919.587000", "103919.590000", "103919.593000", "103919.596000", "103919.599000", "103919.602000", "103919.605000", "103919.608000", "103919.611000", "103919.614000", "103919.617000", "103919.620000", "103919.623000", "103919.626000", "103919.629000", "103919.632000", "103919.634000", "103919.637000", "103919.640000", "103919.643000", "103919.646000", "103919.649000", "103919.652000", "103959.565000", "103959.568000", "103959.571000", "103959.574000", "103959.577000", "103959.580000", "103959.583000", "103959.586000", "103959.588000", "103959.591000", "103959.594000", "103959.597000", "103959.600000", "103959.603000", "103959.606000", "103959.609000", "103959.611000", "103959.614000", "103959.617000", "103959.620000", "103959.623000", "103959.626000", "103959.629000", "103959.631000", "103959.634000", "103959.637000", "103959.640000", "104039.566000", "104039.569000", "104039.572000", "104039.575000", "104039.578000", "104039.581000", "104039.584000", "104039.586000", "104039.589000", "104039.592000", "104039.595000", "104039.598000", "104039.601000", "104039.604000", "104039.607000", "104039.610000", "104039.613000", "104039.616000", "104039.618000", "104039.621000", "104039.624000", "104039.627000", "104039.630000", "104039.633000", "104039.636000", "104039.639000", "104039.642000", "104110.050000", "104110.053000", "104110.056000", "104110.059000", "104110.062000", "104110.064000", "104110.067000", "104110.070000", "104110.073000", "104110.076000", "104110.079000", "104110.082000", "104110.085000", "104110.088000", "104110.091000", "104110.094000", "104110.097000", "104110.099000", "104110.102000", "104110.105000", "104110.108000"],
