{
  "AcquisitionMatrixPE": 104,
  "AcquisitionNumber": 1,
  "AcquisitionTime": "09:41:10.090000",
  "BandwidthPerPixelPhaseEncode": 17.17,
  "BaseResolution": 104,
  "BodyPartExamined": "BRAIN",
  "CoilString": "HC1-7;NC1_2",
  "ConsistencyInfo": "N4_VE11C_LATEST_20160120",
  "ConversionSoftware": "dcm2niix",
  "ConversionSoftwareVersion": "v1.0.20190902",
  "DerivedVendorReportedEchoSpacing": 0.000560011,
  "DeviceSerialNumber": "167006",
  "DwellTime": 2.1e-06,
  "EchoTime": 0.037,
  "EchoTrainLength": 104,
  "EffectiveEchoSpacing": 0.000560011,
  "FlipAngle": 52,
  "ImageComments": "Unaliased_MB4_PE3_LB",
  "ImageOrientationPatientDICOM": [0.997718, 0.0641355, 0.0211266, -0.0561305, 0.961638, -0.268517],
  "ImageType": [
    "ORIGINAL",
    "PRIMARY",
    "M",
    "MB",
    "ND",
    "MOSAIC"
],
  "ImagingFrequency": 123.259,
  "InPlanePhaseEncodingDirectionDICOM": "COL",
  "InstitutionAddress": "Chemin_Queen-Mary_4565_Montreal_District_CA_H3W_1W5",
  "InstitutionName": "IUGM",
  "InstitutionalDepartmentName": "Department",
  "MRAcquisitionType": "2D",
  "MagneticFieldStrength": 3,
  "Manufacturer": "Siemens",
  "ManufacturersModelName": "Prisma_fit",
  "Modality": "MR",
  "MultibandAccelerationFactor": 4,
  "PartialFourier": 1,
  "PatientPosition": "HFS",
  "PercentPhaseFOV": 100,
  "PhaseEncodingDirection": "j",
  "PhaseEncodingSteps": 104,
  "PhaseResolution": 1,
  "PixelBandwidth": 2290,
  "ProcedureStepDescription": "video_friends",
  "ProtocolName": "func_task-friends-s03e15b",
  "PulseSequenceDetails": "%CustomerSeq%_cmrr_mbep2d_bold",
  "ReceiveCoilActiveElements": "HC1-7;NC1,2",
  "ReceiveCoilName": "HeadNeck_64",
  "ReconMatrixPE": 104,
  "RepetitionTime": 1.49,
  "SAR": 0.0382736,
  "ScanOptions": "FS",
  "ScanningSequence": "EP",
  "SequenceName": "epfid2d1_104",
  "SequenceVariant": "SK_SS",
  "SeriesDescription": "func_task-friends-s03e15b",
  "SeriesNumber": 11,
  "ShimSetting": [635, -7214, -8822, 683, 98, -75, 98, -14],
  "SliceThickness": 2,
  "SliceTiming": [0, 0.785, 0.1, 0.8825, 0.1975, 0.98, 0.295, 1.08, 0.3925, 1.1775, 0.49, 1.275, 0.59, 1.3725, 0.6875, 0, 0.785, 0.1, 0.8825, 0.1975, 0.98, 0.295, 1.08, 0.3925, 1.1775, 0.49, 1.275, 0.59, 1.3725, 0.6875, 0, 0.785, 0.1, 0.8825, 0.1975, 0.98, 0.295, 1.08, 0.3925, 1.1775, 0.49, 1.275, 0.59, 1.3725, 0.6875, 0, 0.785, 0.1, 0.8825, 0.1975, 0.98, 0.295, 1.08, 0.3925, 1.1775, 0.49, 1.275, 0.59, 1.3725, 0.6875],
  "SoftwareVersions": "syngo_MR_E11",
  "SpacingBetweenSlices": 2,
  "StationName": "MRC35049",
  "TaskName": "s03e15b",
  "TotalReadoutTime": 0.0576811,
  "TxRefAmp": 245.432,
  "WipMemBlock": "d4d0896f-f67e-40bf-936e-585fd5321142||Sequence: R016 ve11c/master r/e634e98; Dec 19 2017 11:00:25 by eja",
  "dcmmeta_affine": [
    [-1.995435118675232, -0.11226092278957367, 0.07507520914077759, 106.71717834472656],
    [-0.12827108800411224, 1.923276424407959, -0.5334362387657166, -67.69092559814453],
    [0.04225316643714905, 0.5370336771011353, 1.9260865449905396, -53.476409912109375],
    [0.0, 0.0, 0.0, 1.0]
],
  "dcmmeta_reorient_transform": [
    [0.0, -1.0, 0.0, 103.0],
    [1.0, 0.0, 0.0, 0.0],
    [0.0, 0.0, 1.0, 0.0],
    [0.0, 0.0, 0.0, 1.0]
],
  "dcmmeta_shape": [104, 104, 60, 458],
  "dcmmeta_slice_dim": 2,
  "dcmmeta_version": 0.6,
  "global": {
    "const": {
      "AcquisitionMatrix": [104, 0, 0, 104],
      "AngioFlag": "N",
      "BitsAllocated": 16,
      "BitsStored": 16,
      "BodyPartExamined": "BRAIN",
      "Columns": 832,
      "EchoNumbers": 1,
      "EchoTime": 37.0,
      "EchoTrainLength": 104,
      "FlipAngle": 52.0,
      "HighBit": 15,
      "ImageOrientationPatient": [0.99771754504037, 0.06413554259289, 0.02112658266121, -0.0561304609253, 0.96163822243276, -0.2685168533122],
      "ImagePositionPatient": [-780.62969773909, -877.16984672009, 181.93817936373],
      "ImageType": [
        "ORIGINAL",
        "PRIMARY",
        "M",
        "MB",
        "ND",
        "MOSAIC"
],
      "ImagedNucleus": "1H",
      "ImagingFrequency": 123.259282,
      "InPlanePhaseEncodingDirection": "COL",
      "MRAcquisitionType": "2D",
      "MagneticFieldStrength": 3.0,
      "Manufacturer": "SIEMENS",
      "ManufacturerModelName": "Prisma_fit",
      "Modality": "MR",
      "NumberOfAverages": 1.0,
      "NumberOfPhaseEncodingSteps": 104,
      "PercentPhaseFieldOfView": 100.0,
      "PercentSampling": 100.0,
      "PerformedProcedureStepStartTime": "085551.575000",
      "PhotometricInterpretation": "MONOCHROME2",
      "PixelBandwidth": 2290.0,
      "PixelRepresentation": 0,
      "PixelSpacing": [2.0, 2.0],
      "ProtocolName": "func_task-friends-s03e15b",
      "RepetitionTime": 1490.0,
      "Rows": 832,
      "SAR": 0.03827359162532,
      "SamplesPerPixel": 1,
      "ScanOptions": "FS",
      "ScanningSequence": "EP",
      "SequenceName": "epfid2d1_104",
      "SequenceVariant": [
        "SK",
        "SS"
],
      "SeriesDescription": "func_task-friends-s03e15b",
      "SeriesNumber": 11,
      "SeriesTime": "094234.150000",
      "SliceLocation": -29.439792159465,
      "SliceThickness": 2.0,
      "SmallestImagePixelValue": 0,
      "SoftwareVersions": "syngo MR E11",
      "SpacingBetweenSlices": 1.9999999857906,
      "SpecificCharacterSet": "ISO_IR 100",
      "StudyID": "1",
      "StudyTime": "085551.436000",
      "TransmitCoilName": "Body",
      "VariableFlipAngleFlag": "N",
      "WindowCenterWidthExplanation": "Algo1",
      "dBdt": 0.0},
    "slices": {}
  },
  "time": {
    "samples": {
      "AcquisitionNumber": [1, 2, 3, 4, 5, 6, 7, 8, 9, 10, 11, 12, 13, 14, 15, 16, 17, 18, 19, 20, 21, 22, 23, 24, 25, 26, 27, 28, 29, 30, 31, 32, 33, 34, 35, 36, 37, 38, 39, 40, 41, 42, 43, 44, 45, 46, 47, 48, 49, 50, 51, 52, 53, 54, 55, 56, 57, 58, 59, 60, 61, 62, 63, 64, 65, 66, 67, 68, 69, 70, 71, 72, 73, 74, 75, 76, 77, 78, 79, 80, 81, 82, 83, 84, 85, 86, 87, 88, 89, 90, 91, 92, 93, 94, 95, 96, 97, 98, 99, 100, 101, 102, 103, 104, 105, 106, 107, 108, 109, 110, 111, 112, 113, 114, 115, 116, 117, 118, 119, 120, 121, 122, 123, 124, 125, 126, 127, 128, 129, 130, 131, 132, 133, 134, 135, 136, 137, 138, 139, 140, 141, 142, 143, 144, 145, 146, 147, 148, 149, 150, 151, 152, 153, 154, 155, 156, 157, 158, 159, 160, 161, 162, 163, 164, 165, 166, 167, 168, 169, 170, 171, 172, 173, 174, 175, 176, 177, 178, 179, 180, 181, 182, 183, 184, 185, 186, 187, 188, 189, 190, 191, 192, 193, 194, 195, 196, 197, 198, 199, 200, 201, 202, 203, 204, 205, 206, 207, 208, 209, 210, 211, 212, 213, 214, 215, 216, 217, 218, 219, 220, 221, 222, 223, 224, 225, 226, 227, 228, 229, 230, 231, 232, 233, 234, 235, 236, 237, 238, 239, 240, 241, 242, 243, 244, 245, 246, 247, 248, 249, 250, 251, 252, 253, 254, 255, 256, 257, 258, 259, 260, 261, 262, 263, 264, 265, 266, 267, 268, 269, 270, 271, 272, 273, 274, 275, 276, 277, 278, 279, 280, 281, 282, 283, 284, 285, 286, 287, 288, 289, 290, 291, 292, 293, 294, 295, 296, 297, 298, 299, 300, 301, 302, 303, 304, 305, 306, 307, 308, 309, 310, 311, 312, 313, 314, 315, 316, 317, 318, 319, 320, 321, 322, 323, 324, 325, 326, 327, 328, 329, 330, 331, 332, 333, 334, 335, 336, 337, 338, 339, 340, 341, 342, 343, 344, 345, 346, 347, 348, 349, 350, 351, 352, 353, 354, 355, 356, 357, 358, 359, 360, 361, 362, 363, 364, 365, 366, 367, 368, 369, 370, 371, 372, 373, 374, 375, 376, 377, 378, 379, 380, 381, 382, 383, 384, 385, 386, 387, 388, 389, 390, 391, 392, 393, 394, 395, 396, 397, 398, 399, 400, 401, 402, 403, 404, 405, 406, 407, 408, 409, 410, 411, 412, 413, 414, 415, 416, 417, 418, 419, 420, 421, 422, 423, 424, 425, 426, 427, 428, 429, 430, 431, 432, 433, 434, 435, 436, 437, 438, 439, 440, 441, 442, 443, 444, 445, 446, 447, 448, 449, 450, 451, 452, 453, 454, 455, 456, 457, 458],
      "AcquisitionTime": ["094110.090000", "094111.580000", "094113.070000", "094114.560000", "094116.050000", "094117.540000", "094119.030000", "094120.520000", "094122.010000", "094123.500000", "094124.990000", "094126.480000", "094127.970000", "094129.460000", "094130.950000", "094132.440000", "094133.930000", "094135.420000", "094136.910000", "094138.400000", "094139.890000", "094141.380000", "094142.870000", "094144.360000", "094145.850000", "094147.340000", "094148.830000", "094150.320000", "094151.810000", "094153.300000", "094154.790000", "094156.280000", "094157.770000", "094159.260000", "094200.750000", "094202.240000", "094203.730000", "094205.220000", "094206.710000", "094208.200000", "094209.690000", "094211.180000", "094212.670000", "094214.160000", "094215.650000", "094217.140000", "094218.630000", "094220.120000", "094221.610000", "094223.100000", "094224.590000", "094226.080000", "094227.570000", "094229.060000", "094230.550000", "094232.040000", "094233.530000", "094235.020000", "094236.510000", "094238.000000", "094239.490000", "094240.980000", "094242.470000", "094243.960000", "094245.450000", "094246.940000", "094248.430000", "094249.920000", "094251.410000", "094252.900000", "094254.390000", "094255.880000", "094257.370000", "094258.860000", "094300.350000", "094301.840000", "094303.330000", "094304.820000", "094306.310000", "094307.800000", "094309.290000", "094310.780000", "094312.270000", "094313.760000", "094315.250000", "094316.740000", "094318.230000", "094319.720000", "094321.210000", "094322.700000", "094324.190000", "094325.680000", "094327.170000", "094328.660000", "094330.150000", "094331.640000", "094333.130000", "094334.620000", "094336.110000", "094337.600000", "094339.090000", "094340.580000", "094342.070000", "094343.560000", "094345.050000", "094346.540000", "094348.030000", "094349.520000", "094351.010000", "094352.500000", "094353.990000", "094355.480000", "094356.970000", "094358.460000", "094359.950000", "094401.440000", "094402.930000", "094404.420000", "094405.910000", "094407.400000", "094408.890000", "094410.380000", "094411.870000", "094413.360000", "094414.850000", "094416.340000", "094417.830000", "094419.320000", "094420.810000", "094422.300000", "094423.790000", "094425.280000", "094426.770000", "094428.260000", "094429.750000", "094431.240000", "094432.730000", "094434.220000", "094435.710000", "094437.200000", "094438.690000", "094440.180000", "094441.670000", "094443.160000", "094444.650000", "094446.140000", "094447.630000", "094449.120000", "094450.610000", "094452.100000", "094453.590000", "094455.080000", "094456.570000", "094458.060000", "094459.550000", "094501.040000", "094502.530000", "094504.020000", "094505.510000", "094507.000000", "094508.490000", "094509.980000", "094511.470000", "094512.960000", "094514.450000", "094515.940000", "094517.430000", "094518.920000", "094520.410000", "094521.900000", "094523.390000", "094524.880000", "094526.370000", "094527.860000", "094529.350000", "094530.840000", "094532.330000", "094533.820000", "094535.310000", "094536.800000", "094538.290000", "094539.780000", "094541.270000", "094542.760000", "094544.250000", "094545.740000", "094547.230000", "094548.720000", "094550.210000", "094551.700000", "094553.190000", "094554.680000", "094556.170000", "094557.660000", "094559.150000", "094600.640000", "094602.130000", "094603.620000", "094605.110000", "094606.600000", "094608.090000", "094609.580000", "094611.070000", "094612.560000", "094614.050000", "094615.540000", "094617.030000", "094618.520000", "094620.010000", "094621.500000", "094622.990000", "094624.480000", "094625.970000", "094627.460000", "094628.950000", "094630.440000", "094631.930000", "094633.420000", "094634.910000", "094636.400000", "094637.890000", "094639.380000", "094640.870000", "094642.360000", "094643.850000", "094645.340000", "094646.830000", "094648.320000", "094649.810000", "094651.300000", "094652.790000", "094654.280000", "094655.770000", "094657.260000", "094658.750000", "094700.240000", "094701.730000", "094703.220000", "094704.710000", "094706.200000", "094707.690000", "094709.180000", "094710.670000", "094712.160000", "094713.650000", "094715.140000", "094716.630000", "094718.120000", "094719.610000", "094721.100000", "094722.590000", "094724.080000", "094725.570000", "094727.060000", "094728.550000", "094730.040000", "094731.530000", "094733.020000", "094734.510000", "094736.000000", "094737.490000", "094738.980000", "094740.470000", "094741.960000", "094743.450000", "094744.940000", "094746.430000", "094747.920000", "094749.410000", "094750.900000", "094752.390000", "094753.880000", "094755.370000", "094756.860000", "094758.350000", "094759.840000", "094801.330000", "094802.820000", "094804.310000", "094805.800000", "094807.290000", "094808.780000", "094810.270000", "094811.760000", "094813.250000", "094814.740000", "094816.230000", "094817.720000", "094819.210000", "094820.700000", "094822.190000", "094823.680000", "094825.170000", "094826.660000", "094828.150000", "094829.640000", "094831.130000", "094832.620000", "094834.110000", "094835.600000", "094837.090000", "094838.580000", "094840.070000", "094841.560000", "094843.050000", "094844.540000", "094846.030000", "094847.520000", "094849.010000", "094850.500000", "094851.990000", "094853.480000", "094854.970000", "094856.460000", "094857.950000", "094859.440000", "094900.930000", "094902.420000", "094903.910000", "094905.400000", "094906.890000", "094908.380000", "094909.870000", "094911.360000", "094912.850000", "094914.340000", "094915.830000", "094917.320000", "094918.810000", "094920.300000", "094921.790000", "094923.280000", "094924.770000", "094926.260000", "094927.750000", "094929.240000", "094930.730000", "094932.220000", "094933.710000", "094935.200000", "094936.690000", "094938.180000", "094939.670000", "094941.160000", "094942.650000", "094944.140000", "094945.630000", "094947.120000", "094948.610000", "094950.100000", "094951.590000", "094953.080000", "094954.570000", "094956.060000", "094957.550000", "094959.040000", "095000.530000", "095002.020000", "095003.510000", "095005.000000", "095006.490000", "095007.980000", "095009.470000", "095010.960000", "095012.450000", "095013.940000", "095015.430000", "095016.920000", "095018.410000", "095019.900000", "095021.390000", "095022.880000", "095024.370000", "095025.860000", "095027.350000", "095028.840000", "095030.330000", "095031.820000", "095033.310000", "095034.800000", "095036.290000", "095037.780000", "095039.270000", "095040.760000", "095042.250000", "095043.740000", "095045.230000", "095046.720000", "095048.210000", "095049.700000", "095051.190000", "095052.680000", "095054.170000", "095055.660000", "095057.150000", "095058.640000", "095100.130000", "095101.620000", "095103.110000", "095104.600000", "095106.090000", "095107.580000", "095109.070000", "095110.560000", "095112.050000", "095113.540000", "095115.030000", "095116.520000", "095118.010000", "095119.500000", "095120.990000", "095122.480000", "095123.970000", "095125.460000", "095126.950000", "095128.440000", "095129.930000", "095131.420000", "095132.910000", "095134.400000", "095135.890000", "095137.380000", "095138.870000", "095140.360000", "095141.850000", "095143.340000", "095144.830000", "095146.320000", "095147.810000", "095149.300000", "095150.790000", "095152.280000", "095153.770000", "095155.260000", "095156.750000", "095158.240000", "095159.730000", "095201.220000", "095202.710000", "095204.200000", "095205.690000", "095207.180000", "095208.670000", "095210.160000", "095211.650000", "095213.140000", "095214.630000", "095216.120000", "095217.610000", "095219.100000", "095220.590000", "095222.080000", "095223.570000", "095225.060000", "095226.550000", "095228.040000", "095229.530000", "095231.020000"],
      "ContentTime": ["094234.153000", "094234.157000", "094234.160000", "094234.163000", "094234.166000", "094234.168000", "094234.171000", "094234.174000", "094234.177000", "094234.180000", "094234.183000", "094234.186000", "094234.188000", "094234.191000", "094234.194000", "094234.197000", "094234.200000", "094234.203000", "094234.206000", "094234.213000", "094234.216000", "094234.219000", "094234.222000", "094234.225000", "094234.228000", "094234.230000", "094234.233000", "094234.236000", "094234.239000", "094234.242000", "094254.120000", "094254.135000", "094254.138000", "094254.141000", "094254.144000", "094254.146000", "094254.149000", "094254.152000", "094254.155000", "094254.158000", "094254.161000", "094254.164000", "094254.167000", "094254.170000", "094254.173000", "094254.176000", "094254.179000", "094254.181000", "094254.185000", "094254.188000", "094314.120000", "094314.123000", "094314.126000", "094314.129000", "094314.131000", "094314.134000", "094314.137000", "094314.140000", "094314.143000", "094314.146000", "094314.149000", "094314.151000", "094314.154000", "094314.157000", "094314.160000", "094314.163000", "094314.166000", "094314.169000", "094314.171000", "094314.174000", "094314.177000", "094334.120000", "094334.123000", "094334.126000", "094334.128000", "094334.132000", "094334.134000", "094334.137000", "094334.140000", "094334.143000", "094334.146000", "094334.149000", "094334.151000", "094334.154000", "094334.157000", "094334.160000", "094334.163000", "094334.166000", "094334.169000", "094334.172000", "094334.174000", "094414.120000", "094414.123000", "094414.126000", "094414.128000", "094414.137000", "094414.140000", "094414.143000", "094414.145000", "094414.148000", "094414.151000", "094414.154000", "094414.157000", "094414.160000", "094414.163000", "094414.166000", "094414.168000", "094414.171000", "094414.174000", "094414.177000", "094414.180000", "094414.183000", "094414.186000", "094414.188000", "094414.191000", "094414.194000", "094414.197000", "094414.200000", "094414.203000", "094414.206000", "094414.208000", "094414.211000", "094414.214000", "094454.120000", "094454.123000", "094454.126000", "094454.129000", "094454.132000", "094454.135000", "094454.138000", "094454.141000", "094454.144000", "094454.146000", "094454.149000", "094454.152000", "094454.155000", "094454.158000", "094454.161000", "094454.164000", "094454.167000", "094454.169000", "094454.172000", "094454.175000", "094454.178000", "094454.181000", "094454.184000", "094454.187000", "094454.190000", "094454.193000", "094534.120000", "094534.123000", "094534.126000", "094534.129000", "094534.132000", "094534.135000", "094534.137000", "094534.140000", "094534.143000", "094534.146000", "094534.149000", "094534.152000", "094534.155000", "094534.158000", "094534.161000", "094534.163000", "094534.166000", "094534.169000", "094534.172000", "094534.175000", "094534.178000", "094534.181000", "094534.184000", "094534.186000", "094534.189000", "094534.192000", "094534.195000", "094614.120000", "094614.123000", "094614.126000", "094614.129000", "094614.132000", "094614.134000", "094614.137000", "094614.140000", "094614.143000", "094614.146000", "094614.149000", "094614.152000", "094614.155000", "094614.158000", "094614.160000", "094614.163000", "094614.166000", "094614.169000", "094614.172000", "094614.175000", "094614.178000", "094614.181000", "094614.183000", "094614.186000", "094614.189000", "094614.192000", "094614.195000", "094654.120000", "094654.123000", "094654.126000", "094654.129000", "094654.131000", "094654.134000", "094654.137000", "094654.140000", "094654.143000", "094654.146000", "094654.149000", "094654.151000", "094654.154000", "094654.157000", "094654.160000", "094654.163000", "094654.166000", "094654.169000", "094654.172000", "094654.175000", "094654.177000", "094654.180000", "094654.183000", "094654.186000", "094654.189000", "094654.192000", "094654.195000", "094734.120000", "094734.123000", "094734.126000", "094734.129000", "094734.132000", "094734.135000", "094734.138000", "094734.140000", "094734.143000", "094734.146000", "094734.149000", "094734.152000", "094734.155000", "094734.158000", "094734.161000", "094734.164000", "094734.166000", "094734.170000", "094734.172000", "094734.175000", "094734.178000", "094734.181000", "094734.184000", "094734.187000", "094734.190000", "094734.193000", "094734.195000", "094814.120000", "094814.123000", "094814.126000", "094814.129000", "094814.132000", "094814.135000", "094814.138000", "094814.140000", "094814.143000", "094814.146000", "094814.149000", "094814.152000", "094814.155000", "094814.158000", "094814.161000", "094814.163000", "094814.167000", "094814.169000", "094814.172000", "094814.175000", "094814.178000", "094814.181000", "094814.184000", "094814.187000", "094814.190000", "094814.192000", "094814.195000", "094854.120000", "094854.123000", "094854.126000", "094854.129000", "094854.132000", "094854.135000", "094854.137000", "094854.140000", "094854.143000", "094854.146000", "094854.149000", "094854.152000", "094854.155000", "094854.158000", "094854.161000", "094854.163000", "094854.166000", "094854.169000", "094854.172000", "094854.175000", "094854.178000", "094854.181000", "094854.184000", "094854.186000", "094854.189000", "094854.192000", "094854.195000", "094934.120000", "094934.123000", "094934.126000", "094934.129000", "094934.132000", "094934.135000", "094934.137000", "094934.140000", "094934.143000", "094934.146000", "094934.149000", "094934.152000", "094934.155000", "094934.158000", "094934.160000", "094934.163000", "094934.166000", "094934.169000", "094934.172000", "094934.175000", "094934.178000", "094934.181000", "094934.183000", "094934.186000", "094934.189000", "094934.193000", "095014.120000", "095014.123000", "095014.126000", "095014.129000", "095014.132000", "095014.135000", "095014.138000", "095014.140000", "095014.143000", "095014.146000", "095014.149000", "095014.152000", "095014.155000", "095014.158000", "095014.161000", "095014.164000", "095014.167000", "095014.169000", "095014.172000", "095014.175000", "095014.178000", "095014.181000", "095014.184000", "095014.187000", "095014.190000", "095014.192000", "095014.195000", "095054.120000", "095054.123000", "095054.126000", "095054.129000", "095054.132000", "095054.135000", "095054.138000", "095054.141000", "095054.143000", "095054.146000", "095054.149000", "095054.152000", "095054.155000", "095054.158000", "095054.161000", "095054.164000", "095054.167000", "095054.170000", "095054.173000", "095054.176000", "095054.178000", "095054.181000", "095054.184000", "095054.187000", "095054.190000", "095054.193000", "095054.196000", "095134.120000", "095134.123000", "095134.126000", "095134.129000", "095134.132000", "095134.135000", "095134.138000", "095134.140000", "095134.143000", "095134.146000", "095134.149000", "095134.152000", "095134.155000", "095134.158000", "095134.161000", "095134.164000", "095134.167000", "095134.170000", "095134.173000", "095134.175000", "095134.178000", "095134.181000", "095134.184000", "095134.187000", "095134.190000", "095134.193000", "095134.196000", "095214.120000", "095214.123000", "095214.126000", "095214.129000", "095214.132000", "095214.135000", "095214.138000", "095214.140000", "095214.143000", "095214.146000", "095214.149000", "095214.152000", "095214.155000", "095214.158000", "095214.161000", "095214.164000", "095214.167000", "095214.170000", "095214.173000", "095214.175000", "095214.178000", "095214.181000", "095214.184000", "095214.187000", "095214.190000", "095214.193000", "095214.196000", "095233.184000", "095233.187000", "095233.190000", "095233.193000", "095233.196000", "095233.199000", "095233.202000", "095233.205000", "095233.208000", "095233.211000", "095233.214000", "095233.217000", "095233.220000"],
