{
  "AcquisitionMatrixPE": 104,
  "AcquisitionNumber": 1,
  "AcquisitionTime": "09:53:53.695000",
  "BandwidthPerPixelPhaseEncode": 17.17,
  "BaseResolution": 104,
  "BodyPartExamined": "BRAIN",
  "CoilString": "HC1-7;NC1_2",
  "ConsistencyInfo": "N4_VE11C_LATEST_20160120",
  "ConversionSoftware": "dcm2niix",
  "ConversionSoftwareVersion": "v1.0.20190902",
  "DerivedVendorReportedEchoSpacing": 0.000560011,
  "DeviceSerialNumber": "167006",
  "DwellTime": 2.1e-06,
  "EchoTime": 0.037,
  "EchoTrainLength": 104,
  "EffectiveEchoSpacing": 0.000560011,
  "FlipAngle": 52,
  "ImageComments": "Unaliased_MB4_PE3_LB",
  "ImageOrientationPatientDICOM": [0.997718, 0.0641355, 0.0211266, -0.0561305, 0.961638, -0.268517],
  "ImageType": [
    "ORIGINAL",
    "PRIMARY",
    "M",
    "MB",
    "ND",
    "MOSAIC"
],
  "ImagingFrequency": 123.259,
  "InPlanePhaseEncodingDirectionDICOM": "COL",
  "InstitutionAddress": "Chemin_Queen-Mary_4565_Montreal_District_CA_H3W_1W5",
  "InstitutionName": "IUGM",
  "InstitutionalDepartmentName": "Department",
  "MRAcquisitionType": "2D",
  "MagneticFieldStrength": 3,
  "Manufacturer": "Siemens",
  "ManufacturersModelName": "Prisma_fit",
  "Modality": "MR",
  "MultibandAccelerationFactor": 4,
  "PartialFourier": 1,
  "PatientPosition": "HFS",
  "PercentPhaseFOV": 100,
  "PhaseEncodingDirection": "j",
  "PhaseEncodingSteps": 104,
  "PhaseResolution": 1,
  "PixelBandwidth": 2290,
  "ProcedureStepDescription": "video_friends",
  "ProtocolName": "func_task-friends-s03e16a",
  "PulseSequenceDetails": "%CustomerSeq%_cmrr_mbep2d_bold",
  "ReceiveCoilActiveElements": "HC1-7;NC1,2",
  "ReceiveCoilName": "HeadNeck_64",
  "ReconMatrixPE": 104,
  "RepetitionTime": 1.49,
  "SAR": 0.0382771,
  "ScanOptions": "FS",
  "ScanningSequence": "EP",
  "SequenceName": "epfid2d1_104",
  "SequenceVariant": "SK_SS",
  "SeriesDescription": "func_task-friends-s03e16a",
  "SeriesNumber": 13,
  "ShimSetting": [635, -7214, -8822, 683, 98, -75, 98, -14],
  "SliceThickness": 2,
  "SliceTiming": [0, 0.785, 0.0975, 0.8825, 0.1975, 0.98, 0.295, 1.0775, 0.3925, 1.1775, 0.49, 1.275, 0.5875, 1.3725, 0.6875, 0, 0.785, 0.0975, 0.8825, 0.1975, 0.98, 0.295, 1.0775, 0.3925, 1.1775, 0.49, 1.275, 0.5875, 1.3725, 0.6875, 0, 0.785, 0.0975, 0.8825, 0.1975, 0.98, 0.295, 1.0775, 0.3925, 1.1775, 0.49, 1.275, 0.5875, 1.3725, 0.6875, 0, 0.785, 0.0975, 0.8825, 0.1975, 0.98, 0.295, 1.0775, 0.3925, 1.1775, 0.49, 1.275, 0.5875, 1.3725, 0.6875],
  "SoftwareVersions": "syngo_MR_E11",
  "SpacingBetweenSlices": 2,
  "StationName": "MRC35049",
  "TaskName": "s03e16a",
  "TotalReadoutTime": 0.0576811,
  "TxRefAmp": 245.432,
  "WipMemBlock": "bf3e05b0-3e96-4fca-a50a-4ec0ff168b2c||Sequence: R016 ve11c/master r/e634e98; Dec 19 2017 11:00:25 by eja",
  "dcmmeta_affine": [
    [-1.995435118675232, -0.11226092278957367, 0.07507520914077759, 106.71717834472656],
    [-0.12827108800411224, 1.923276424407959, -0.5334362387657166, -67.69092559814453],
    [0.04225316643714905, 0.5370336771011353, 1.9260865449905396, -53.476409912109375],
    [0.0, 0.0, 0.0, 1.0]
],
  "dcmmeta_reorient_transform": [
    [0.0, -1.0, 0.0, 103.0],
    [1.0, 0.0, 0.0, 0.0],
    [0.0, 0.0, 1.0, 0.0],
    [0.0, 0.0, 0.0, 1.0]
],
  "dcmmeta_shape": [104, 104, 60, 468],
  "dcmmeta_slice_dim": 2,
  "dcmmeta_version": 0.6,
  "global": {
    "const": {
      "AcquisitionMatrix": [104, 0, 0, 104],
      "AngioFlag": "N",
      "BitsAllocated": 16,
      "BitsStored": 16,
      "BodyPartExamined": "BRAIN",
      "Columns": 832,
      "EchoNumbers": 1,
      "EchoTime": 37.0,
      "EchoTrainLength": 104,
      "FlipAngle": 52.0,
      "HighBit": 15,
      "ImageOrientationPatient": [0.99771754504037, 0.06413554259289, 0.02112658266121, -0.0561304609253, 0.96163822243276, -0.2685168533122],
      "ImagePositionPatient": [-780.62969773909, -877.16984672009, 181.93817936373],
      "ImageType": [
        "ORIGINAL",
        "PRIMARY",
        "M",
        "MB",
        "ND",
        "MOSAIC"
],
      "ImagedNucleus": "1H",
      "ImagingFrequency": 123.259287,
      "InPlanePhaseEncodingDirection": "COL",
      "MRAcquisitionType": "2D",
      "MagneticFieldStrength": 3.0,
      "Manufacturer": "SIEMENS",
      "ManufacturerModelName": "Prisma_fit",
      "Modality": "MR",
      "NumberOfAverages": 1.0,
      "NumberOfPhaseEncodingSteps": 104,
      "PercentPhaseFieldOfView": 100.0,
      "PercentSampling": 100.0,
      "PerformedProcedureStepStartTime": "085551.575000",
      "PhotometricInterpretation": "MONOCHROME2",
      "PixelBandwidth": 2290.0,
      "PixelRepresentation": 0,
      "PixelSpacing": [2.0, 2.0],
      "ProtocolName": "func_task-friends-s03e16a",
      "RepetitionTime": 1490.0,
      "Rows": 832,
      "SAR": 0.03827711515235,
      "SamplesPerPixel": 1,
      "ScanOptions": "FS",
      "ScanningSequence": "EP",
      "SequenceName": "epfid2d1_104",
      "SequenceVariant": [
        "SK",
        "SS"
],
      "SeriesDescription": "func_task-friends-s03e16a",
      "SeriesNumber": 13,
      "SeriesTime": "095459.591000",
      "SliceLocation": -29.439792159465,
      "SliceThickness": 2.0,
      "SmallestImagePixelValue": 0,
      "SoftwareVersions": "syngo MR E11",
      "SpacingBetweenSlices": 1.9999999857906,
      "SpecificCharacterSet": "ISO_IR 100",
      "StudyID": "1",
      "StudyTime": "085551.436000",
      "TransmitCoilName": "Body",
      "VariableFlipAngleFlag": "N",
      "WindowCenterWidthExplanation": "Algo1",
      "dBdt": 0.0},
    "slices": {}
  },
  "time": {
    "samples": {
      "AcquisitionNumber": [1, 2, 3, 4, 5, 6, 7, 8, 9, 10, 11, 12, 13, 14, 15, 16, 17, 18, 19, 20, 21, 22, 23, 24, 25, 26, 27, 28, 29, 30, 31, 32, 33, 34, 35, 36, 37, 38, 39, 40, 41, 42, 43, 44, 45, 46, 47, 48, 49, 50, 51, 52, 53, 54, 55, 56, 57, 58, 59, 60, 61, 62, 63, 64, 65, 66, 67, 68, 69, 70, 71, 72, 73, 74, 75, 76, 77, 78, 79, 80, 81, 82, 83, 84, 85, 86, 87, 88, 89, 90, 91, 92, 93, 94, 95, 96, 97, 98, 99, 100, 101, 102, 103, 104, 105, 106, 107, 108, 109, 110, 111, 112, 113, 114, 115, 116, 117, 118, 119, 120, 121, 122, 123, 124, 125, 126, 127, 128, 129, 130, 131, 132, 133, 134, 135, 136, 137, 138, 139, 140, 141, 142, 143, 144, 145, 146, 147, 148, 149, 150, 151, 152, 153, 154, 155, 156, 157, 158, 159, 160, 161, 162, 163, 164, 165, 166, 167, 168, 169, 170, 171, 172, 173, 174, 175, 176, 177, 178, 179, 180, 181, 182, 183, 184, 185, 186, 187, 188, 189, 190, 191, 192, 193, 194, 195, 196, 197, 198, 199, 200, 201, 202, 203, 204, 205, 206, 207, 208, 209, 210, 211, 212, 213, 214, 215, 216, 217, 218, 219, 220, 221, 222, 223, 224, 225, 226, 227, 228, 229, 230, 231, 232, 233, 234, 235, 236, 237, 238, 239, 240, 241, 242, 243, 244, 245, 246, 247, 248, 249, 250, 251, 252, 253, 254, 255, 256, 257, 258, 259, 260, 261, 262, 263, 264, 265, 266, 267, 268, 269, 270, 271, 272, 273, 274, 275, 276, 277, 278, 279, 280, 281, 282, 283, 284, 285, 286, 287, 288, 289, 290, 291, 292, 293, 294, 295, 296, 297, 298, 299, 300, 301, 302, 303, 304, 305, 306, 307, 308, 309, 310, 311, 312, 313, 314, 315, 316, 317, 318, 319, 320, 321, 322, 323, 324, 325, 326, 327, 328, 329, 330, 331, 332, 333, 334, 335, 336, 337, 338, 339, 340, 341, 342, 343, 344, 345, 346, 347, 348, 349, 350, 351, 352, 353, 354, 355, 356, 357, 358, 359, 360, 361, 362, 363, 364, 365, 366, 367, 368, 369, 370, 371, 372, 373, 374, 375, 376, 377, 378, 379, 380, 381, 382, 383, 384, 385, 386, 387, 388, 389, 390, 391, 392, 393, 394, 395, 396, 397, 398, 399, 400, 401, 402, 403, 404, 405, 406, 407, 408, 409, 410, 411, 412, 413, 414, 415, 416, 417, 418, 419, 420, 421, 422, 423, 424, 425, 426, 427, 428, 429, 430, 431, 432, 433, 434, 435, 436, 437, 438, 439, 440, 441, 442, 443, 444, 445, 446, 447, 448, 449, 450, 451, 452, 453, 454, 455, 456, 457, 458, 459, 460, 461, 462, 463, 464, 465, 466, 467, 468],
      "AcquisitionTime": ["095353.695000", "095355.185000", "095356.675000", "095358.165000", "095359.655000", "095401.145000", "095402.635000", "095404.125000", "095405.615000", "095407.105000", "095408.595000", "095410.085000", "095411.575000", "095413.065000", "095414.555000", "095416.045000", "095417.535000", "095419.025000", "095420.515000", "095422.005000", "095423.495000", "095424.985000", "095426.475000", "095427.965000", "095429.455000", "095430.945000", "095432.435000", "095433.925000", "095435.415000", "095436.905000", "095438.395000", "095439.885000", "095441.375000", "095442.865000", "095444.355000", "095445.845000", "095447.335000", "095448.825000", "095450.315000", "095451.805000", "095453.295000", "095454.785000", "095456.275000", "095457.765000", "095459.255000", "095500.745000", "095502.235000", "095503.725000", "095505.215000", "095506.705000", "095508.195000", "095509.685000", "095511.175000", "095512.665000", "095514.155000", "095515.645000", "095517.135000", "095518.625000", "095520.115000", "095521.605000", "095523.095000", "095524.585000", "095526.075000", "095527.565000", "095529.055000", "095530.545000", "095532.035000", "095533.525000", "095535.015000", "095536.505000", "095537.995000", "095539.485000", "095540.975000", "095542.465000", "095543.955000", "095545.445000", "095546.935000", "095548.425000", "095549.915000", "095551.405000", "095552.895000", "095554.385000", "095555.875000", "095557.365000", "095558.855000", "095600.345000", "095601.835000", "095603.325000", "095604.815000", "095606.305000", "095607.795000", "095609.285000", "095610.775000", "095612.265000", "095613.755000", "095615.245000", "095616.735000", "095618.225000", "095619.715000", "095621.205000", "095622.695000", "095624.185000", "095625.675000", "095627.165000", "095628.655000", "095630.145000", "095631.635000", "095633.125000", "095634.615000", "095636.105000", "095637.595000", "095639.085000", "095640.575000", "095642.065000", "095643.555000", "095645.045000", "095646.535000", "095648.025000", "095649.515000", "095651.005000", "095652.495000", "095653.985000", "095655.475000", "095656.965000", "095658.455000", "095659.945000", "095701.435000", "095702.925000", "095704.415000", "095705.905000", "095707.395000", "095708.885000", "095710.375000", "095711.865000", "095713.355000", "095714.845000", "095716.335000", "095717.825000", "095719.315000", "095720.805000", "095722.295000", "095723.785000", "095725.275000", "095726.765000", "095728.255000", "095729.745000", "095731.235000", "095732.725000", "095734.215000", "095735.705000", "095737.195000", "095738.685000", "095740.175000", "095741.665000", "095743.155000", "095744.645000", "095746.135000", "095747.625000", "095749.115000", "095750.605000", "095752.095000", "095753.585000", "095755.075000", "095756.565000", "095758.055000", "095759.545000", "095801.035000", "095802.525000", "095804.015000", "095805.505000", "095806.995000", "095808.485000", "095809.975000", "095811.465000", "095812.955000", "095814.445000", "095815.935000", "095817.425000", "095818.915000", "095820.405000", "095821.895000", "095823.385000", "095824.875000", "095826.365000", "095827.855000", "095829.345000", "095830.835000", "095832.325000", "095833.815000", "095835.305000", "095836.795000", "095838.285000", "095839.775000", "095841.265000", "095842.755000", "095844.245000", "095845.735000", "095847.225000", "095848.715000", "095850.205000", "095851.695000", "095853.185000", "095854.675000", "095856.165000", "095857.655000", "095859.145000", "095900.635000", "095902.125000", "095903.615000", "095905.105000", "095906.595000", "095908.085000", "095909.575000", "095911.065000", "095912.555000", "095914.045000", "095915.535000", "095917.025000", "095918.515000", "095920.005000", "095921.495000", "095922.985000", "095924.475000", "095925.965000", "095927.455000", "095928.945000", "095930.435000", "095931.925000", "095933.415000", "095934.905000", "095936.395000", "095937.885000", "095939.375000", "095940.865000", "095942.355000", "095943.845000", "095945.335000", "095946.825000", "095948.315000", "095949.805000", "095951.295000", "095952.785000", "095954.275000", "095955.765000", "095957.255000", "095958.745000", "100000.235000", "100001.725000", "100003.215000", "100004.705000", "100006.195000", "100007.685000", "100009.175000", "100010.665000", "100012.155000", "100013.645000", "100015.135000", "100016.625000", "100018.115000", "100019.605000", "100021.095000", "100022.585000", "100024.075000", "100025.565000", "100027.055000", "100028.545000", "100030.035000", "100031.525000", "100033.015000", "100034.505000", "100035.995000", "100037.485000", "100038.975000", "100040.465000", "100041.955000", "100043.445000", "100044.935000", "100046.425000", "100047.915000", "100049.405000", "100050.895000", "100052.385000", "100053.875000", "100055.365000", "100056.855000", "100058.345000", "100059.835000", "100101.325000", "100102.815000", "100104.305000", "100105.795000", "100107.285000", "100108.775000", "100110.265000", "100111.755000", "100113.245000", "100114.735000", "100116.225000", "100117.715000", "100119.205000", "100120.695000", "100122.185000", "100123.675000", "100125.165000", "100126.655000", "100128.145000", "100129.635000", "100131.125000", "100132.615000", "100134.105000", "100135.595000", "100137.085000", "100138.575000", "100140.065000", "100141.555000", "100143.045000", "100144.535000", "100146.025000", "100147.515000", "100149.005000", "100150.495000", "100151.985000", "100153.475000", "100154.965000", "100156.455000", "100157.945000", "100159.435000", "100200.925000", "100202.415000", "100203.905000", "100205.395000", "100206.885000", "100208.375000", "100209.865000", "100211.355000", "100212.845000", "100214.335000", "100215.825000", "100217.315000", "100218.805000", "100220.295000", "100221.785000", "100223.275000", "100224.765000", "100226.255000", "100227.745000", "100229.235000", "100230.725000", "100232.215000", "100233.705000", "100235.195000", "100236.685000", "100238.175000", "100239.665000", "100241.155000", "100242.645000", "100244.135000", "100245.625000", "100247.115000", "100248.605000", "100250.095000", "100251.585000", "100253.075000", "100254.565000", "100256.055000", "100257.545000", "100259.035000", "100300.525000", "100302.015000", "100303.505000", "100304.995000", "100306.485000", "100307.975000", "100309.465000", "100310.955000", "100312.445000", "100313.935000", "100315.425000", "100316.915000", "100318.405000", "100319.895000", "100321.385000", "100322.875000", "100324.365000", "100325.855000", "100327.345000", "100328.835000", "100330.325000", "100331.815000", "100333.305000", "100334.795000", "100336.285000", "100337.775000", "100339.265000", "100340.755000", "100342.245000", "100343.735000", "100345.225000", "100346.715000", "100348.205000", "100349.695000", "100351.185000", "100352.675000", "100354.165000", "100355.655000", "100357.145000", "100358.635000", "100400.125000", "100401.615000", "100403.105000", "100404.595000", "100406.085000", "100407.575000", "100409.065000", "100410.555000", "100412.045000", "100413.535000", "100415.025000", "100416.515000", "100418.005000", "100419.495000", "100420.985000", "100422.475000", "100423.965000", "100425.455000", "100426.945000", "100428.435000", "100429.925000", "100431.415000", "100432.905000", "100434.395000", "100435.885000", "100437.375000", "100438.865000", "100440.355000", "100441.845000", "100443.335000", "100444.825000", "100446.315000", "100447.805000", "100449.295000", "100450.785000", "100452.275000", "100453.765000", "100455.255000", "100456.745000", "100458.235000", "100459.725000", "100501.215000", "100502.705000", "100504.195000", "100505.685000", "100507.175000", "100508.665000", "100510.155000", "100511.645000", "100513.135000", "100514.625000", "100516.115000", "100517.605000", "100519.095000", "100520.585000", "100522.075000", "100523.565000", "100525.055000", "100526.545000", "100528.035000", "100529.525000"],
      "ContentTime": ["095459.594000", "095459.597000", "095459.600000", "095459.603000", "095459.606000", "095459.609000", "095459.619000", "095459.622000", "095459.625000", "095459.628000", "095459.631000", "095459.633000", "095519.565000", "095519.568000", "095519.571000", "095519.574000", "095519.585000", "095519.588000", "095519.591000", "095519.593000", "095519.596000", "095519.599000", "095519.602000", "095519.605000", "095519.608000", "095519.611000", "095519.613000", "095519.616000", "095519.619000", "095519.622000", "095519.625000", "095519.628000", "095539.565000", "095539.568000", "095539.571000", "095539.574000", "095539.577000", "095539.580000", "095539.583000", "095539.587000", "095539.590000", "095539.593000", "095539.596000", "095539.599000", "095539.602000", "095539.605000", "095539.608000", "095539.611000", "095539.613000", "095539.616000", "095539.619000", "095539.622000", "095559.565000", "095559.568000", "095559.571000", "095559.574000", "095559.577000", "095559.579000", "095559.582000", "095559.585000", "095559.588000", "095559.591000", "095559.594000", "095559.597000", "095559.600000", "095559.602000", "095559.605000", "095559.608000", "095559.611000", "095559.614000", "095559.617000", "095559.619000", "095559.622000", "095619.565000", "095619.568000", "095619.571000", "095619.574000", "095619.577000", "095619.580000", "095619.582000", "095619.585000", "095619.588000", "095619.591000", "095619.594000", "095619.597000", "095619.600000", "095619.603000", "095619.605000", "095619.608000", "095619.611000", "095619.614000", "095619.617000", "095619.620000", "095659.565000", "095659.568000", "095659.571000", "095659.574000", "095659.577000", "095659.579000", "095659.582000", "095659.585000", "095659.588000", "095659.591000", "095659.604000", "095659.607000", "095659.610000", "095659.613000", "095659.616000", "095659.619000", "095659.621000", "095659.624000", "095659.627000", "095659.630000", "095659.633000", "095659.635000", "095659.649000", "095659.652000", "095659.655000", "095659.657000", "095659.660000", "095659.663000", "095659.666000", "095659.669000", "095659.672000", "095739.565000", "095739.568000", "095739.571000", "095739.574000", "095739.577000", "095739.579000", "095739.583000", "095739.585000", "095739.588000", "095739.591000", "095739.594000", "095739.597000", "095739.600000", "095739.602000", "095739.605000", "095739.608000", "095739.611000", "095739.614000", "095739.617000", "095739.620000", "095739.623000", "095739.625000", "095739.628000", "095739.631000", "095739.634000", "095739.637000", "095739.640000", "095819.565000", "095819.568000", "095819.571000", "095819.574000", "095819.577000", "095819.580000", "095819.583000", "095819.585000", "095819.588000", "095819.591000", "095819.594000", "095819.597000", "095819.600000", "095819.603000", "095819.605000", "095819.608000", "095819.611000", "095819.614000", "095819.617000", "095819.620000", "095819.623000", "095819.626000", "095819.629000", "095819.631000", "095819.634000", "095819.637000", "095819.640000", "095859.566000", "095859.569000", "095859.572000", "095859.575000", "095859.578000", "095859.581000", "095859.583000", "095859.586000", "095859.589000", "095859.592000", "095859.595000", "095859.598000", "095859.601000", "095859.604000", "095859.606000", "095859.609000", "095859.612000", "095859.615000", "095859.618000", "095859.621000", "095859.624000", "095859.627000", "095859.630000", "095859.632000", "095859.635000", "095859.638000", "095859.641000", "095939.565000", "095939.568000", "095939.571000", "095939.574000", "095939.577000", "095939.580000", "095939.583000", "095939.586000", "095939.589000", "095939.591000", "095939.594000", "095939.597000", "095939.600000", "095939.603000", "095939.606000", "095939.609000", "095939.611000", "095939.614000", "095939.617000", "095939.620000", "095939.623000", "095939.626000", "095939.628000", "095939.631000", "095939.634000", "095939.637000", "095939.640000", "100019.565000", "100019.568000", "100019.571000", "100019.574000", "100019.577000", "100019.585000", "100019.588000", "100019.591000", "100019.594000", "100019.597000", "100019.600000", "100019.603000", "100019.606000", "100019.608000", "100019.611000", "100019.614000", "100019.617000", "100019.620000", "100019.623000", "100019.626000", "100019.629000", "100019.631000", "100019.634000", "100019.637000", "100019.640000", "100019.644000", "100059.565000", "100059.568000", "100059.571000", "100059.574000", "100059.577000", "100059.580000", "100059.583000", "100059.585000", "100059.588000", "100059.591000", "100059.594000", "100059.597000", "100059.600000", "100059.603000", "100059.605000", "100059.608000", "100059.611000", "100059.614000", "100059.617000", "100059.620000", "100059.623000", "100059.626000", "100059.628000", "100059.631000", "100059.634000", "100059.637000", "100059.640000", "100139.565000", "100139.568000", "100139.588000", "100139.591000", "100139.594000", "100139.597000", "100139.600000", "100139.603000", "100139.606000", "100139.609000", "100139.611000", "100139.614000", "100139.617000", "100139.620000", "100139.623000", "100139.626000", "100139.629000", "100139.632000", "100139.634000", "100139.637000", "100139.640000", "100139.643000", "100139.646000", "100139.649000", "100139.652000", "100139.654000", "100139.657000", "100219.565000", "100219.568000", "100219.571000", "100219.574000", "100219.577000", "100219.580000", "100219.583000", "100219.585000", "100219.588000", "100219.591000", "100219.594000", "100219.597000", "100219.600000", "100219.603000", "100219.606000", "100219.608000", "100219.611000", "100219.614000", "100219.617000", "100219.620000", "100219.623000", "100219.626000", "100219.629000", "100219.632000", "100219.634000", "100219.637000", "100219.640000", "100259.565000", "100259.568000", "100259.571000", "100259.574000", "100259.577000", "100259.580000", "100259.583000", "100259.586000", "100259.589000", "100259.592000", "100259.594000", "100259.597000", "100259.600000", "100259.603000", "100259.606000", "100259.609000", "100259.611000", "100259.614000", "100259.617000", "100259.620000", "100259.623000", "100259.626000", "100259.629000", "100259.632000", "100259.634000", "100259.637000", "100259.640000", "100339.565000", "100339.568000", "100339.571000", "100339.574000", "100339.577000", "100339.580000", "100339.582000", "100339.585000", "100339.588000", "100339.591000", "100339.594000", "100339.597000", "100339.600000", "100339.603000", "100339.606000", "100339.608000", "100339.611000", "100339.614000", "100339.617000", "100339.620000", "100339.623000", "100339.626000", "100339.629000", "100339.631000", "100339.634000", "100339.637000", "100339.640000", "100419.565000", "100419.568000", "100419.571000", "100419.574000", "100419.577000", "100419.580000", "100419.583000", "100419.585000", "100419.588000", "100419.591000", "100419.594000", "100419.597000", "100419.600000", "100419.603000", "100419.606000", "100419.609000", "100419.612000", "100419.615000", "100419.618000", "100419.620000", "100419.623000", "100419.626000", "100419.629000", "100419.632000", "100419.635000", "100419.638000", "100439.565000", "100439.568000", "100439.571000", "100439.586000", "100439.589000", "100439.592000", "100439.595000", "100439.598000", "100439.602000", "100439.605000", "100439.608000", "100439.611000", "100439.613000", "100439.616000", "100519.565000", "100519.568000", "100519.571000", "100519.574000", "100519.577000", "100519.580000", "100519.583000", "100519.586000", "100519.588000", "100519.591000", "100519.594000", "100519.597000", "100519.600000", "100519.603000", "100519.606000", "100519.609000", "100519.611000", "100519.614000", "100519.617000", "100519.620000", "100519.623000", "100519.626000", "100519.629000", "100519.632000", "100519.635000", "100519.637000", "100519.640000", "100531.231000", "100531.234000", "100531.237000", "100531.240000", "100531.243000", "100531.246000", "100531.248000", "100531.251000"],
