{
  "AcquisitionMatrixPE": 104,
  "AcquisitionNumber": 1,
  "AcquisitionTime": "15:32:36.962500",
  "BandwidthPerPixelPhaseEncode": 17.17,
  "BaseResolution": 104,
  "BodyPartExamined": "BRAIN",
  "CoilString": "HC1-7;NC1_2",
  "ConsistencyInfo": "N4_VE11C_LATEST_20160120",
  "ConversionSoftware": "dcm2niix",
  "ConversionSoftwareVersion": "v1.0.20190902",
  "DerivedVendorReportedEchoSpacing": 0.000560011,
  "DeviceSerialNumber": "167006",
  "DwellTime": 2.1e-06,
  "EchoTime": 0.037,
  "EchoTrainLength": 104,
  "EffectiveEchoSpacing": 0.000560011,
  "FlipAngle": 52,
  "ImageComments": "Unaliased_MB4_PE3_LB",
  "ImageOrientationPatientDICOM": [0.999057, -0.0426954, 0.00793452, 0.042921, 0.943012, -0.329979],
  "ImageType": [
    "ORIGINAL",
    "PRIMARY",
    "M",
    "MB",
    "ND",
    "MOSAIC"
],
  "ImagingFrequency": 123.259,
  "InPlanePhaseEncodingDirectionDICOM": "COL",
  "InstitutionAddress": "Chemin_Queen-Mary_4565_Montreal_District_CA_H3W_1W5",
  "InstitutionName": "IUGM",
  "InstitutionalDepartmentName": "Department",
  "MRAcquisitionType": "2D",
  "MagneticFieldStrength": 3,
  "Manufacturer": "Siemens",
  "ManufacturersModelName": "Prisma_fit",
  "Modality": "MR",
  "MultibandAccelerationFactor": 4,
  "PartialFourier": 1,
  "PatientPosition": "HFS",
  "PercentPhaseFOV": 100,
  "PhaseEncodingDirection": "j",
  "PhaseEncodingSteps": 104,
  "PhaseResolution": 1,
  "PixelBandwidth": 2290,
  "ProcedureStepDescription": "video_friends",
  "ProtocolName": "func_task-friends-s05e16a",
  "PulseSequenceDetails": "%CustomerSeq%_cmrr_mbep2d_bold",
  "ReceiveCoilActiveElements": "HC1-7;NC1,2",
  "ReceiveCoilName": "HeadNeck_64",
  "ReconMatrixPE": 104,
  "RepetitionTime": 1.49,
  "SAR": 0.029335,
  "ScanOptions": "FS",
  "ScanningSequence": "EP",
  "SequenceName": "epfid2d1_104",
  "SequenceVariant": "SK_SS",
  "SeriesDescription": "func_task-friends-s05e16a",
  "SeriesNumber": 9,
  "ShimSetting": [636, -7256, -8842, 657, 22, -207, -48, -11],
  "SliceThickness": 2,
  "SliceTiming": [0, 0.7825, 0.0975, 0.88, 0.195, 0.9775, 0.2925, 1.0775, 0.39, 1.175, 0.4875, 1.2725, 0.5875, 1.37, 0.685, 0, 0.7825, 0.0975, 0.88, 0.195, 0.9775, 0.2925, 1.0775, 0.39, 1.175, 0.4875, 1.2725, 0.5875, 1.37, 0.685, 0, 0.7825, 0.0975, 0.88, 0.195, 0.9775, 0.2925, 1.0775, 0.39, 1.175, 0.4875, 1.2725, 0.5875, 1.37, 0.685, 0, 0.7825, 0.0975, 0.88, 0.195, 0.9775, 0.2925, 1.0775, 0.39, 1.175, 0.4875, 1.2725, 0.5875, 1.37, 0.685],
  "SoftwareVersions": "syngo_MR_E11",
  "SpacingBetweenSlices": 2,
  "StationName": "MRC35049",
  "TaskName": "s05e16a",
  "TotalReadoutTime": 0.0576811,
  "TxRefAmp": 218.461,
  "WipMemBlock": "d618f82e-4a98-4450-9ded-5ae0091728b8||Sequence: R016 ve11c/master r/e634e98; Dec 19 2017 11:00:25 by eja",
  "dcmmeta_affine": [
    [-1.9981132745742798, 0.08584190905094147, -0.013212465681135654, 98.43280792236328],
    [0.08539072424173355, 1.8860238790512085, -0.6600168347358704, -78.55431365966797],
    [0.015869038179516792, 0.6599582433700562, 1.8879098892211914, -70.46427917480469],
    [0.0, 0.0, 0.0, 1.0]
],
  "dcmmeta_reorient_transform": [
    [0.0, -1.0, 0.0, 103.0],
    [1.0, 0.0, 0.0, 0.0],
    [0.0, 0.0, 1.0, 0.0],
    [0.0, 0.0, 0.0, 1.0]
],
  "dcmmeta_shape": [104, 104, 60, 485],
  "dcmmeta_slice_dim": 2,
  "dcmmeta_version": 0.6,
  "global": {
    "const": {
      "AcquisitionMatrix": [104, 0, 0, 104],
      "AngioFlag": "N",
      "BitsAllocated": 16,
      "BitsStored": 16,
      "BodyPartExamined": "BRAIN",
      "Columns": 832,
      "EchoNumbers": 1,
      "EchoTime": 37.0,
      "EchoTrainLength": 104,
      "FlipAngle": 52.0,
      "HighBit": 15,
      "ImageOrientationPatient": [0.99905662968571, -0.0426953638252, 0.00793451881725, 0.04292095489237, 0.94301196465303, -0.3299791298739],
      "ImagePositionPatient": [-865.83420688008, -771.13663881747, 231.9598999685],
      "ImageType": [
        "ORIGINAL",
        "PRIMARY",
        "M",
        "MB",
        "ND",
        "MOSAIC"
],
      "ImagedNucleus": "1H",
      "ImagingFrequency": 123.25909,
      "InPlanePhaseEncodingDirection": "COL",
      "MRAcquisitionType": "2D",
      "MagneticFieldStrength": 3.0,
      "Manufacturer": "SIEMENS",
      "ManufacturerModelName": "Prisma_fit",
      "Modality": "MR",
      "NumberOfAverages": 1.0,
      "NumberOfPhaseEncodingSteps": 104,
      "PercentPhaseFieldOfView": 100.0,
      "PercentSampling": 100.0,
      "PerformedProcedureStepStartTime": "150842.562000",
      "PhotometricInterpretation": "MONOCHROME2",
      "PixelBandwidth": 2290.0,
      "PixelRepresentation": 0,
      "PixelSpacing": [2.0, 2.0],
      "ProtocolName": "func_task-friends-s05e16a",
      "RepetitionTime": 1490.0,
      "Rows": 832,
      "SAR": 0.02933496843593,
      "SamplesPerPixel": 1,
      "ScanOptions": "FS",
      "ScanningSequence": "EP",
      "SequenceName": "epfid2d1_104",
      "SequenceVariant": [
        "SK",
        "SS"
],
      "SeriesDescription": "func_task-friends-s05e16a",
      "SeriesNumber": 9,
      "SeriesTime": "153355.246000",
      "SliceLocation": -41.241786703905,
      "SliceThickness": 2.0,
      "SmallestImagePixelValue": 0,
      "SoftwareVersions": "syngo MR E11",
      "SpacingBetweenSlices": 2.0000000739571,
      "SpecificCharacterSet": "ISO_IR 100",
      "StudyID": "1",
      "StudyTime": "150842.508000",
      "TransmitCoilName": "Body",
      "VariableFlipAngleFlag": "N",
      "WindowCenterWidthExplanation": "Algo1",
      "dBdt": 0.0},
    "slices": {}
  },
  "time": {
    "samples": {
      "AcquisitionNumber": [1, 2, 3, 4, 5, 6, 7, 8, 9, 10, 11, 12, 13, 14, 15, 16, 17, 18, 19, 20, 21, 22, 23, 24, 25, 26, 27, 28, 29, 30, 31, 32, 33, 34, 35, 36, 37, 38, 39, 40, 41, 42, 43, 44, 45, 46, 47, 48, 49, 50, 51, 52, 53, 54, 55, 56, 57, 58, 59, 60, 61, 62, 63, 64, 65, 66, 67, 68, 69, 70, 71, 72, 73, 74, 75, 76, 77, 78, 79, 80, 81, 82, 83, 84, 85, 86, 87, 88, 89, 90, 91, 92, 93, 94, 95, 96, 97, 98, 99, 100, 101, 102, 103, 104, 105, 106, 107, 108, 109, 110, 111, 112, 113, 114, 115, 116, 117, 118, 119, 120, 121, 122, 123, 124, 125, 126, 127, 128, 129, 130, 131, 132, 133, 134, 135, 136, 137, 138, 139, 140, 141, 142, 143, 144, 145, 146, 147, 148, 149, 150, 151, 152, 153, 154, 155, 156, 157, 158, 159, 160, 161, 162, 163, 164, 165, 166, 167, 168, 169, 170, 171, 172, 173, 174, 175, 176, 177, 178, 179, 180, 181, 182, 183, 184, 185, 186, 187, 188, 189, 190, 191, 192, 193, 194, 195, 196, 197, 198, 199, 200, 201, 202, 203, 204, 205, 206, 207, 208, 209, 210, 211, 212, 213, 214, 215, 216, 217, 218, 219, 220, 221, 222, 223, 224, 225, 226, 227, 228, 229, 230, 231, 232, 233, 234, 235, 236, 237, 238, 239, 240, 241, 242, 243, 244, 245, 246, 247, 248, 249, 250, 251, 252, 253, 254, 255, 256, 257, 258, 259, 260, 261, 262, 263, 264, 265, 266, 267, 268, 269, 270, 271, 272, 273, 274, 275, 276, 277, 278, 279, 280, 281, 282, 283, 284, 285, 286, 287, 288, 289, 290, 291, 292, 293, 294, 295, 296, 297, 298, 299, 300, 301, 302, 303, 304, 305, 306, 307, 308, 309, 310, 311, 312, 313, 314, 315, 316, 317, 318, 319, 320, 321, 322, 323, 324, 325, 326, 327, 328, 329, 330, 331, 332, 333, 334, 335, 336, 337, 338, 339, 340, 341, 342, 343, 344, 345, 346, 347, 348, 349, 350, 351, 352, 353, 354, 355, 356, 357, 358, 359, 360, 361, 362, 363, 364, 365, 366, 367, 368, 369, 370, 371, 372, 373, 374, 375, 376, 377, 378, 379, 380, 381, 382, 383, 384, 385, 386, 387, 388, 389, 390, 391, 392, 393, 394, 395, 396, 397, 398, 399, 400, 401, 402, 403, 404, 405, 406, 407, 408, 409, 410, 411, 412, 413, 414, 415, 416, 417, 418, 419, 420, 421, 422, 423, 424, 425, 426, 427, 428, 429, 430, 431, 432, 433, 434, 435, 436, 437, 438, 439, 440, 441, 442, 443, 444, 445, 446, 447, 448, 449, 450, 451, 452, 453, 454, 455, 456, 457, 458, 459, 460, 461, 462, 463, 464, 465, 466, 467, 468, 469, 470, 471, 472, 473, 474, 475, 476, 477, 478, 479, 480, 481, 482, 483, 484, 485],
      "AcquisitionTime": ["153236.962500", "153238.452500", "153239.942500", "153241.432500", "153242.922500", "153244.412500", "153245.902500", "153247.392500", "153248.882500", "153250.372500", "153251.862500", "153253.352500", "153254.842500", "153256.332500", "153257.822500", "153259.312500", "153300.802500", "153302.292500", "153303.782500", "153305.272500", "153306.762500", "153308.252500", "153309.742500", "153311.232500", "153312.722500", "153314.212500", "153315.702500", "153317.192500", "153318.682500", "153320.172500", "153321.662500", "153323.152500", "153324.642500", "153326.132500", "153327.622500", "153329.112500", "153330.602500", "153332.092500", "153333.582500", "153335.072500", "153336.562500", "153338.052500", "153339.542500", "153341.032500", "153342.522500", "153344.012500", "153345.502500", "153346.992500", "153348.482500", "153349.972500", "153351.462500", "153352.952500", "153354.442500", "153355.932500", "153357.422500", "153358.912500", "153400.402500", "153401.892500", "153403.382500", "153404.872500", "153406.362500", "153407.852500", "153409.342500", "153410.832500", "153412.322500", "153413.812500", "153415.302500", "153416.792500", "153418.282500", "153419.772500", "153421.262500", "153422.752500", "153424.242500", "153425.732500", "153427.222500", "153428.712500", "153430.202500", "153431.692500", "153433.182500", "153434.672500", "153436.162500", "153437.652500", "153439.142500", "153440.632500", "153442.122500", "153443.612500", "153445.102500", "153446.592500", "153448.082500", "153449.572500", "153451.062500", "153452.552500", "153454.042500", "153455.532500", "153457.022500", "153458.512500", "153500.002500", "153501.492500", "153502.982500", "153504.472500", "153505.962500", "153507.452500", "153508.942500", "153510.432500", "153511.922500", "153513.412500", "153514.902500", "153516.392500", "153517.882500", "153519.372500", "153520.862500", "153522.352500", "153523.842500", "153525.332500", "153526.822500", "153528.312500", "153529.802500", "153531.292500", "153532.782500", "153534.272500", "153535.762500", "153537.252500", "153538.742500", "153540.232500", "153541.722500", "153543.212500", "153544.702500", "153546.192500", "153547.682500", "153549.172500", "153550.662500", "153552.152500", "153553.642500", "153555.132500", "153556.622500", "153558.112500", "153559.602500", "153601.092500", "153602.582500", "153604.072500", "153605.562500", "153607.052500", "153608.542500", "153610.032500", "153611.522500", "153613.012500", "153614.502500", "153615.992500", "153617.482500", "153618.972500", "153620.462500", "153621.952500", "153623.442500", "153624.932500", "153626.422500", "153627.912500", "153629.402500", "153630.892500", "153632.382500", "153633.872500", "153635.362500", "153636.852500", "153638.342500", "153639.832500", "153641.322500", "153642.812500", "153644.302500", "153645.792500", "153647.282500", "153648.772500", "153650.262500", "153651.752500", "153653.242500", "153654.732500", "153656.222500", "153657.712500", "153659.202500", "153700.692500", "153702.182500", "153703.672500", "153705.162500", "153706.652500", "153708.142500", "153709.632500", "153711.122500", "153712.612500", "153714.102500", "153715.592500", "153717.082500", "153718.572500", "153720.062500", "153721.552500", "153723.042500", "153724.532500", "153726.022500", "153727.512500", "153729.002500", "153730.492500", "153731.982500", "153733.472500", "153734.962500", "153736.452500", "153737.942500", "153739.432500", "153740.922500", "153742.412500", "153743.902500", "153745.392500", "153746.882500", "153748.372500", "153749.862500", "153751.352500", "153752.842500", "153754.332500", "153755.822500", "153757.312500", "153758.802500", "153800.292500", "153801.782500", "153803.272500", "153804.762500", "153806.252500", "153807.742500", "153809.232500", "153810.722500", "153812.212500", "153813.702500", "153815.192500", "153816.682500", "153818.172500", "153819.662500", "153821.152500", "153822.642500", "153824.132500", "153825.622500", "153827.112500", "153828.602500", "153830.092500", "153831.582500", "153833.072500", "153834.562500", "153836.052500", "153837.542500", "153839.032500", "153840.522500", "153842.012500", "153843.502500", "153844.992500", "153846.482500", "153847.972500", "153849.462500", "153850.952500", "153852.442500", "153853.932500", "153855.422500", "153856.912500", "153858.402500", "153859.892500", "153901.382500", "153902.872500", "153904.362500", "153905.852500", "153907.342500", "153908.832500", "153910.322500", "153911.812500", "153913.302500", "153914.792500", "153916.282500", "153917.772500", "153919.262500", "153920.752500", "153922.242500", "153923.732500", "153925.222500", "153926.712500", "153928.202500", "153929.692500", "153931.182500", "153932.672500", "153934.162500", "153935.652500", "153937.142500", "153938.632500", "153940.122500", "153941.612500", "153943.102500", "153944.592500", "153946.082500", "153947.572500", "153949.062500", "153950.552500", "153952.042500", "153953.532500", "153955.022500", "153956.512500", "153958.002500", "153959.492500", "154000.982500", "154002.472500", "154003.962500", "154005.452500", "154006.942500", "154008.432500", "154009.922500", "154011.412500", "154012.902500", "154014.392500", "154015.882500", "154017.372500", "154018.862500", "154020.352500", "154021.842500", "154023.332500", "154024.822500", "154026.312500", "154027.802500", "154029.292500", "154030.782500", "154032.272500", "154033.762500", "154035.252500", "154036.742500", "154038.232500", "154039.722500", "154041.212500", "154042.702500", "154044.192500", "154045.682500", "154047.172500", "154048.662500", "154050.152500", "154051.642500", "154053.132500", "154054.622500", "154056.112500", "154057.602500", "154059.092500", "154100.582500", "154102.072500", "154103.562500", "154105.052500", "154106.542500", "154108.032500", "154109.522500", "154111.012500", "154112.502500", "154113.992500", "154115.482500", "154116.972500", "154118.462500", "154119.952500", "154121.442500", "154122.932500", "154124.422500", "154125.912500", "154127.402500", "154128.892500", "154130.382500", "154131.872500", "154133.362500", "154134.852500", "154136.342500", "154137.832500", "154139.322500", "154140.812500", "154142.302500", "154143.792500", "154145.282500", "154146.772500", "154148.262500", "154149.752500", "154151.242500", "154152.732500", "154154.222500", "154155.712500", "154157.202500", "154158.692500", "154200.182500", "154201.672500", "154203.162500", "154204.652500", "154206.142500", "154207.632500", "154209.122500", "154210.612500", "154212.102500", "154213.592500", "154215.082500", "154216.572500", "154218.062500", "154219.552500", "154221.042500", "154222.532500", "154224.022500", "154225.512500", "154227.002500", "154228.492500", "154229.982500", "154231.472500", "154232.962500", "154234.452500", "154235.942500", "154237.432500", "154238.922500", "154240.412500", "154241.902500", "154243.392500", "154244.882500", "154246.372500", "154247.862500", "154249.352500", "154250.842500", "154252.332500", "154253.822500", "154255.312500", "154256.802500", "154258.292500", "154259.782500", "154301.272500", "154302.762500", "154304.252500", "154305.742500", "154307.232500", "154308.722500", "154310.212500", "154311.702500", "154313.192500", "154314.682500", "154316.172500", "154317.662500", "154319.152500", "154320.642500", "154322.132500", "154323.622500", "154325.112500", "154326.602500", "154328.092500", "154329.582500", "154331.072500", "154332.562500", "154334.052500", "154335.542500", "154337.032500", "154338.522500", "154340.012500", "154341.502500", "154342.992500", "154344.482500", "154345.972500", "154347.462500", "154348.952500", "154350.442500", "154351.932500", "154353.422500", "154354.912500", "154356.402500", "154357.892500", "154359.382500", "154400.872500", "154402.362500", "154403.852500", "154405.342500", "154406.832500", "154408.322500", "154409.812500", "154411.302500", "154412.792500", "154414.282500", "154415.772500", "154417.262500", "154418.752500", "154420.242500", "154421.732500", "154423.222500", "154424.712500", "154426.202500", "154427.692500", "154429.182500", "154430.672500", "154432.162500", "154433.652500", "154435.142500", "154436.632500", "154438.122500"],
      "ContentTime": ["153355.249000", "153355.257000", "153355.260000", "153355.263000", "153355.270000", "153355.273000", "153355.276000", "153355.279000", "153355.282000", "153355.285000", "153355.287000", "153355.290000", "153355.296000", "153355.299000", "153355.302000", "153355.308000", "153355.311000", "153355.314000", "153355.317000", "153355.320000", "153355.323000", "153355.326000", "153355.329000", "153355.332000", "153355.335000", "153355.338000", "153415.216000", "153415.219000", "153415.222000", "153415.225000", "153415.234000", "153415.237000", "153415.240000", "153415.242000", "153415.245000", "153415.248000", "153415.251000", "153415.254000", "153415.257000", "153415.260000", "153415.263000", "153415.265000", "153415.268000", "153415.271000", "153415.274000", "153415.277000", "153435.216000", "153435.219000", "153435.222000", "153435.225000", "153435.228000", "153435.230000", "153435.233000", "153435.236000", "153435.239000", "153435.242000", "153435.245000", "153435.248000", "153435.251000", "153435.253000", "153435.256000", "153435.259000", "153435.262000", "153435.265000", "153435.268000", "153435.271000", "153455.215000", "153455.218000", "153455.221000", "153455.224000", "153455.226000", "153455.229000", "153455.232000", "153455.235000", "153455.238000", "153455.241000", "153455.244000", "153455.247000", "153455.250000", "153455.253000", "153455.256000", "153455.259000", "153455.262000", "153455.264000", "153455.267000", "153455.270000", "153515.216000", "153515.219000", "153515.222000", "153515.225000", "153515.227000", "153515.230000", "153515.233000", "153515.236000", "153515.239000", "153515.242000", "153515.245000", "153515.248000", "153515.250000", "153515.253000", "153515.256000", "153515.259000", "153515.262000", "153515.265000", "153515.268000", "153515.271000", "153555.216000", "153555.219000", "153555.222000", "153555.225000", "153555.228000", "153555.230000", "153555.233000", "153555.236000", "153555.239000", "153555.242000", "153555.245000", "153555.248000", "153555.251000", "153555.254000", "153555.257000", "153555.260000", "153555.262000", "153555.265000", "153555.268000", "153555.271000", "153555.274000", "153555.277000", "153555.280000", "153555.283000", "153555.286000", "153555.289000", "153635.216000", "153635.219000", "153635.222000", "153635.225000", "153635.228000", "153635.230000", "153635.233000", "153635.236000", "153635.239000", "153635.242000", "153635.245000", "153635.248000", "153635.251000", "153635.254000", "153635.257000", "153635.260000", "153635.262000", "153635.265000", "153635.268000", "153635.271000", "153635.274000", "153635.277000", "153635.280000", "153635.283000", "153635.297000", "153635.300000", "153635.303000", "153715.215000", "153715.218000", "153715.221000", "153715.224000", "153715.227000", "153715.230000", "153715.233000", "153715.235000", "153715.238000", "153715.241000", "153715.244000", "153715.247000", "153715.250000", "153715.253000", "153715.256000", "153715.258000", "153715.261000", "153715.264000", "153715.267000", "153715.270000", "153715.273000", "153715.276000", "153715.279000", "153715.282000", "153715.285000", "153715.288000", "153715.291000", "153755.216000", "153755.219000", "153755.222000", "153755.224000", "153755.228000", "153755.230000", "153755.233000", "153755.236000", "153755.239000", "153755.242000", "153755.245000", "153755.248000", "153755.251000", "153755.254000", "153755.256000", "153755.259000", "153755.262000", "153755.265000", "153755.268000", "153755.271000", "153755.274000", "153755.277000", "153755.280000", "153755.282000", "153755.285000", "153755.288000", "153755.291000", "153835.216000", "153835.219000", "153835.222000", "153835.225000", "153835.228000", "153835.231000", "153835.233000", "153835.236000", "153835.239000", "153835.242000", "153835.245000", "153835.248000", "153835.251000", "153835.254000", "153835.257000", "153835.260000", "153835.262000", "153835.265000", "153835.268000", "153835.271000", "153835.274000", "153835.277000", "153835.280000", "153835.283000", "153835.286000", "153835.288000", "153835.291000", "153915.216000", "153915.219000", "153915.222000", "153915.225000", "153915.228000", "153915.231000", "153915.234000", "153915.237000", "153915.240000", "153915.242000", "153915.245000", "153915.248000", "153915.251000", "153915.254000", "153915.257000", "153915.260000", "153915.263000", "153915.265000", "153915.268000", "153915.271000", "153915.274000", "153915.277000", "153915.280000", "153915.283000", "153915.286000", "153915.289000", "153915.292000", "153955.216000", "153955.219000", "153955.222000", "153955.225000", "153955.228000", "153955.231000", "153955.234000", "153955.237000", "153955.240000", "153955.243000", "153955.246000", "153955.249000", "153955.252000", "153955.254000", "153955.257000", "153955.260000", "153955.263000", "153955.266000", "153955.269000", "153955.272000", "153955.275000", "153955.277000", "153955.280000", "153955.283000", "153955.286000", "153955.289000", "154035.216000", "154035.219000", "154035.222000", "154035.225000", "154035.228000", "154035.230000", "154035.233000", "154035.236000", "154035.239000", "154035.242000", "154035.245000", "154035.248000", "154035.251000", "154035.254000", "154035.257000", "154035.260000", "154035.263000", "154035.265000", "154035.268000", "154035.271000", "154035.274000", "154035.277000", "154035.280000", "154035.283000", "154035.286000", "154035.288000", "154035.291000", "154115.216000", "154115.219000", "154115.222000", "154115.225000", "154115.228000", "154115.231000", "154115.234000", "154115.237000", "154115.240000", "154115.242000", "154115.245000", "154115.248000", "154115.251000", "154115.254000", "154115.257000", "154115.260000", "154115.263000", "154115.266000", "154115.269000", "154115.283000", "154115.286000", "154115.289000", "154115.292000", "154115.295000", "154115.297000", "154115.300000", "154115.303000", "154155.215000", "154155.218000", "154155.221000", "154155.224000", "154155.227000", "154155.230000", "154155.233000", "154155.236000", "154155.239000", "154155.242000", "154155.244000", "154155.247000", "154155.250000", "154155.253000", "154155.256000", "154155.259000", "154155.262000", "154155.265000", "154155.268000", "154155.270000", "154155.273000", "154155.276000", "154155.279000", "154155.282000", "154155.285000", "154155.288000", "154155.290000", "154235.216000", "154235.219000", "154235.222000", "154235.225000", "154235.228000", "154235.231000", "154235.233000", "154235.236000", "154235.239000", "154235.242000", "154235.245000", "154235.248000", "154235.251000", "154235.254000", "154235.257000", "154235.259000", "154235.263000", "154235.265000", "154235.268000", "154235.271000", "154235.274000", "154235.277000", "154235.280000", "154235.283000", "154235.286000", "154235.289000", "154235.291000", "154315.216000", "154315.219000", "154315.222000", "154315.225000", "154315.228000", "154315.231000", "154315.234000", "154315.237000", "154315.240000", "154315.242000", "154315.245000", "154315.248000", "154315.251000", "154315.254000", "154315.257000", "154315.260000", "154315.263000", "154315.266000", "154315.269000", "154315.272000", "154315.274000", "154315.277000", "154315.280000", "154315.283000", "154315.286000", "154315.289000", "154315.292000", "154355.216000", "154355.219000", "154355.222000", "154355.225000", "154355.228000", "154355.231000", "154355.234000", "154355.237000", "154355.239000", "154355.242000", "154355.245000", "154355.248000", "154355.251000", "154355.254000", "154355.257000", "154355.260000", "154355.263000", "154355.265000", "154355.268000", "154355.271000", "154355.274000", "154355.277000", "154355.280000", "154355.283000", "154355.286000", "154355.289000", "154355.292000", "154415.215000", "154415.218000", "154415.221000", "154415.224000", "154415.227000", "154415.230000", "154415.233000", "154415.236000", "154415.239000", "154415.242000", "154415.245000", "154415.247000", "154415.250000", "154439.956000", "154439.959000", "154439.962000", "154439.965000", "154439.968000", "154439.971000", "154439.974000", "154439.977000", "154439.980000", "154439.983000", "154439.986000", "154439.989000", "154439.992000", "154439.996000", "154440.000000", "154440.003000", "154440.005000"],
