{
  "AcquisitionMatrixPE": 104,
  "AcquisitionNumber": 1,
  "AcquisitionTime": "15:45:23.232500",
  "BandwidthPerPixelPhaseEncode": 17.17,
  "BaseResolution": 104,
  "BodyPartExamined": "BRAIN",
  "CoilString": "HC1-7;NC1_2",
  "ConsistencyInfo": "N4_VE11C_LATEST_20160120",
  "ConversionSoftware": "dcm2niix",
  "ConversionSoftwareVersion": "v1.0.20190902",
  "DerivedVendorReportedEchoSpacing": 0.000560011,
  "DeviceSerialNumber": "167006",
  "DwellTime": 2.1e-06,
  "EchoTime": 0.037,
  "EchoTrainLength": 104,
  "EffectiveEchoSpacing": 0.000560011,
  "FlipAngle": 52,
  "ImageComments": "Unaliased_MB4_PE3_LB",
  "ImageOrientationPatientDICOM": [0.999057, -0.0426954, 0.00793452, 0.042921, 0.943012, -0.329979],
  "ImageType": [
    "ORIGINAL",
    "PRIMARY",
    "M",
    "MB",
    "ND",
    "MOSAIC"
],
  "ImagingFrequency": 123.259,
  "InPlanePhaseEncodingDirectionDICOM": "COL",
  "InstitutionAddress": "Chemin_Queen-Mary_4565_Montreal_District_CA_H3W_1W5",
  "InstitutionName": "IUGM",
  "InstitutionalDepartmentName": "Department",
  "MRAcquisitionType": "2D",
  "MagneticFieldStrength": 3,
  "Manufacturer": "Siemens",
  "ManufacturersModelName": "Prisma_fit",
  "Modality": "MR",
  "MultibandAccelerationFactor": 4,
  "PartialFourier": 1,
  "PatientPosition": "HFS",
  "PercentPhaseFOV": 100,
  "PhaseEncodingDirection": "j",
  "PhaseEncodingSteps": 104,
  "PhaseResolution": 1,
  "PixelBandwidth": 2290,
  "ProcedureStepDescription": "video_friends",
  "ProtocolName": "func_task-friends-s05e16b",
  "PulseSequenceDetails": "%CustomerSeq%_cmrr_mbep2d_bold",
  "ReceiveCoilActiveElements": "HC1-7;NC1,2",
  "ReceiveCoilName": "HeadNeck_64",
  "ReconMatrixPE": 104,
  "RepetitionTime": 1.49,
  "SAR": 0.0293428,
  "ScanOptions": "FS",
  "ScanningSequence": "EP",
  "SequenceName": "epfid2d1_104",
  "SequenceVariant": "SK_SS",
  "SeriesDescription": "func_task-friends-s05e16b",
  "SeriesNumber": 11,
  "ShimSetting": [636, -7256, -8842, 657, 22, -207, -48, -11],
  "SliceThickness": 2,
  "SliceTiming": [0, 0.7825, 0.0975, 0.88, 0.195, 0.98, 0.2925, 1.0775, 0.3925, 1.175, 0.49, 1.2725, 0.5875, 1.37, 0.685, 0, 0.7825, 0.0975, 0.88, 0.195, 0.98, 0.2925, 1.0775, 0.3925, 1.175, 0.49, 1.2725, 0.5875, 1.37, 0.685, 0, 0.7825, 0.0975, 0.88, 0.195, 0.98, 0.2925, 1.0775, 0.3925, 1.175, 0.49, 1.2725, 0.5875, 1.37, 0.685, 0, 0.7825, 0.0975, 0.88, 0.195, 0.98, 0.2925, 1.0775, 0.3925, 1.175, 0.49, 1.2725, 0.5875, 1.37, 0.685],
  "SoftwareVersions": "syngo_MR_E11",
  "SpacingBetweenSlices": 2,
  "StationName": "MRC35049",
  "TaskName": "s05e16b",
  "TotalReadoutTime": 0.0576811,
  "TxRefAmp": 218.461,
  "WipMemBlock": "0dea64c5-6772-4aac-83b5-2e1df7a27b14||Sequence: R016 ve11c/master r/e634e98; Dec 19 2017 11:00:25 by eja",
  "dcmmeta_affine": [
    [-1.9981132745742798, 0.08584190905094147, -0.013212465681135654, 98.43280792236328],
    [0.08539072424173355, 1.8860238790512085, -0.6600168347358704, -78.55431365966797],
    [0.015869038179516792, 0.6599582433700562, 1.8879098892211914, -70.46427917480469],
    [0.0, 0.0, 0.0, 1.0]
],
  "dcmmeta_reorient_transform": [
    [0.0, -1.0, 0.0, 103.0],
    [1.0, 0.0, 0.0, 0.0],
    [0.0, 0.0, 1.0, 0.0],
    [0.0, 0.0, 0.0, 1.0]
],
  "dcmmeta_shape": [104, 104, 60, 519],
  "dcmmeta_slice_dim": 2,
  "dcmmeta_version": 0.6,
  "global": {
    "const": {
      "AcquisitionMatrix": [104, 0, 0, 104],
      "AngioFlag": "N",
      "BitsAllocated": 16,
      "BitsStored": 16,
      "BodyPartExamined": "BRAIN",
      "Columns": 832,
      "EchoNumbers": 1,
      "EchoTime": 37.0,
      "EchoTrainLength": 104,
      "FlipAngle": 52.0,
      "HighBit": 15,
      "ImageOrientationPatient": [0.99905662968571, -0.0426953638252, 0.00793451881725, 0.04292095489237, 0.94301196465303, -0.3299791298739],
      "ImagePositionPatient": [-865.83420688008, -771.13663881747, 231.9598999685],
      "ImageType": [
        "ORIGINAL",
        "PRIMARY",
        "M",
        "MB",
        "ND",
        "MOSAIC"
],
      "ImagedNucleus": "1H",
      "ImagingFrequency": 123.259101,
      "InPlanePhaseEncodingDirection": "COL",
      "MRAcquisitionType": "2D",
      "MagneticFieldStrength": 3.0,
      "Manufacturer": "SIEMENS",
      "ManufacturerModelName": "Prisma_fit",
      "Modality": "MR",
      "NumberOfAverages": 1.0,
      "NumberOfPhaseEncodingSteps": 104,
      "PercentPhaseFieldOfView": 100.0,
      "PercentSampling": 100.0,
      "PerformedProcedureStepStartTime": "150842.562000",
      "PhotometricInterpretation": "MONOCHROME2",
      "PixelBandwidth": 2290.0,
      "PixelRepresentation": 0,
      "PixelSpacing": [2.0, 2.0],
      "ProtocolName": "func_task-friends-s05e16b",
      "RepetitionTime": 1490.0,
      "Rows": 832,
      "SAR": 0.02934281094162,
      "SamplesPerPixel": 1,
      "ScanOptions": "FS",
      "ScanningSequence": "EP",
      "SequenceName": "epfid2d1_104",
      "SequenceVariant": [
        "SK",
        "SS"
],
      "SeriesDescription": "func_task-friends-s05e16b",
      "SeriesNumber": 11,
      "SeriesTime": "154641.227000",
      "SliceLocation": -41.241786703905,
      "SliceThickness": 2.0,
      "SmallestImagePixelValue": 0,
      "SoftwareVersions": "syngo MR E11",
      "SpacingBetweenSlices": 2.0000000739571,
      "SpecificCharacterSet": "ISO_IR 100",
      "StudyID": "1",
      "StudyTime": "150842.508000",
      "TransmitCoilName": "Body",
      "VariableFlipAngleFlag": "N",
      "WindowCenterWidthExplanation": "Algo1",
      "dBdt": 0.0},
    "slices": {}
  },
  "time": {
    "samples": {
      "AcquisitionNumber": [1, 2, 3, 4, 5, 6, 7, 8, 9, 10, 11, 12, 13, 14, 15, 16, 17, 18, 19, 20, 21, 22, 23, 24, 25, 26, 27, 28, 29, 30, 31, 32, 33, 34, 35, 36, 37, 38, 39, 40, 41, 42, 43, 44, 45, 46, 47, 48, 49, 50, 51, 52, 53, 54, 55, 56, 57, 58, 59, 60, 61, 62, 63, 64, 65, 66, 67, 68, 69, 70, 71, 72, 73, 74, 75, 76, 77, 78, 79, 80, 81, 82, 83, 84, 85, 86, 87, 88, 89, 90, 91, 92, 93, 94, 95, 96, 97, 98, 99, 100, 101, 102, 103, 104, 105, 106, 107, 108, 109, 110, 111, 112, 113, 114, 115, 116, 117, 118, 119, 120, 121, 122, 123, 124, 125, 126, 127, 128, 129, 130, 131, 132, 133, 134, 135, 136, 137, 138, 139, 140, 141, 142, 143, 144, 145, 146, 147, 148, 149, 150, 151, 152, 153, 154, 155, 156, 157, 158, 159, 160, 161, 162, 163, 164, 165, 166, 167, 168, 169, 170, 171, 172, 173, 174, 175, 176, 177, 178, 179, 180, 181, 182, 183, 184, 185, 186, 187, 188, 189, 190, 191, 192, 193, 194, 195, 196, 197, 198, 199, 200, 201, 202, 203, 204, 205, 206, 207, 208, 209, 210, 211, 212, 213, 214, 215, 216, 217, 218, 219, 220, 221, 222, 223, 224, 225, 226, 227, 228, 229, 230, 231, 232, 233, 234, 235, 236, 237, 238, 239, 240, 241, 242, 243, 244, 245, 246, 247, 248, 249, 250, 251, 252, 253, 254, 255, 256, 257, 258, 259, 260, 261, 262, 263, 264, 265, 266, 267, 268, 269, 270, 271, 272, 273, 274, 275, 276, 277, 278, 279, 280, 281, 282, 283, 284, 285, 286, 287, 288, 289, 290, 291, 292, 293, 294, 295, 296, 297, 298, 299, 300, 301, 302, 303, 304, 305, 306, 307, 308, 309, 310, 311, 312, 313, 314, 315, 316, 317, 318, 319, 320, 321, 322, 323, 324, 325, 326, 327, 328, 329, 330, 331, 332, 333, 334, 335, 336, 337, 338, 339, 340, 341, 342, 343, 344, 345, 346, 347, 348, 349, 350, 351, 352, 353, 354, 355, 356, 357, 358, 359, 360, 361, 362, 363, 364, 365, 366, 367, 368, 369, 370, 371, 372, 373, 374, 375, 376, 377, 378, 379, 380, 381, 382, 383, 384, 385, 386, 387, 388, 389, 390, 391, 392, 393, 394, 395, 396, 397, 398, 399, 400, 401, 402, 403, 404, 405, 406, 407, 408, 409, 410, 411, 412, 413, 414, 415, 416, 417, 418, 419, 420, 421, 422, 423, 424, 425, 426, 427, 428, 429, 430, 431, 432, 433, 434, 435, 436, 437, 438, 439, 440, 441, 442, 443, 444, 445, 446, 447, 448, 449, 450, 451, 452, 453, 454, 455, 456, 457, 458, 459, 460, 461, 462, 463, 464, 465, 466, 467, 468, 469, 470, 471, 472, 473, 474, 475, 476, 477, 478, 479, 480, 481, 482, 483, 484, 485, 486, 487, 488, 489, 490, 491, 492, 493, 494, 495, 496, 497, 498, 499, 500, 501, 502, 503, 504, 505, 506, 507, 508, 509, 510, 511, 512, 513, 514, 515, 516, 517, 518, 519],
      "AcquisitionTime": ["154523.232500", "154524.722500", "154526.212500", "154527.702500", "154529.192500", "154530.682500", "154532.172500", "154533.662500", "154535.152500", "154536.642500", "154538.132500", "154539.622500", "154541.112500", "154542.602500", "154544.092500", "154545.582500", "154547.072500", "154548.562500", "154550.052500", "154551.542500", "154553.032500", "154554.522500", "154556.012500", "154557.502500", "154558.992500", "154600.482500", "154601.972500", "154603.462500", "154604.952500", "154606.442500", "154607.932500", "154609.422500", "154610.912500", "154612.402500", "154613.892500", "154615.382500", "154616.872500", "154618.362500", "154619.852500", "154621.342500", "154622.832500", "154624.322500", "154625.812500", "154627.302500", "154628.792500", "154630.282500", "154631.772500", "154633.262500", "154634.752500", "154636.242500", "154637.732500", "154639.222500", "154640.712500", "154642.202500", "154643.692500", "154645.182500", "154646.672500", "154648.162500", "154649.652500", "154651.142500", "154652.632500", "154654.122500", "154655.612500", "154657.102500", "154658.592500", "154700.082500", "154701.572500", "154703.062500", "154704.552500", "154706.042500", "154707.532500", "154709.022500", "154710.512500", "154712.002500", "154713.492500", "154714.982500", "154716.472500", "154717.962500", "154719.452500", "154720.942500", "154722.432500", "154723.922500", "154725.412500", "154726.902500", "154728.392500", "154729.882500", "154731.372500", "154732.862500", "154734.352500", "154735.842500", "154737.332500", "154738.822500", "154740.312500", "154741.802500", "154743.292500", "154744.782500", "154746.272500", "154747.762500", "154749.252500", "154750.742500", "154752.232500", "154753.722500", "154755.212500", "154756.702500", "154758.192500", "154759.682500", "154801.172500", "154802.662500", "154804.152500", "154805.642500", "154807.132500", "154808.622500", "154810.112500", "154811.602500", "154813.092500", "154814.582500", "154816.072500", "154817.562500", "154819.052500", "154820.542500", "154822.032500", "154823.522500", "154825.012500", "154826.502500", "154827.992500", "154829.482500", "154830.972500", "154832.462500", "154833.952500", "154835.442500", "154836.932500", "154838.422500", "154839.912500", "154841.402500", "154842.892500", "154844.382500", "154845.872500", "154847.362500", "154848.852500", "154850.342500", "154851.832500", "154853.322500", "154854.812500", "154856.302500", "154857.792500", "154859.282500", "154900.772500", "154902.262500", "154903.752500", "154905.242500", "154906.732500", "154908.222500", "154909.712500", "154911.202500", "154912.692500", "154914.182500", "154915.672500", "154917.162500", "154918.652500", "154920.142500", "154921.632500", "154923.122500", "154924.612500", "154926.102500", "154927.592500", "154929.082500", "154930.572500", "154932.062500", "154933.552500", "154935.042500", "154936.532500", "154938.022500", "154939.512500", "154941.002500", "154942.492500", "154943.982500", "154945.472500", "154946.962500", "154948.452500", "154949.942500", "154951.432500", "154952.922500", "154954.412500", "154955.902500", "154957.392500", "154958.882500", "155000.372500", "155001.862500", "155003.352500", "155004.842500", "155006.332500", "155007.822500", "155009.312500", "155010.802500", "155012.292500", "155013.782500", "155015.272500", "155016.762500", "155018.252500", "155019.742500", "155021.232500", "155022.722500", "155024.212500", "155025.702500", "155027.192500", "155028.682500", "155030.172500", "155031.662500", "155033.152500", "155034.642500", "155036.132500", "155037.622500", "155039.112500", "155040.602500", "155042.092500", "155043.582500", "155045.072500", "155046.562500", "155048.052500", "155049.542500", "155051.032500", "155052.522500", "155054.012500", "155055.502500", "155056.992500", "155058.482500", "155059.972500", "155101.462500", "155102.952500", "155104.442500", "155105.932500", "155107.422500", "155108.912500", "155110.402500", "155111.892500", "155113.382500", "155114.872500", "155116.362500", "155117.852500", "155119.342500", "155120.832500", "155122.322500", "155123.812500", "155125.302500", "155126.792500", "155128.282500", "155129.772500", "155131.262500", "155132.752500", "155134.242500", "155135.732500", "155137.222500", "155138.712500", "155140.202500", "155141.692500", "155143.182500", "155144.672500", "155146.162500", "155147.652500", "155149.142500", "155150.632500", "155152.122500", "155153.612500", "155155.102500", "155156.592500", "155158.082500", "155159.572500", "155201.062500", "155202.552500", "155204.042500", "155205.532500", "155207.022500", "155208.512500", "155210.002500", "155211.492500", "155212.982500", "155214.472500", "155215.962500", "155217.452500", "155218.942500", "155220.432500", "155221.922500", "155223.412500", "155224.902500", "155226.392500", "155227.882500", "155229.372500", "155230.862500", "155232.352500", "155233.842500", "155235.332500", "155236.822500", "155238.312500", "155239.802500", "155241.292500", "155242.782500", "155244.272500", "155245.762500", "155247.252500", "155248.742500", "155250.232500", "155251.722500", "155253.212500", "155254.702500", "155256.192500", "155257.682500", "155259.172500", "155300.662500", "155302.152500", "155303.642500", "155305.132500", "155306.622500", "155308.112500", "155309.602500", "155311.092500", "155312.582500", "155314.072500", "155315.562500", "155317.052500", "155318.542500", "155320.032500", "155321.522500", "155323.012500", "155324.502500", "155325.992500", "155327.482500", "155328.972500", "155330.462500", "155331.952500", "155333.442500", "155334.932500", "155336.422500", "155337.912500", "155339.402500", "155340.892500", "155342.382500", "155343.872500", "155345.362500", "155346.852500", "155348.342500", "155349.832500", "155351.322500", "155352.812500", "155354.302500", "155355.792500", "155357.282500", "155358.772500", "155400.262500", "155401.752500", "155403.242500", "155404.732500", "155406.222500", "155407.712500", "155409.202500", "155410.692500", "155412.182500", "155413.672500", "155415.162500", "155416.652500", "155418.142500", "155419.632500", "155421.122500", "155422.612500", "155424.102500", "155425.592500", "155427.082500", "155428.572500", "155430.062500", "155431.552500", "155433.042500", "155434.532500", "155436.022500", "155437.512500", "155439.002500", "155440.492500", "155441.982500", "155443.472500", "155444.962500", "155446.452500", "155447.942500", "155449.432500", "155450.922500", "155452.412500", "155453.902500", "155455.392500", "155456.882500", "155458.372500", "155459.862500", "155501.352500", "155502.842500", "155504.332500", "155505.822500", "155507.312500", "155508.802500", "155510.292500", "155511.782500", "155513.272500", "155514.762500", "155516.252500", "155517.742500", "155519.232500", "155520.722500", "155522.212500", "155523.702500", "155525.192500", "155526.682500", "155528.172500", "155529.662500", "155531.152500", "155532.642500", "155534.132500", "155535.622500", "155537.112500", "155538.602500", "155540.092500", "155541.582500", "155543.072500", "155544.562500", "155546.052500", "155547.542500", "155549.032500", "155550.522500", "155552.012500", "155553.502500", "155554.992500", "155556.482500", "155557.972500", "155559.462500", "155600.952500", "155602.442500", "155603.932500", "155605.422500", "155606.912500", "155608.402500", "155609.892500", "155611.382500", "155612.872500", "155614.362500", "155615.852500", "155617.342500", "155618.832500", "155620.322500", "155621.812500", "155623.302500", "155624.792500", "155626.282500", "155627.772500", "155629.262500", "155630.752500", "155632.242500", "155633.732500", "155635.222500", "155636.712500", "155638.202500", "155639.692500", "155641.182500", "155642.672500", "155644.162500", "155645.652500", "155647.142500", "155648.632500", "155650.122500", "155651.612500", "155653.102500", "155654.592500", "155656.082500", "155657.572500", "155659.062500", "155700.552500", "155702.042500", "155703.532500", "155705.022500", "155706.512500", "155708.002500", "155709.492500", "155710.982500", "155712.472500", "155713.962500", "155715.452500", "155716.942500", "155718.432500", "155719.922500", "155721.412500", "155722.902500", "155724.392500", "155725.882500", "155727.372500", "155728.862500", "155730.352500", "155731.842500", "155733.332500", "155734.822500", "155736.312500", "155737.802500", "155739.292500", "155740.782500", "155742.272500", "155743.762500", "155745.252500", "155746.742500", "155748.232500", "155749.722500", "155751.212500", "155752.702500", "155754.192500", "155755.682500", "155757.172500", "155758.662500", "155800.152500", "155801.642500", "155803.132500", "155804.622500", "155806.112500", "155807.602500", "155809.092500", "155810.582500", "155812.072500", "155813.562500", "155815.052500"],
      "ContentTime": ["154641.229000", "154641.233000", "154641.236000", "154641.239000", "154641.241000", "154641.244000", "154641.247000", "154641.251000", "154641.254000", "154641.257000", "154641.260000", "154641.264000", "154641.267000", "154641.271000", "154641.274000", "154641.277000", "154641.283000", "154641.286000", "154641.292000", "154641.295000", "154641.297000", "154641.300000", "154641.303000", "154700.363000", "154700.366000", "154700.369000", "154700.372000", "154700.374000", "154700.377000", "154700.380000", "154700.383000", "154700.386000", "154700.389000", "154700.392000", "154700.394000", "154700.397000", "154700.400000", "154700.403000", "154700.406000", "154700.409000", "154700.411000", "154700.414000", "154700.417000", "154700.420000", "154720.363000", "154720.366000", "154720.369000", "154720.372000", "154720.375000", "154720.377000", "154720.380000", "154720.383000", "154720.386000", "154720.389000", "154720.392000", "154720.395000", "154720.397000", "154720.400000", "154720.403000", "154720.406000", "154720.409000", "154720.412000", "154720.415000", "154720.417000", "154740.363000", "154740.366000", "154740.369000", "154740.372000", "154740.374000", "154740.377000", "154740.380000", "154740.383000", "154740.386000", "154740.389000", "154740.392000", "154740.395000", "154740.397000", "154740.400000", "154740.403000", "154740.406000", "154740.409000", "154740.420000", "154740.423000", "154740.426000", "154800.363000", "154800.366000", "154800.369000", "154800.371000", "154800.374000", "154800.377000", "154800.380000", "154800.383000", "154800.386000", "154800.389000", "154800.392000", "154800.394000", "154800.397000", "154800.400000", "154800.403000", "154800.406000", "154800.409000", "154800.412000", "154800.415000", "154800.417000", "154840.365000", "154840.368000", "154840.371000", "154840.374000", "154840.376000", "154840.379000", "154840.382000", "154840.385000", "154840.388000", "154840.391000", "154840.406000", "154840.409000", "154840.412000", "154840.415000", "154840.419000", "154840.422000", "154840.425000", "154840.428000", "154840.431000", "154840.434000", "154840.436000", "154840.439000", "154840.442000", "154840.445000", "154840.448000", "154840.451000", "154840.454000", "154920.363000", "154920.366000", "154920.369000", "154920.372000", "154920.375000", "154920.378000", "154920.380000", "154920.383000", "154920.386000", "154920.389000", "154920.392000", "154920.395000", "154920.398000", "154920.401000", "154920.404000", "154920.406000", "154920.409000", "154920.412000", "154920.415000", "154920.418000", "154920.421000", "154920.424000", "154920.427000", "154920.429000", "154920.432000", "154920.444000", "154920.447000", "155000.363000", "155000.366000", "155000.369000", "155000.372000", "155000.375000", "155000.377000", "155000.380000", "155000.383000", "155000.386000", "155000.389000", "155000.392000", "155000.395000", "155000.398000", "155000.400000", "155000.403000", "155000.406000", "155000.409000", "155000.412000", "155000.415000", "155000.418000", "155000.420000", "155000.423000", "155000.426000", "155000.429000", "155000.432000", "155000.435000", "155000.438000", "155040.364000", "155040.367000", "155040.376000", "155040.379000", "155040.382000", "155040.385000", "155040.388000", "155040.391000", "155040.394000", "155040.397000", "155040.400000", "155040.403000", "155040.405000", "155040.408000", "155040.411000", "155040.414000", "155040.417000", "155040.420000", "155040.423000", "155040.426000", "155040.428000", "155040.431000", "155040.434000", "155040.437000", "155040.440000", "155040.443000", "155040.446000", "155120.363000", "155120.366000", "155120.369000", "155120.372000", "155120.375000", "155120.377000", "155120.380000", "155120.383000", "155120.386000", "155120.389000", "155120.392000", "155120.395000", "155120.398000", "155120.401000", "155120.403000", "155120.406000", "155120.409000", "155120.412000", "155120.415000", "155120.418000", "155120.421000", "155120.423000", "155120.426000", "155120.429000", "155120.432000", "155120.435000", "155120.438000", "155200.363000", "155200.366000", "155200.369000", "155200.372000", "155200.375000", "155200.378000", "155200.380000", "155200.383000", "155200.386000", "155200.389000", "155200.392000", "155200.395000", "155200.398000", "155200.400000", "155200.403000", "155200.406000", "155200.409000", "155200.412000", "155200.415000", "155200.418000", "155200.421000", "155200.424000", "155200.427000", "155200.429000", "155200.432000", "155200.435000", "155240.363000", "155240.366000", "155240.369000", "155240.372000", "155240.375000", "155240.378000", "155240.380000", "155240.383000", "155240.386000", "155240.389000", "155240.392000", "155240.395000", "155240.398000", "155240.401000", "155240.403000", "155240.406000", "155240.409000", "155240.412000", "155240.415000", "155240.418000", "155240.420000", "155240.423000", "155240.426000", "155240.429000", "155240.432000", "155240.435000", "155240.438000", "155320.363000", "155320.366000", "155320.369000", "155320.372000", "155320.375000", "155320.378000", "155320.380000", "155320.383000", "155320.386000", "155320.389000", "155320.392000", "155320.395000", "155320.398000", "155320.401000", "155320.404000", "155320.407000", "155320.409000", "155320.412000", "155320.415000", "155320.418000", "155320.421000", "155320.424000", "155320.427000", "155320.430000", "155320.432000", "155320.435000", "155320.438000", "155400.363000", "155400.366000", "155400.369000", "155400.372000", "155400.375000", "155400.378000", "155400.381000", "155400.396000", "155400.399000", "155400.402000", "155400.405000", "155400.408000", "155400.410000", "155400.413000", "155400.416000", "155400.419000", "155400.422000", "155400.425000", "155400.428000", "155400.431000", "155400.433000", "155400.443000", "155400.446000", "155400.449000", "155400.451000", "155400.454000", "155400.457000", "155440.363000", "155440.366000", "155440.369000", "155440.372000", "155440.374000", "155440.377000", "155440.380000", "155440.383000", "155440.386000", "155440.389000", "155440.392000", "155440.395000", "155440.397000", "155440.400000", "155440.403000", "155440.406000", "155440.409000", "155440.412000", "155440.415000", "155440.417000", "155440.420000", "155440.423000", "155440.426000", "155440.429000", "155440.432000", "155440.434000", "155440.437000", "155520.364000", "155520.367000", "155520.370000", "155520.373000", "155520.376000", "155520.379000", "155520.382000", "155520.384000", "155520.387000", "155520.390000", "155520.393000", "155520.396000", "155520.399000", "155520.402000", "155520.405000", "155520.407000", "155520.410000", "155520.413000", "155520.416000", "155520.419000", "155520.422000", "155520.425000", "155520.427000", "155520.436000", "155520.439000", "155520.442000", "155520.445000", "155600.363000", "155600.366000", "155600.369000", "155600.373000", "155600.376000", "155600.379000", "155600.382000", "155600.385000", "155600.388000", "155600.391000", "155600.394000", "155600.396000", "155600.399000", "155600.402000", "155600.405000", "155600.408000", "155600.411000", "155600.414000", "155600.417000", "155600.419000", "155600.422000", "155600.425000", "155600.428000", "155600.431000", "155600.434000", "155600.437000", "155640.363000", "155640.366000", "155640.369000", "155640.372000", "155640.375000", "155640.378000", "155640.380000", "155640.383000", "155640.386000", "155640.389000", "155640.392000", "155640.395000", "155640.398000", "155640.400000", "155640.403000", "155640.406000", "155640.409000", "155640.412000", "155640.415000", "155640.418000", "155640.421000", "155640.423000", "155640.426000", "155640.429000", "155640.432000", "155640.435000", "155640.438000", "155720.363000", "155720.366000", "155720.369000", "155720.372000", "155720.375000", "155720.378000", "155720.380000", "155720.383000", "155720.386000", "155720.389000", "155720.392000", "155720.395000", "155720.398000", "155720.400000", "155720.403000", "155720.406000", "155720.409000", "155720.412000", "155720.415000", "155720.418000", "155720.421000", "155720.423000", "155720.426000", "155720.429000", "155720.432000", "155720.435000", "155720.438000", "155800.363000", "155800.366000", "155800.369000", "155800.372000", "155800.375000", "155800.378000", "155800.381000", "155800.383000", "155800.386000", "155800.389000", "155800.392000", "155800.395000", "155800.398000", "155800.401000", "155800.404000", "155800.406000", "155800.422000", "155800.425000", "155800.427000", "155800.430000", "155800.433000", "155800.436000", "155800.439000", "155800.442000", "155800.445000", "155800.447000", "155800.450000", "155817.521000", "155817.524000", "155817.527000", "155817.530000", "155817.533000", "155817.536000", "155817.539000", "155817.542000", "155817.545000", "155817.548000", "155817.551000", "155817.554000"],
