{
  "AcquisitionMatrixPE": 104,
  "AcquisitionNumber": 1,
  "AcquisitionTime": "17:05:2.035000",
  "BandwidthPerPixelPhaseEncode": 17.17,
  "BaseResolution": 104,
  "BodyPartExamined": "BRAIN",
  "CoilString": "HC1-7;NC1_2",
  "ConsistencyInfo": "N4_VE11C_LATEST_20160120",
  "ConversionSoftware": "dcm2niix",
  "ConversionSoftwareVersion": "v1.0.20190902",
  "DerivedVendorReportedEchoSpacing": 0.000560011,
  "DeviceSerialNumber": "167006",
  "DwellTime": 2.1e-06,
  "EchoTime": 0.037,
  "EchoTrainLength": 104,
  "EffectiveEchoSpacing": 0.000560011,
  "FlipAngle": 52,
  "ImageComments": "Unaliased_MB4_PE3_LB",
  "ImageOrientationPatientDICOM": [0.999197, -0.0400781, 2.8278e-05, 0.0375121, 0.934972, -0.352731],
  "ImageType": [
    "ORIGINAL",
    "PRIMARY",
    "M",
    "MB",
    "ND",
    "MOSAIC"
],
  "ImagingFrequency": 123.259,
  "InPlanePhaseEncodingDirectionDICOM": "COL",
  "InstitutionAddress": "Chemin_Queen-Mary_4565_Montreal_District_CA_H3W_1W5",
  "InstitutionName": "IUGM",
  "InstitutionalDepartmentName": "Department",
  "MRAcquisitionType": "2D",
  "MagneticFieldStrength": 3,
  "Manufacturer": "Siemens",
  "ManufacturersModelName": "Prisma_fit",
  "Modality": "MR",
  "MultibandAccelerationFactor": 4,
  "PartialFourier": 1,
  "PatientPosition": "HFS",
  "PercentPhaseFOV": 100,
  "PhaseEncodingDirection": "j",
  "PhaseEncodingSteps": 104,
  "PhaseResolution": 1,
  "PixelBandwidth": 2290,
  "ProcedureStepDescription": "video_friends",
  "ProtocolName": "func_task-friends-s03e24a",
  "PulseSequenceDetails": "%CustomerSeq%_cmrr_mbep2d_bold",
  "ReceiveCoilActiveElements": "HC1-7;NC1,2",
  "ReceiveCoilName": "HeadNeck_64",
  "ReconMatrixPE": 104,
  "RepetitionTime": 1.49,
  "SAR": 0.0320477,
  "ScanOptions": "FS",
  "ScanningSequence": "EP",
  "SequenceName": "epfid2d1_104",
  "SequenceVariant": "SK_SS",
  "SeriesDescription": "func_task-friends-s03e24a",
  "SeriesNumber": 36,
  "ShimSetting": [630, -7267, -8818, 621, 8, -222, -51, -5],
  "SliceThickness": 2,
  "SliceTiming": [0, 0.7825, 0.0975, 0.8825, 0.195, 0.98, 0.295, 1.0775, 0.3925, 1.175, 0.49, 1.2725, 0.5875, 1.3725, 0.685, 0, 0.7825, 0.0975, 0.8825, 0.195, 0.98, 0.295, 1.0775, 0.3925, 1.175, 0.49, 1.2725, 0.5875, 1.3725, 0.685, 0, 0.7825, 0.0975, 0.8825, 0.195, 0.98, 0.295, 1.0775, 0.3925, 1.175, 0.49, 1.2725, 0.5875, 1.3725, 0.685, 0, 0.7825, 0.0975, 0.8825, 0.195, 0.98, 0.295, 1.0775, 0.3925, 1.175, 0.49, 1.2725, 0.5875, 1.3725, 0.685],
  "SoftwareVersions": "syngo_MR_E11",
  "SpacingBetweenSlices": 2,
  "StationName": "MRC35049",
  "TaskName": "s03e24a",
  "TotalReadoutTime": 0.0576811,
  "TxRefAmp": 220.117,
  "WipMemBlock": "279a449f-cbd2-4530-b80c-2ce10747a074||Sequence: R016 ve11c/master r/e634e98; Dec 19 2017 11:00:25 by eja",
  "dcmmeta_affine": [
    [-1.9983930587768555, 0.07502414286136627, -0.028220754116773605, 99.0252685546875],
    [0.08015628159046173, 1.8699449300765991, -0.704897940158844, -75.13886260986328],
    [5.6556087656645104e-05, 0.705462634563446, 1.8714492321014404, -62.26431655883789],
    [0.0, 0.0, 0.0, 1.0]
],
  "dcmmeta_reorient_transform": [
    [0.0, -1.0, 0.0, 103.0],
    [1.0, 0.0, 0.0, 0.0],
    [0.0, 0.0, 1.0, 0.0],
    [0.0, 0.0, 0.0, 1.0]
],
  "dcmmeta_shape": [104, 104, 60, 454],
  "dcmmeta_slice_dim": 2,
  "dcmmeta_version": 0.6,
  "global": {
    "const": {
      "AcquisitionMatrix": [104, 0, 0, 104],
      "AngioFlag": "N",
      "BitsAllocated": 16,
      "BitsStored": 16,
      "BodyPartExamined": "BRAIN",
      "Columns": 832,
      "EchoNumbers": 1,
      "EchoTime": 37.0,
      "EchoTrainLength": 104,
      "FlipAngle": 52.0,
      "HighBit": 15,
      "ImageOrientationPatient": [0.99919654809602, -0.0400781420894, 2.827804444e-05, 0.03751207182708, 0.93497243574265, -0.352731326747],
      "ImagePositionPatient": [-861.47662798558, -768.94850808424, 267.16615682691],
      "ImageType": [
        "ORIGINAL",
        "PRIMARY",
        "M",
        "MB",
        "ND",
        "MOSAIC"
],
      "ImagedNucleus": "1H",
      "ImagingFrequency": 123.259396,
      "InPlanePhaseEncodingDirection": "COL",
      "MRAcquisitionType": "2D",
      "MagneticFieldStrength": 3.0,
      "Manufacturer": "SIEMENS",
      "ManufacturerModelName": "Prisma_fit",
      "Modality": "MR",
      "NumberOfAverages": 1.0,
      "NumberOfPhaseEncodingSteps": 104,
      "PercentPhaseFieldOfView": 100.0,
      "PercentSampling": 100.0,
      "PerformedProcedureStepStartTime": "141906.254000",
      "PhotometricInterpretation": "MONOCHROME2",
      "PixelBandwidth": 2290.0,
      "PixelRepresentation": 0,
      "PixelSpacing": [2.0, 2.0],
      "ProtocolName": "func_task-friends-s03e24a",
      "RepetitionTime": 1490.0,
      "Rows": 832,
      "SAR": 0.03204772233688,
      "SamplesPerPixel": 1,
      "ScanOptions": "FS",
      "ScanningSequence": "EP",
      "SequenceName": "epfid2d1_104",
      "SequenceVariant": [
        "SK",
        "SS"
],
      "SeriesDescription": "func_task-friends-s03e24a",
      "SeriesNumber": 36,
      "SeriesTime": "170620.260000",
      "SliceLocation": -33.176923995407,
      "SliceThickness": 2.0,
      "SmallestImagePixelValue": 0,
      "SoftwareVersions": "syngo MR E11",
      "SpacingBetweenSlices": 2.0000000005364,
      "SpecificCharacterSet": "ISO_IR 100",
      "StudyID": "1",
      "StudyTime": "141906.082000",
      "TransmitCoilName": "Body",
      "VariableFlipAngleFlag": "N",
      "WindowCenterWidthExplanation": "Algo1",
      "dBdt": 0.0},
    "slices": {}
  },
  "time": {
    "samples": {
      "AcquisitionNumber": [1, 2, 3, 4, 5, 6, 7, 8, 9, 10, 11, 12, 13, 14, 15, 16, 17, 18, 19, 20, 21, 22, 23, 24, 25, 26, 27, 28, 29, 30, 31, 32, 33, 34, 35, 36, 37, 38, 39, 40, 41, 42, 43, 44, 45, 46, 47, 48, 49, 50, 51, 52, 53, 54, 55, 56, 57, 58, 59, 60, 61, 62, 63, 64, 65, 66, 67, 68, 69, 70, 71, 72, 73, 74, 75, 76, 77, 78, 79, 80, 81, 82, 83, 84, 85, 86, 87, 88, 89, 90, 91, 92, 93, 94, 95, 96, 97, 98, 99, 100, 101, 102, 103, 104, 105, 106, 107, 108, 109, 110, 111, 112, 113, 114, 115, 116, 117, 118, 119, 120, 121, 122, 123, 124, 125, 126, 127, 128, 129, 130, 131, 132, 133, 134, 135, 136, 137, 138, 139, 140, 141, 142, 143, 144, 145, 146, 147, 148, 149, 150, 151, 152, 153, 154, 155, 156, 157, 158, 159, 160, 161, 162, 163, 164, 165, 166, 167, 168, 169, 170, 171, 172, 173, 174, 175, 176, 177, 178, 179, 180, 181, 182, 183, 184, 185, 186, 187, 188, 189, 190, 191, 192, 193, 194, 195, 196, 197, 198, 199, 200, 201, 202, 203, 204, 205, 206, 207, 208, 209, 210, 211, 212, 213, 214, 215, 216, 217, 218, 219, 220, 221, 222, 223, 224, 225, 226, 227, 228, 229, 230, 231, 232, 233, 234, 235, 236, 237, 238, 239, 240, 241, 242, 243, 244, 245, 246, 247, 248, 249, 250, 251, 252, 253, 254, 255, 256, 257, 258, 259, 260, 261, 262, 263, 264, 265, 266, 267, 268, 269, 270, 271, 272, 273, 274, 275, 276, 277, 278, 279, 280, 281, 282, 283, 284, 285, 286, 287, 288, 289, 290, 291, 292, 293, 294, 295, 296, 297, 298, 299, 300, 301, 302, 303, 304, 305, 306, 307, 308, 309, 310, 311, 312, 313, 314, 315, 316, 317, 318, 319, 320, 321, 322, 323, 324, 325, 326, 327, 328, 329, 330, 331, 332, 333, 334, 335, 336, 337, 338, 339, 340, 341, 342, 343, 344, 345, 346, 347, 348, 349, 350, 351, 352, 353, 354, 355, 356, 357, 358, 359, 360, 361, 362, 363, 364, 365, 366, 367, 368, 369, 370, 371, 372, 373, 374, 375, 376, 377, 378, 379, 380, 381, 382, 383, 384, 385, 386, 387, 388, 389, 390, 391, 392, 393, 394, 395, 396, 397, 398, 399, 400, 401, 402, 403, 404, 405, 406, 407, 408, 409, 410, 411, 412, 413, 414, 415, 416, 417, 418, 419, 420, 421, 422, 423, 424, 425, 426, 427, 428, 429, 430, 431, 432, 433, 434, 435, 436, 437, 438, 439, 440, 441, 442, 443, 444, 445, 446, 447, 448, 449, 450, 451, 452, 453, 454],
      "AcquisitionTime": ["170502.035000", "170503.525000", "170505.015000", "170506.505000", "170507.995000", "170509.485000", "170510.975000", "170512.465000", "170513.955000", "170515.445000", "170516.935000", "170518.425000", "170519.915000", "170521.405000", "170522.895000", "170524.385000", "170525.875000", "170527.365000", "170528.855000", "170530.345000", "170531.835000", "170533.325000", "170534.815000", "170536.305000", "170537.795000", "170539.285000", "170540.775000", "170542.265000", "170543.755000", "170545.245000", "170546.735000", "170548.225000", "170549.715000", "170551.205000", "170552.695000", "170554.185000", "170555.675000", "170557.165000", "170558.655000", "170600.145000", "170601.635000", "170603.125000", "170604.615000", "170606.105000", "170607.595000", "170609.085000", "170610.575000", "170612.065000", "170613.555000", "170615.045000", "170616.535000", "170618.025000", "170619.515000", "170621.005000", "170622.495000", "170623.985000", "170625.475000", "170626.965000", "170628.455000", "170629.945000", "170631.435000", "170632.925000", "170634.415000", "170635.905000", "170637.395000", "170638.885000", "170640.375000", "170641.865000", "170643.355000", "170644.845000", "170646.335000", "170647.825000", "170649.315000", "170650.805000", "170652.295000", "170653.785000", "170655.275000", "170656.765000", "170658.255000", "170659.745000", "170701.235000", "170702.725000", "170704.215000", "170705.705000", "170707.195000", "170708.685000", "170710.175000", "170711.665000", "170713.155000", "170714.645000", "170716.135000", "170717.625000", "170719.115000", "170720.605000", "170722.095000", "170723.585000", "170725.075000", "170726.565000", "170728.055000", "170729.545000", "170731.035000", "170732.525000", "170734.015000", "170735.505000", "170736.995000", "170738.485000", "170739.975000", "170741.465000", "170742.955000", "170744.445000", "170745.935000", "170747.425000", "170748.915000", "170750.405000", "170751.895000", "170753.385000", "170754.875000", "170756.365000", "170757.855000", "170759.345000", "170800.835000", "170802.325000", "170803.815000", "170805.305000", "170806.795000", "170808.285000", "170809.775000", "170811.265000", "170812.755000", "170814.245000", "170815.735000", "170817.225000", "170818.715000", "170820.205000", "170821.695000", "170823.185000", "170824.675000", "170826.165000", "170827.655000", "170829.145000", "170830.635000", "170832.125000", "170833.615000", "170835.105000", "170836.595000", "170838.085000", "170839.575000", "170841.065000", "170842.555000", "170844.045000", "170845.535000", "170847.025000", "170848.515000", "170850.005000", "170851.495000", "170852.985000", "170854.475000", "170855.965000", "170857.455000", "170858.945000", "170900.435000", "170901.925000", "170903.415000", "170904.905000", "170906.395000", "170907.885000", "170909.375000", "170910.865000", "170912.355000", "170913.845000", "170915.335000", "170916.825000", "170918.315000", "170919.805000", "170921.295000", "170922.785000", "170924.275000", "170925.765000", "170927.255000", "170928.745000", "170930.235000", "170931.725000", "170933.215000", "170934.705000", "170936.195000", "170937.685000", "170939.175000", "170940.665000", "170942.155000", "170943.645000", "170945.135000", "170946.625000", "170948.115000", "170949.605000", "170951.095000", "170952.585000", "170954.075000", "170955.565000", "170957.055000", "170958.545000", "171000.035000", "171001.525000", "171003.015000", "171004.505000", "171005.995000", "171007.485000", "171008.975000", "171010.465000", "171011.955000", "171013.445000", "171014.935000", "171016.425000", "171017.915000", "171019.405000", "171020.895000", "171022.385000", "171023.875000", "171025.365000", "171026.855000", "171028.345000", "171029.835000", "171031.325000", "171032.815000", "171034.305000", "171035.795000", "171037.285000", "171038.775000", "171040.265000", "171041.755000", "171043.245000", "171044.735000", "171046.225000", "171047.715000", "171049.205000", "171050.695000", "171052.185000", "171053.675000", "171055.165000", "171056.655000", "171058.145000", "171059.635000", "171101.125000", "171102.615000", "171104.105000", "171105.595000", "171107.085000", "171108.575000", "171110.065000", "171111.555000", "171113.045000", "171114.535000", "171116.025000", "171117.515000", "171119.005000", "171120.495000", "171121.985000", "171123.475000", "171124.965000", "171126.455000", "171127.945000", "171129.435000", "171130.925000", "171132.415000", "171133.905000", "171135.395000", "171136.885000", "171138.375000", "171139.865000", "171141.355000", "171142.845000", "171144.335000", "171145.825000", "171147.315000", "171148.805000", "171150.295000", "171151.785000", "171153.275000", "171154.765000", "171156.255000", "171157.745000", "171159.235000", "171200.725000", "171202.215000", "171203.705000", "171205.195000", "171206.685000", "171208.175000", "171209.665000", "171211.155000", "171212.645000", "171214.135000", "171215.625000", "171217.115000", "171218.605000", "171220.095000", "171221.585000", "171223.075000", "171224.565000", "171226.055000", "171227.545000", "171229.035000", "171230.525000", "171232.015000", "171233.505000", "171234.995000", "171236.485000", "171237.975000", "171239.465000", "171240.955000", "171242.445000", "171243.935000", "171245.425000", "171246.915000", "171248.405000", "171249.895000", "171251.385000", "171252.875000", "171254.365000", "171255.855000", "171257.345000", "171258.835000", "171300.325000", "171301.815000", "171303.305000", "171304.795000", "171306.285000", "171307.775000", "171309.265000", "171310.755000", "171312.245000", "171313.735000", "171315.225000", "171316.715000", "171318.205000", "171319.695000", "171321.185000", "171322.675000", "171324.165000", "171325.655000", "171327.145000", "171328.635000", "171330.125000", "171331.615000", "171333.105000", "171334.595000", "171336.085000", "171337.575000", "171339.065000", "171340.555000", "171342.045000", "171343.535000", "171345.025000", "171346.515000", "171348.005000", "171349.495000", "171350.985000", "171352.475000", "171353.965000", "171355.455000", "171356.945000", "171358.435000", "171359.925000", "171401.415000", "171402.905000", "171404.395000", "171405.885000", "171407.375000", "171408.865000", "171410.355000", "171411.845000", "171413.335000", "171414.825000", "171416.315000", "171417.805000", "171419.295000", "171420.785000", "171422.275000", "171423.765000", "171425.255000", "171426.745000", "171428.235000", "171429.725000", "171431.215000", "171432.705000", "171434.195000", "171435.685000", "171437.175000", "171438.665000", "171440.155000", "171441.645000", "171443.135000", "171444.625000", "171446.115000", "171447.605000", "171449.095000", "171450.585000", "171452.075000", "171453.565000", "171455.055000", "171456.545000", "171458.035000", "171459.525000", "171501.015000", "171502.505000", "171503.995000", "171505.485000", "171506.975000", "171508.465000", "171509.955000", "171511.445000", "171512.935000", "171514.425000", "171515.915000", "171517.405000", "171518.895000", "171520.385000", "171521.875000", "171523.365000", "171524.855000", "171526.345000", "171527.835000", "171529.325000", "171530.815000", "171532.305000", "171533.795000", "171535.285000", "171536.775000", "171538.265000", "171539.755000", "171541.245000", "171542.735000", "171544.225000", "171545.715000", "171547.205000", "171548.695000", "171550.185000", "171551.675000", "171553.165000", "171554.655000", "171556.145000", "171557.635000", "171559.125000", "171600.615000", "171602.105000", "171603.595000", "171605.085000", "171606.575000", "171608.065000", "171609.555000", "171611.045000", "171612.535000", "171614.025000", "171615.515000", "171617.005000"],
      "ContentTime": ["170620.262000", "170620.269000", "170620.272000", "170620.275000", "170620.278000", "170620.281000", "170620.286000", "170620.289000", "170620.292000", "170620.295000", "170620.298000", "170620.301000", "170620.304000", "170620.307000", "170620.309000", "170620.312000", "170620.315000", "170620.318000", "170620.321000", "170620.324000", "170620.327000", "170640.224000", "170640.228000", "170640.231000", "170640.234000", "170640.236000", "170640.239000", "170640.242000", "170640.245000", "170640.248000", "170640.251000", "170640.254000", "170640.257000", "170640.259000", "170640.262000", "170640.265000", "170640.268000", "170640.271000", "170640.274000", "170640.277000", "170640.280000", "170700.224000", "170700.227000", "170700.230000", "170700.233000", "170700.236000", "170700.239000", "170700.242000", "170700.245000", "170700.248000", "170700.251000", "170700.254000", "170700.257000", "170700.260000", "170700.262000", "170700.272000", "170700.280000", "170700.283000", "170700.286000", "170700.289000", "170700.292000", "170720.224000", "170720.227000", "170720.230000", "170720.233000", "170720.236000", "170720.239000", "170720.242000", "170720.244000", "170720.247000", "170720.250000", "170720.253000", "170720.256000", "170720.259000", "170720.261000", "170720.264000", "170720.267000", "170720.283000", "170720.286000", "170720.289000", "170720.292000", "170740.224000", "170740.227000", "170740.230000", "170740.233000", "170740.236000", "170740.238000", "170740.241000", "170740.244000", "170740.247000", "170740.250000", "170740.253000", "170740.257000", "170740.260000", "170740.263000", "170740.266000", "170740.269000", "170740.272000", "170740.275000", "170740.278000", "170740.280000", "170820.223000", "170820.226000", "170820.229000", "170820.232000", "170820.235000", "170820.237000", "170820.240000", "170820.243000", "170820.246000", "170820.249000", "170820.252000", "170820.255000", "170820.258000", "170820.261000", "170820.263000", "170820.266000", "170820.269000", "170820.281000", "170820.284000", "170820.287000", "170820.290000", "170820.293000", "170820.296000", "170820.299000", "170820.302000", "170820.305000", "170820.308000", "170820.311000", "170820.314000", "170820.317000", "170820.319000", "170900.224000", "170900.227000", "170900.230000", "170900.233000", "170900.236000", "170900.239000", "170900.241000", "170900.245000", "170900.247000", "170900.250000", "170900.253000", "170900.256000", "170900.259000", "170900.262000", "170900.265000", "170900.268000", "170900.271000", "170900.274000", "170900.276000", "170900.280000", "170900.283000", "170900.286000", "170900.289000", "170900.292000", "170900.295000", "170900.298000", "170900.300000", "170940.224000", "170940.227000", "170940.230000", "170940.233000", "170940.236000", "170940.239000", "170940.242000", "170940.244000", "170940.247000", "170940.250000", "170940.253000", "170940.256000", "170940.259000", "170940.262000", "170940.265000", "170940.268000", "170940.271000", "170940.273000", "170940.276000", "170940.279000", "170940.282000", "170940.285000", "170940.288000", "170940.291000", "170940.294000", "170940.297000", "170940.300000", "171020.224000", "171020.227000", "171020.230000", "171020.233000", "171020.236000", "171020.239000", "171020.242000", "171020.244000", "171020.247000", "171020.250000", "171020.253000", "171020.256000", "171020.259000", "171020.262000", "171020.265000", "171020.268000", "171020.271000", "171020.274000", "171020.277000", "171020.279000", "171020.282000", "171020.285000", "171020.288000", "171020.291000", "171020.294000", "171020.297000", "171020.300000", "171100.224000", "171100.227000", "171100.230000", "171100.233000", "171100.236000", "171100.239000", "171100.241000", "171100.244000", "171100.247000", "171100.250000", "171100.253000", "171100.256000", "171100.259000", "171100.262000", "171100.265000", "171100.268000", "171100.271000", "171100.274000", "171100.276000", "171100.279000", "171100.282000", "171100.285000", "171100.288000", "171100.291000", "171100.294000", "171100.297000", "171100.300000", "171140.224000", "171140.227000", "171140.230000", "171140.233000", "171140.236000", "171140.239000", "171140.242000", "171140.245000", "171140.248000", "171140.251000", "171140.254000", "171140.256000", "171140.259000", "171140.262000", "171140.265000", "171140.269000", "171140.272000", "171140.276000", "171140.279000", "171140.283000", "171140.286000", "171140.289000", "171140.291000", "171140.295000", "171140.297000", "171140.300000", "171220.224000", "171220.227000", "171220.230000", "171220.233000", "171220.236000", "171220.239000", "171220.242000", "171220.244000", "171220.265000", "171220.268000", "171220.270000", "171220.273000", "171220.276000", "171220.279000", "171220.282000", "171220.285000", "171220.288000", "171220.291000", "171220.294000", "171220.297000", "171220.299000", "171220.303000", "171220.305000", "171220.308000", "171220.311000", "171220.314000", "171220.317000", "171300.223000", "171300.226000", "171300.229000", "171300.232000", "171300.235000", "171300.238000", "171300.241000", "171300.243000", "171300.246000", "171300.249000", "171300.252000", "171300.255000", "171300.258000", "171300.261000", "171300.264000", "171300.267000", "171300.270000", "171300.272000", "171300.275000", "171300.278000", "171300.281000", "171300.284000", "171300.287000", "171300.290000", "171300.293000", "171300.296000", "171300.298000", "171340.224000", "171340.227000", "171340.230000", "171340.233000", "171340.236000", "171340.239000", "171340.242000", "171340.245000", "171340.247000", "171340.250000", "171340.253000", "171340.256000", "171340.259000", "171340.262000", "171340.265000", "171340.268000", "171340.271000", "171340.274000", "171340.277000", "171340.280000", "171340.283000", "171340.286000", "171340.289000", "171340.292000", "171340.294000", "171340.297000", "171340.300000", "171420.224000", "171420.227000", "171420.230000", "171420.233000", "171420.236000", "171420.239000", "171420.242000", "171420.245000", "171420.247000", "171420.250000", "171420.253000", "171420.256000", "171420.259000", "171420.262000", "171420.265000", "171420.268000", "171420.271000", "171420.274000", "171420.277000", "171420.280000", "171420.283000", "171420.285000", "171420.288000", "171420.291000", "171420.294000", "171420.297000", "171420.300000", "171500.224000", "171500.227000", "171500.230000", "171500.233000", "171500.236000", "171500.239000", "171500.242000", "171500.245000", "171500.247000", "171500.251000", "171500.253000", "171500.256000", "171500.259000", "171500.262000", "171500.265000", "171500.268000", "171500.271000", "171500.274000", "171500.283000", "171500.285000", "171500.288000", "171500.291000", "171500.294000", "171500.297000", "171500.300000", "171500.303000", "171500.306000", "171540.224000", "171540.227000", "171540.230000", "171540.233000", "171540.246000", "171540.249000", "171540.252000", "171540.255000", "171540.258000", "171540.261000", "171540.264000", "171540.267000", "171540.270000", "171540.273000", "171540.276000", "171540.279000", "171540.282000", "171540.285000", "171540.288000", "171540.291000", "171540.294000", "171540.297000", "171540.299000", "171540.302000", "171540.306000", "171540.308000", "171540.311000", "171618.950000", "171618.953000", "171618.956000", "171618.959000", "171618.962000", "171618.965000", "171618.968000", "171618.971000", "171618.974000", "171618.977000", "171618.980000", "171618.983000", "171618.986000", "171618.989000", "171618.992000", "171618.995000", "171619.015000", "171619.034000", "171619.037000", "171619.039000", "171619.042000", "171619.045000", "171619.048000", "171619.051000", "171619.054000", "171619.057000"],
