{
  "AcquisitionMatrixPE": 104,
  "AcquisitionNumber": 1,
  "AcquisitionTime": "14:46:54.212500",
  "BandwidthPerPixelPhaseEncode": 17.17,
  "BaseResolution": 104,
  "BodyPartExamined": "BRAIN",
  "CoilString": "HC1-7;NC1_2",
  "ConsistencyInfo": "N4_VE11C_LATEST_20160120",
  "ConversionSoftware": "dcm2niix",
  "ConversionSoftwareVersion": "v1.0.20190902",
  "DerivedVendorReportedEchoSpacing": 0.000560011,
  "DeviceSerialNumber": "167006",
  "DwellTime": 2.1e-06,
  "EchoTime": 0.037,
  "EchoTrainLength": 104,
  "EffectiveEchoSpacing": 0.000560011,
  "FlipAngle": 52,
  "ImageComments": "Unaliased_MB4_PE3_LB",
  "ImageOrientationPatientDICOM": [0.99825, -0.0590027, 0.00384694, 0.05651, 0.932886, -0.355712],
  "ImageType": [
    "ORIGINAL",
    "PRIMARY",
    "M",
    "MB",
    "ND",
    "MOSAIC"
],
  "ImagingFrequency": 123.259,
  "InPlanePhaseEncodingDirectionDICOM": "COL",
  "InstitutionAddress": "Chemin_Queen-Mary_4565_Montreal_District_CA_H3W_1W5",
  "InstitutionName": "IUGM",
  "InstitutionalDepartmentName": "Department",
  "MRAcquisitionType": "2D",
  "MagneticFieldStrength": 3,
  "Manufacturer": "Siemens",
  "ManufacturersModelName": "Prisma_fit",
  "Modality": "MR",
  "MultibandAccelerationFactor": 4,
  "PartialFourier": 1,
  "PatientPosition": "HFS",
  "PercentPhaseFOV": 100,
  "PhaseEncodingDirection": "j",
  "PhaseEncodingSteps": 104,
  "PhaseResolution": 1,
  "PixelBandwidth": 2290,
  "ProcedureStepDescription": "video_friends",
  "ProtocolName": "func_task-friends-s03e19a",
  "PulseSequenceDetails": "%CustomerSeq%_cmrr_mbep2d_bold",
  "ReceiveCoilActiveElements": "HC1-7;NC1,2",
  "ReceiveCoilName": "HeadNeck_64",
  "ReconMatrixPE": 104,
  "RepetitionTime": 1.49,
  "SAR": 0.0308752,
  "ScanOptions": "FS",
  "ScanningSequence": "EP",
  "SequenceName": "epfid2d1_104",
  "SequenceVariant": "SK_SS",
  "SeriesDescription": "func_task-friends-s03e19a",
  "SeriesNumber": 9,
  "ShimSetting": [640, -7261, -8811, 620, 23, -222, -82, -12],
  "SliceThickness": 2,
  "SliceTiming": [0, 0.785, 0.0975, 0.8825, 0.1975, 0.98, 0.295, 1.0775, 0.3925, 1.1775, 0.49, 1.275, 0.5875, 1.3725, 0.6875, 0, 0.785, 0.0975, 0.8825, 0.1975, 0.98, 0.295, 1.0775, 0.3925, 1.1775, 0.49, 1.275, 0.5875, 1.3725, 0.6875, 0, 0.785, 0.0975, 0.8825, 0.1975, 0.98, 0.295, 1.0775, 0.3925, 1.1775, 0.49, 1.275, 0.5875, 1.3725, 0.6875, 0, 0.785, 0.0975, 0.8825, 0.1975, 0.98, 0.295, 1.0775, 0.3925, 1.1775, 0.49, 1.275, 0.5875, 1.3725, 0.6875],
  "SoftwareVersions": "syngo_MR_E11",
  "SpacingBetweenSlices": 2,
  "StationName": "MRC35049",
  "TaskName": "s03e19a",
  "TotalReadoutTime": 0.0576811,
  "TxRefAmp": 218.181,
  "WipMemBlock": "476c574b-2e47-412a-8ae4-08bd96995c16||Sequence: R016 ve11c/master r/e634e98; Dec 19 2017 11:00:25 by eja",
  "dcmmeta_affine": [
    [-1.996500849723816, 0.11302001029253006, -0.03479837253689766, 97.04191589355469],
    [0.11800531297922134, 1.8657714128494263, -0.7106137871742249, -77.63736724853516],
    [0.007693886291235685, 0.7114236950874329, 1.8691755533218384, -62.712059020996094],
    [0.0, 0.0, 0.0, 1.0]
],
  "dcmmeta_reorient_transform": [
    [0.0, -1.0, 0.0, 103.0],
    [1.0, 0.0, 0.0, 0.0],
    [0.0, 0.0, 1.0, 0.0],
    [0.0, 0.0, 0.0, 1.0]
],
  "dcmmeta_shape": [104, 104, 60, 468],
  "dcmmeta_slice_dim": 2,
  "dcmmeta_version": 0.6,
  "global": {
    "const": {
      "AcquisitionMatrix": [104, 0, 0, 104],
      "AngioFlag": "N",
      "BitsAllocated": 16,
      "BitsStored": 16,
      "BodyPartExamined": "BRAIN",
      "Columns": 832,
      "EchoNumbers": 1,
      "EchoTime": 37.0,
      "EchoTrainLength": 104,
      "FlipAngle": 52.0,
      "HighBit": 15,
      "ImageOrientationPatient": [0.99825041331916, -0.0590026553349, 0.00384694314485, 0.05651000495084, 0.9328856851791, -0.355711846483],
      "ImagePositionPatient": [-876.54856468147, -750.72392866363, 266.72223213047],
      "ImageType": [
        "ORIGINAL",
        "PRIMARY",
        "M",
        "MB",
        "ND",
        "MOSAIC"
],
      "ImagedNucleus": "1H",
      "ImagingFrequency": 123.259359,
      "InPlanePhaseEncodingDirection": "COL",
      "MRAcquisitionType": "2D",
      "MagneticFieldStrength": 3.0,
      "Manufacturer": "SIEMENS",
      "ManufacturerModelName": "Prisma_fit",
      "Modality": "MR",
      "NumberOfAverages": 1.0,
      "NumberOfPhaseEncodingSteps": 104,
      "PercentPhaseFieldOfView": 100.0,
      "PercentSampling": 100.0,
      "PerformedProcedureStepStartTime": "141906.254000",
      "PhotometricInterpretation": "MONOCHROME2",
      "PixelBandwidth": 2290.0,
      "PixelRepresentation": 0,
      "PixelSpacing": [2.0, 2.0],
      "ProtocolName": "func_task-friends-s03e19a",
      "RepetitionTime": 1490.0,
      "Rows": 832,
      "SAR": 0.03087518182583,
      "SamplesPerPixel": 1,
      "ScanOptions": "FS",
      "ScanningSequence": "EP",
      "SequenceName": "epfid2d1_104",
      "SequenceVariant": [
        "SK",
        "SS"
],
      "SeriesDescription": "func_task-friends-s03e19a",
      "SeriesNumber": 9,
      "SeriesTime": "144842.210000",
      "SliceLocation": -32.713280365035,
      "SliceThickness": 2.0,
      "SmallestImagePixelValue": 0,
      "SoftwareVersions": "syngo MR E11",
      "SpacingBetweenSlices": 2.000000042334,
      "SpecificCharacterSet": "ISO_IR 100",
      "StudyID": "1",
      "StudyTime": "141906.082000",
      "TransmitCoilName": "Body",
      "VariableFlipAngleFlag": "N",
      "WindowCenterWidthExplanation": "Algo1",
      "dBdt": 0.0},
    "slices": {}
  },
  "time": {
    "samples": {
      "AcquisitionNumber": [1, 2, 3, 4, 5, 6, 7, 8, 9, 10, 11, 12, 13, 14, 15, 16, 17, 18, 19, 20, 21, 22, 23, 24, 25, 26, 27, 28, 29, 30, 31, 32, 33, 34, 35, 36, 37, 38, 39, 40, 41, 42, 43, 44, 45, 46, 47, 48, 49, 50, 51, 52, 53, 54, 55, 56, 57, 58, 59, 60, 61, 62, 63, 64, 65, 66, 67, 68, 69, 70, 71, 72, 73, 74, 75, 76, 77, 78, 79, 80, 81, 82, 83, 84, 85, 86, 87, 88, 89, 90, 91, 92, 93, 94, 95, 96, 97, 98, 99, 100, 101, 102, 103, 104, 105, 106, 107, 108, 109, 110, 111, 112, 113, 114, 115, 116, 117, 118, 119, 120, 121, 122, 123, 124, 125, 126, 127, 128, 129, 130, 131, 132, 133, 134, 135, 136, 137, 138, 139, 140, 141, 142, 143, 144, 145, 146, 147, 148, 149, 150, 151, 152, 153, 154, 155, 156, 157, 158, 159, 160, 161, 162, 163, 164, 165, 166, 167, 168, 169, 170, 171, 172, 173, 174, 175, 176, 177, 178, 179, 180, 181, 182, 183, 184, 185, 186, 187, 188, 189, 190, 191, 192, 193, 194, 195, 196, 197, 198, 199, 200, 201, 202, 203, 204, 205, 206, 207, 208, 209, 210, 211, 212, 213, 214, 215, 216, 217, 218, 219, 220, 221, 222, 223, 224, 225, 226, 227, 228, 229, 230, 231, 232, 233, 234, 235, 236, 237, 238, 239, 240, 241, 242, 243, 244, 245, 246, 247, 248, 249, 250, 251, 252, 253, 254, 255, 256, 257, 258, 259, 260, 261, 262, 263, 264, 265, 266, 267, 268, 269, 270, 271, 272, 273, 274, 275, 276, 277, 278, 279, 280, 281, 282, 283, 284, 285, 286, 287, 288, 289, 290, 291, 292, 293, 294, 295, 296, 297, 298, 299, 300, 301, 302, 303, 304, 305, 306, 307, 308, 309, 310, 311, 312, 313, 314, 315, 316, 317, 318, 319, 320, 321, 322, 323, 324, 325, 326, 327, 328, 329, 330, 331, 332, 333, 334, 335, 336, 337, 338, 339, 340, 341, 342, 343, 344, 345, 346, 347, 348, 349, 350, 351, 352, 353, 354, 355, 356, 357, 358, 359, 360, 361, 362, 363, 364, 365, 366, 367, 368, 369, 370, 371, 372, 373, 374, 375, 376, 377, 378, 379, 380, 381, 382, 383, 384, 385, 386, 387, 388, 389, 390, 391, 392, 393, 394, 395, 396, 397, 398, 399, 400, 401, 402, 403, 404, 405, 406, 407, 408, 409, 410, 411, 412, 413, 414, 415, 416, 417, 418, 419, 420, 421, 422, 423, 424, 425, 426, 427, 428, 429, 430, 431, 432, 433, 434, 435, 436, 437, 438, 439, 440, 441, 442, 443, 444, 445, 446, 447, 448, 449, 450, 451, 452, 453, 454, 455, 456, 457, 458, 459, 460, 461, 462, 463, 464, 465, 466, 467, 468],
      "AcquisitionTime": ["144654.212500", "144655.702500", "144657.192500", "144658.682500", "144700.172500", "144701.662500", "144703.152500", "144704.642500", "144706.132500", "144707.622500", "144709.112500", "144710.602500", "144712.092500", "144713.582500", "144715.072500", "144716.562500", "144718.052500", "144719.542500", "144721.032500", "144722.522500", "144724.012500", "144725.502500", "144726.992500", "144728.482500", "144729.972500", "144731.462500", "144732.952500", "144734.442500", "144735.932500", "144737.422500", "144738.912500", "144740.402500", "144741.892500", "144743.382500", "144744.872500", "144746.362500", "144747.852500", "144749.342500", "144750.832500", "144752.322500", "144753.812500", "144755.302500", "144756.792500", "144758.282500", "144759.772500", "144801.262500", "144802.752500", "144804.242500", "144805.732500", "144807.222500", "144808.712500", "144810.202500", "144811.692500", "144813.182500", "144814.672500", "144816.162500", "144817.652500", "144819.142500", "144820.632500", "144822.122500", "144823.612500", "144825.102500", "144826.592500", "144828.082500", "144829.572500", "144831.062500", "144832.552500", "144834.042500", "144835.532500", "144837.022500", "144838.512500", "144840.002500", "144841.492500", "144842.982500", "144844.472500", "144845.962500", "144847.452500", "144848.942500", "144850.432500", "144851.922500", "144853.412500", "144854.902500", "144856.392500", "144857.882500", "144859.372500", "144900.862500", "144902.352500", "144903.842500", "144905.332500", "144906.822500", "144908.312500", "144909.802500", "144911.292500", "144912.782500", "144914.272500", "144915.762500", "144917.252500", "144918.742500", "144920.232500", "144921.722500", "144923.212500", "144924.702500", "144926.192500", "144927.682500", "144929.172500", "144930.662500", "144932.152500", "144933.642500", "144935.132500", "144936.622500", "144938.112500", "144939.602500", "144941.092500", "144942.582500", "144944.072500", "144945.562500", "144947.052500", "144948.542500", "144950.032500", "144951.522500", "144953.012500", "144954.502500", "144955.992500", "144957.482500", "144958.972500", "145000.462500", "145001.952500", "145003.442500", "145004.932500", "145006.422500", "145007.912500", "145009.402500", "145010.892500", "145012.382500", "145013.872500", "145015.362500", "145016.852500", "145018.342500", "145019.832500", "145021.322500", "145022.812500", "145024.302500", "145025.792500", "145027.282500", "145028.772500", "145030.262500", "145031.752500", "145033.242500", "145034.732500", "145036.222500", "145037.712500", "145039.202500", "145040.692500", "145042.182500", "145043.672500", "145045.162500", "145046.652500", "145048.142500", "145049.632500", "145051.122500", "145052.612500", "145054.102500", "145055.592500", "145057.082500", "145058.572500", "145100.062500", "145101.552500", "145103.042500", "145104.532500", "145106.022500", "145107.512500", "145109.002500", "145110.492500", "145111.982500", "145113.472500", "145114.962500", "145116.452500", "145117.942500", "145119.432500", "145120.922500", "145122.412500", "145123.902500", "145125.392500", "145126.882500", "145128.372500", "145129.862500", "145131.352500", "145132.842500", "145134.332500", "145135.822500", "145137.312500", "145138.802500", "145140.292500", "145141.782500", "145143.272500", "145144.762500", "145146.252500", "145147.742500", "145149.232500", "145150.722500", "145152.212500", "145153.702500", "145155.192500", "145156.682500", "145158.172500", "145159.662500", "145201.152500", "145202.642500", "145204.132500", "145205.622500", "145207.112500", "145208.602500", "145210.092500", "145211.582500", "145213.072500", "145214.562500", "145216.052500", "145217.542500", "145219.032500", "145220.522500", "145222.012500", "145223.502500", "145224.992500", "145226.482500", "145227.972500", "145229.462500", "145230.952500", "145232.442500", "145233.932500", "145235.422500", "145236.912500", "145238.402500", "145239.892500", "145241.382500", "145242.872500", "145244.362500", "145245.852500", "145247.342500", "145248.832500", "145250.322500", "145251.812500", "145253.302500", "145254.792500", "145256.282500", "145257.772500", "145259.262500", "145300.752500", "145302.242500", "145303.732500", "145305.222500", "145306.712500", "145308.202500", "145309.692500", "145311.182500", "145312.672500", "145314.162500", "145315.652500", "145317.142500", "145318.632500", "145320.122500", "145321.612500", "145323.102500", "145324.592500", "145326.082500", "145327.572500", "145329.062500", "145330.552500", "145332.042500", "145333.532500", "145335.022500", "145336.512500", "145338.002500", "145339.492500", "145340.982500", "145342.472500", "145343.962500", "145345.452500", "145346.942500", "145348.432500", "145349.922500", "145351.412500", "145352.902500", "145354.392500", "145355.882500", "145357.372500", "145358.862500", "145400.352500", "145401.842500", "145403.332500", "145404.822500", "145406.312500", "145407.802500", "145409.292500", "145410.782500", "145412.272500", "145413.762500", "145415.252500", "145416.742500", "145418.232500", "145419.722500", "145421.212500", "145422.702500", "145424.192500", "145425.682500", "145427.172500", "145428.662500", "145430.152500", "145431.642500", "145433.132500", "145434.622500", "145436.112500", "145437.602500", "145439.092500", "145440.582500", "145442.072500", "145443.562500", "145445.052500", "145446.542500", "145448.032500", "145449.522500", "145451.012500", "145452.502500", "145453.992500", "145455.482500", "145456.972500", "145458.462500", "145459.952500", "145501.442500", "145502.932500", "145504.422500", "145505.912500", "145507.402500", "145508.892500", "145510.382500", "145511.872500", "145513.362500", "145514.852500", "145516.342500", "145517.832500", "145519.322500", "145520.812500", "145522.302500", "145523.792500", "145525.282500", "145526.772500", "145528.262500", "145529.752500", "145531.242500", "145532.732500", "145534.222500", "145535.712500", "145537.202500", "145538.692500", "145540.182500", "145541.672500", "145543.162500", "145544.652500", "145546.142500", "145547.632500", "145549.122500", "145550.612500", "145552.102500", "145553.592500", "145555.082500", "145556.572500", "145558.062500", "145559.552500", "145601.042500", "145602.532500", "145604.022500", "145605.512500", "145607.002500", "145608.492500", "145609.982500", "145611.472500", "145612.962500", "145614.452500", "145615.942500", "145617.432500", "145618.922500", "145620.412500", "145621.902500", "145623.392500", "145624.882500", "145626.372500", "145627.862500", "145629.352500", "145630.842500", "145632.332500", "145633.822500", "145635.312500", "145636.802500", "145638.292500", "145639.782500", "145641.272500", "145642.762500", "145644.252500", "145645.742500", "145647.232500", "145648.722500", "145650.212500", "145651.702500", "145653.192500", "145654.682500", "145656.172500", "145657.662500", "145659.152500", "145700.642500", "145702.132500", "145703.622500", "145705.112500", "145706.602500", "145708.092500", "145709.582500", "145711.072500", "145712.562500", "145714.052500", "145715.542500", "145717.032500", "145718.522500", "145720.012500", "145721.502500", "145722.992500", "145724.482500", "145725.972500", "145727.462500", "145728.952500", "145730.442500", "145731.932500", "145733.422500", "145734.912500", "145736.402500", "145737.892500", "145739.382500", "145740.872500", "145742.362500", "145743.852500", "145745.342500", "145746.832500", "145748.322500", "145749.812500", "145751.302500", "145752.792500", "145754.282500", "145755.772500", "145757.262500", "145758.752500", "145800.242500", "145801.732500", "145803.222500", "145804.712500", "145806.202500", "145807.692500", "145809.182500", "145810.672500", "145812.162500", "145813.652500", "145815.142500", "145816.632500", "145818.122500", "145819.612500", "145821.102500", "145822.592500", "145824.082500", "145825.572500", "145827.062500", "145828.552500", "145830.042500"],
      "ContentTime": ["144842.212000", "144842.216000", "144842.224000", "144842.227000", "144842.230000", "144842.233000", "144842.235000", "144842.238000", "144842.241000", "144842.248000", "144842.251000", "144842.253000", "144842.256000", "144842.259000", "144842.262000", "144842.265000", "144842.268000", "144842.271000", "144842.274000", "144842.277000", "144842.279000", "144842.282000", "144842.285000", "144842.288000", "144842.291000", "144842.294000", "144842.297000", "144842.299000", "144842.302000", "144842.313000", "144842.316000", "144842.319000", "144842.322000", "144842.325000", "144842.327000", "144842.330000", "144842.333000", "144842.336000", "144842.339000", "144902.181000", "144902.184000", "144902.187000", "144902.190000", "144902.192000", "144902.195000", "144902.198000", "144902.201000", "144902.214000", "144902.217000", "144902.219000", "144902.222000", "144902.225000", "144902.228000", "144902.231000", "144902.234000", "144902.237000", "144902.239000", "144902.242000", "144902.245000", "144922.182000", "144922.185000", "144922.188000", "144922.191000", "144922.193000", "144922.196000", "144922.199000", "144922.202000", "144922.205000", "144922.208000", "144922.211000", "144922.214000", "144922.217000", "144922.220000", "144922.222000", "144922.225000", "144922.228000", "144922.231000", "144922.234000", "144922.237000", "144942.182000", "144942.185000", "144942.188000", "144942.191000", "144942.193000", "144942.196000", "144942.199000", "144942.202000", "144942.205000", "144942.208000", "144942.211000", "144942.214000", "144942.216000", "144942.219000", "144942.222000", "144942.225000", "144942.228000", "144942.231000", "144942.234000", "144942.237000", "145002.181000", "145002.184000", "145002.187000", "145002.190000", "145002.192000", "145002.195000", "145002.198000", "145002.201000", "145002.204000", "145002.207000", "145002.210000", "145002.213000", "145002.216000", "145002.219000", "145002.222000", "145002.225000", "145002.227000", "145002.230000", "145002.233000", "145002.236000", "145022.181000", "145022.184000", "145022.187000", "145022.190000", "145022.192000", "145022.195000", "145022.198000", "145022.201000", "145022.204000", "145022.207000", "145022.210000", "145022.212000", "145022.215000", "145022.218000", "145022.221000", "145022.224000", "145022.227000", "145022.230000", "145022.233000", "145022.236000", "145102.181000", "145102.184000", "145102.187000", "145102.190000", "145102.193000", "145102.196000", "145102.199000", "145102.202000", "145102.204000", "145102.207000", "145102.210000", "145102.213000", "145102.216000", "145102.219000", "145102.222000", "145102.225000", "145102.228000", "145102.231000", "145102.233000", "145102.236000", "145102.239000", "145102.242000", "145102.245000", "145102.248000", "145102.251000", "145102.254000", "145142.182000", "145142.185000", "145142.188000", "145142.191000", "145142.194000", "145142.197000", "145142.200000", "145142.202000", "145142.205000", "145142.208000", "145142.211000", "145142.214000", "145142.217000", "145142.220000", "145142.223000", "145142.226000", "145142.229000", "145142.232000", "145142.234000", "145142.237000", "145142.240000", "145142.243000", "145142.260000", "145142.262000", "145142.265000", "145142.268000", "145142.271000", "145222.181000", "145222.184000", "145222.187000", "145222.189000", "145222.192000", "145222.195000", "145222.198000", "145222.201000", "145222.204000", "145222.207000", "145222.210000", "145222.213000", "145222.216000", "145222.219000", "145222.221000", "145222.224000", "145222.227000", "145222.230000", "145222.233000", "145222.236000", "145222.239000", "145222.241000", "145222.244000", "145222.247000", "145222.250000", "145222.253000", "145222.256000", "145302.181000", "145302.184000", "145302.187000", "145302.190000", "145302.193000", "145302.195000", "145302.198000", "145302.215000", "145302.218000", "145302.221000", "145302.224000", "145302.227000", "145302.229000", "145302.232000", "145302.235000", "145302.238000", "145302.241000", "145302.244000", "145302.247000", "145302.249000", "145302.252000", "145302.255000", "145302.258000", "145302.261000", "145302.264000", "145302.266000", "145302.269000", "145342.181000", "145342.184000", "145342.187000", "145342.190000", "145342.193000", "145342.195000", "145342.198000", "145342.201000", "145342.204000", "145342.207000", "145342.210000", "145342.213000", "145342.216000", "145342.218000", "145342.221000", "145342.224000", "145342.227000", "145342.230000", "145342.233000", "145342.236000", "145342.238000", "145342.241000", "145342.244000", "145342.247000", "145342.250000", "145342.253000", "145342.256000", "145422.182000", "145422.185000", "145422.188000", "145422.191000", "145422.193000", "145422.196000", "145422.199000", "145422.202000", "145422.205000", "145422.208000", "145422.211000", "145422.214000", "145422.217000", "145422.220000", "145422.223000", "145422.225000", "145422.228000", "145422.231000", "145422.234000", "145422.237000", "145422.240000", "145422.243000", "145422.246000", "145422.248000", "145422.251000", "145422.254000", "145422.257000", "145502.181000", "145502.184000", "145502.187000", "145502.189000", "145502.192000", "145502.195000", "145502.198000", "145502.201000", "145502.204000", "145502.207000", "145502.210000", "145502.213000", "145502.216000", "145502.219000", "145502.221000", "145502.224000", "145502.227000", "145502.230000", "145502.233000", "145502.236000", "145502.239000", "145502.242000", "145502.244000", "145502.247000", "145502.250000", "145502.253000", "145502.256000", "145542.181000", "145542.184000", "145542.187000", "145542.190000", "145542.193000", "145542.196000", "145542.198000", "145542.201000", "145542.204000", "145542.207000", "145542.210000", "145542.213000", "145542.216000", "145542.219000", "145542.222000", "145542.224000", "145542.227000", "145542.230000", "145542.233000", "145542.236000", "145542.239000", "145542.242000", "145542.244000", "145542.247000", "145542.251000", "145542.254000", "145622.182000", "145622.185000", "145622.188000", "145622.191000", "145622.194000", "145622.197000", "145622.199000", "145622.202000", "145622.205000", "145622.208000", "145622.211000", "145622.214000", "145622.217000", "145622.220000", "145622.223000", "145622.225000", "145622.228000", "145622.231000", "145622.234000", "145622.237000", "145622.240000", "145622.243000", "145622.263000", "145622.266000", "145622.269000", "145622.272000", "145622.275000", "145702.181000", "145702.184000", "145702.187000", "145702.190000", "145702.193000", "145702.195000", "145702.198000", "145702.201000", "145702.204000", "145702.207000", "145702.210000", "145702.213000", "145702.216000", "145702.218000", "145702.221000", "145702.224000", "145702.227000", "145702.231000", "145702.234000", "145702.236000", "145702.239000", "145702.242000", "145702.245000", "145702.248000", "145702.251000", "145702.254000", "145702.256000", "145742.181000", "145742.184000", "145742.187000", "145742.190000", "145742.193000", "145742.195000", "145742.198000", "145742.201000", "145742.204000", "145742.207000", "145742.210000", "145742.213000", "145742.216000", "145742.219000", "145742.222000", "145742.225000", "145742.228000", "145742.230000", "145742.233000", "145742.236000", "145742.239000", "145742.242000", "145742.245000", "145742.248000", "145742.250000", "145742.253000", "145742.256000", "145822.181000", "145822.184000", "145822.187000", "145822.190000", "145822.192000", "145822.195000", "145822.198000", "145822.201000", "145822.204000", "145822.207000", "145822.217000", "145822.220000", "145822.222000", "145822.225000", "145822.228000", "145822.231000", "145822.234000", "145822.237000", "145822.240000", "145822.243000", "145822.246000", "145822.248000", "145822.251000", "145822.254000", "145822.257000", "145822.260000", "145822.263000", "145832.284000", "145832.287000", "145832.290000", "145832.293000", "145832.296000", "145832.305000", "145832.307000"],
