{
  "AcquisitionMatrixPE": 104,
  "AcquisitionNumber": 1,
  "AcquisitionTime": "15:48:4.040000",
  "BandwidthPerPixelPhaseEncode": 17.17,
  "BaseResolution": 104,
  "BodyPartExamined": "BRAIN",
  "CoilString": "HC1-7;NC1_2",
  "ConsistencyInfo": "N4_VE11C_LATEST_20160120",
  "ConversionSoftware": "dcm2niix",
  "ConversionSoftwareVersion": "v1.0.20190902",
  "DerivedVendorReportedEchoSpacing": 0.000560011,
  "DeviceSerialNumber": "167006",
  "DwellTime": 2.1e-06,
  "EchoTime": 0.037,
  "EchoTrainLength": 104,
  "EffectiveEchoSpacing": 0.000560011,
  "FlipAngle": 52,
  "ImageComments": "Unaliased_MB4_PE3_LB",
  "ImageOrientationPatientDICOM": [0.99825, -0.0590027, 0.00384694, 0.05651, 0.932886, -0.355712],
  "ImageType": [
    "ORIGINAL",
    "PRIMARY",
    "M",
    "MB",
    "ND",
    "MOSAIC"
],
  "ImagingFrequency": 123.259,
  "InPlanePhaseEncodingDirectionDICOM": "COL",
  "InstitutionAddress": "Chemin_Queen-Mary_4565_Montreal_District_CA_H3W_1W5",
  "InstitutionName": "IUGM",
  "InstitutionalDepartmentName": "Department",
  "MRAcquisitionType": "2D",
  "MagneticFieldStrength": 3,
  "Manufacturer": "Siemens",
  "ManufacturersModelName": "Prisma_fit",
  "Modality": "MR",
  "MultibandAccelerationFactor": 4,
  "PartialFourier": 1,
  "PatientPosition": "HFS",
  "PercentPhaseFOV": 100,
  "PhaseEncodingDirection": "j",
  "PhaseEncodingSteps": 104,
  "PhaseResolution": 1,
  "PixelBandwidth": 2290,
  "ProcedureStepDescription": "video_friends",
  "ProtocolName": "func_task-friends-s03e21b",
  "PulseSequenceDetails": "%CustomerSeq%_cmrr_mbep2d_bold",
  "ReceiveCoilActiveElements": "HC1-7;NC1,2",
  "ReceiveCoilName": "HeadNeck_64",
  "ReconMatrixPE": 104,
  "RepetitionTime": 1.49,
  "SAR": 0.0308729,
  "ScanOptions": "FS",
  "ScanningSequence": "EP",
  "SequenceName": "epfid2d1_104",
  "SequenceVariant": "SK_SS",
  "SeriesDescription": "func_task-friends-s03e21b",
  "SeriesNumber": 19,
  "ShimSetting": [640, -7261, -8811, 620, 23, -222, -82, -12],
  "SliceThickness": 2,
  "SliceTiming": [0, 0.7825, 0.0975, 0.88, 0.195, 0.98, 0.2925, 1.0775, 0.3925, 1.175, 0.49, 1.2725, 0.5875, 1.37, 0.685, 0, 0.7825, 0.0975, 0.88, 0.195, 0.98, 0.2925, 1.0775, 0.3925, 1.175, 0.49, 1.2725, 0.5875, 1.37, 0.685, 0, 0.7825, 0.0975, 0.88, 0.195, 0.98, 0.2925, 1.0775, 0.3925, 1.175, 0.49, 1.2725, 0.5875, 1.37, 0.685, 0, 0.7825, 0.0975, 0.88, 0.195, 0.98, 0.2925, 1.0775, 0.3925, 1.175, 0.49, 1.2725, 0.5875, 1.37, 0.685],
  "SoftwareVersions": "syngo_MR_E11",
  "SpacingBetweenSlices": 2,
  "StationName": "MRC35049",
  "TaskName": "s03e21b",
  "TotalReadoutTime": 0.0576811,
  "TxRefAmp": 218.181,
  "WipMemBlock": "800b8a15-7caf-4ad1-a729-807b97df317e||Sequence: R016 ve11c/master r/e634e98; Dec 19 2017 11:00:25 by eja",
  "dcmmeta_affine": [
    [-1.996500849723816, 0.11302001029253006, -0.03479837253689766, 97.04191589355469],
    [0.11800531297922134, 1.8657714128494263, -0.7106137871742249, -77.63736724853516],
    [0.007693886291235685, 0.7114236950874329, 1.8691755533218384, -62.712059020996094],
    [0.0, 0.0, 0.0, 1.0]
],
  "dcmmeta_reorient_transform": [
    [0.0, -1.0, 0.0, 103.0],
    [1.0, 0.0, 0.0, 0.0],
    [0.0, 0.0, 1.0, 0.0],
    [0.0, 0.0, 0.0, 1.0]
],
  "dcmmeta_shape": [104, 104, 60, 460],
  "dcmmeta_slice_dim": 2,
  "dcmmeta_version": 0.6,
  "global": {
    "const": {
      "AcquisitionMatrix": [104, 0, 0, 104],
      "AngioFlag": "N",
      "BitsAllocated": 16,
      "BitsStored": 16,
      "BodyPartExamined": "BRAIN",
      "Columns": 832,
      "EchoNumbers": 1,
      "EchoTime": 37.0,
      "EchoTrainLength": 104,
      "FlipAngle": 52.0,
      "HighBit": 15,
      "ImageOrientationPatient": [0.99825041331916, -0.0590026553349, 0.00384694314485, 0.05651000495084, 0.9328856851791, -0.355711846483],
      "ImagePositionPatient": [-876.54856468147, -750.72392866363, 266.72223213047],
      "ImageType": [
        "ORIGINAL",
        "PRIMARY",
        "M",
        "MB",
        "ND",
        "MOSAIC"
],
      "ImagedNucleus": "1H",
      "ImagingFrequency": 123.259389,
      "InPlanePhaseEncodingDirection": "COL",
      "MRAcquisitionType": "2D",
      "MagneticFieldStrength": 3.0,
      "Manufacturer": "SIEMENS",
      "ManufacturerModelName": "Prisma_fit",
      "Modality": "MR",
      "NumberOfAverages": 1.0,
      "NumberOfPhaseEncodingSteps": 104,
      "PercentPhaseFieldOfView": 100.0,
      "PercentSampling": 100.0,
      "PerformedProcedureStepStartTime": "141906.254000",
      "PhotometricInterpretation": "MONOCHROME2",
      "PixelBandwidth": 2290.0,
      "PixelRepresentation": 0,
      "PixelSpacing": [2.0, 2.0],
      "ProtocolName": "func_task-friends-s03e21b",
      "RepetitionTime": 1490.0,
      "Rows": 832,
      "SAR": 0.03087291563836,
      "SamplesPerPixel": 1,
      "ScanOptions": "FS",
      "ScanningSequence": "EP",
      "SequenceName": "epfid2d1_104",
      "SequenceVariant": [
        "SK",
        "SS"
],
      "SeriesDescription": "func_task-friends-s03e21b",
      "SeriesNumber": 19,
      "SeriesTime": "154920.262000",
      "SliceLocation": -32.713280365035,
      "SliceThickness": 2.0,
      "SmallestImagePixelValue": 0,
      "SoftwareVersions": "syngo MR E11",
      "SpacingBetweenSlices": 2.000000042334,
      "SpecificCharacterSet": "ISO_IR 100",
      "StudyID": "1",
      "StudyTime": "141906.082000",
      "TransmitCoilName": "Body",
      "VariableFlipAngleFlag": "N",
      "WindowCenterWidthExplanation": "Algo1",
      "dBdt": 0.0},
    "slices": {}
  },
  "time": {
    "samples": {
      "AcquisitionNumber": [1, 2, 3, 4, 5, 6, 7, 8, 9, 10, 11, 12, 13, 14, 15, 16, 17, 18, 19, 20, 21, 22, 23, 24, 25, 26, 27, 28, 29, 30, 31, 32, 33, 34, 35, 36, 37, 38, 39, 40, 41, 42, 43, 44, 45, 46, 47, 48, 49, 50, 51, 52, 53, 54, 55, 56, 57, 58, 59, 60, 61, 62, 63, 64, 65, 66, 67, 68, 69, 70, 71, 72, 73, 74, 75, 76, 77, 78, 79, 80, 81, 82, 83, 84, 85, 86, 87, 88, 89, 90, 91, 92, 93, 94, 95, 96, 97, 98, 99, 100, 101, 102, 103, 104, 105, 106, 107, 108, 109, 110, 111, 112, 113, 114, 115, 116, 117, 118, 119, 120, 121, 122, 123, 124, 125, 126, 127, 128, 129, 130, 131, 132, 133, 134, 135, 136, 137, 138, 139, 140, 141, 142, 143, 144, 145, 146, 147, 148, 149, 150, 151, 152, 153, 154, 155, 156, 157, 158, 159, 160, 161, 162, 163, 164, 165, 166, 167, 168, 169, 170, 171, 172, 173, 174, 175, 176, 177, 178, 179, 180, 181, 182, 183, 184, 185, 186, 187, 188, 189, 190, 191, 192, 193, 194, 195, 196, 197, 198, 199, 200, 201, 202, 203, 204, 205, 206, 207, 208, 209, 210, 211, 212, 213, 214, 215, 216, 217, 218, 219, 220, 221, 222, 223, 224, 225, 226, 227, 228, 229, 230, 231, 232, 233, 234, 235, 236, 237, 238, 239, 240, 241, 242, 243, 244, 245, 246, 247, 248, 249, 250, 251, 252, 253, 254, 255, 256, 257, 258, 259, 260, 261, 262, 263, 264, 265, 266, 267, 268, 269, 270, 271, 272, 273, 274, 275, 276, 277, 278, 279, 280, 281, 282, 283, 284, 285, 286, 287, 288, 289, 290, 291, 292, 293, 294, 295, 296, 297, 298, 299, 300, 301, 302, 303, 304, 305, 306, 307, 308, 309, 310, 311, 312, 313, 314, 315, 316, 317, 318, 319, 320, 321, 322, 323, 324, 325, 326, 327, 328, 329, 330, 331, 332, 333, 334, 335, 336, 337, 338, 339, 340, 341, 342, 343, 344, 345, 346, 347, 348, 349, 350, 351, 352, 353, 354, 355, 356, 357, 358, 359, 360, 361, 362, 363, 364, 365, 366, 367, 368, 369, 370, 371, 372, 373, 374, 375, 376, 377, 378, 379, 380, 381, 382, 383, 384, 385, 386, 387, 388, 389, 390, 391, 392, 393, 394, 395, 396, 397, 398, 399, 400, 401, 402, 403, 404, 405, 406, 407, 408, 409, 410, 411, 412, 413, 414, 415, 416, 417, 418, 419, 420, 421, 422, 423, 424, 425, 426, 427, 428, 429, 430, 431, 432, 433, 434, 435, 436, 437, 438, 439, 440, 441, 442, 443, 444, 445, 446, 447, 448, 449, 450, 451, 452, 453, 454, 455, 456, 457, 458, 459, 460],
      "AcquisitionTime": ["154804.040000", "154805.530000", "154807.020000", "154808.510000", "154810.000000", "154811.490000", "154812.980000", "154814.470000", "154815.960000", "154817.450000", "154818.940000", "154820.430000", "154821.920000", "154823.410000", "154824.900000", "154826.390000", "154827.880000", "154829.370000", "154830.860000", "154832.350000", "154833.840000", "154835.330000", "154836.820000", "154838.310000", "154839.800000", "154841.290000", "154842.780000", "154844.270000", "154845.760000", "154847.250000", "154848.740000", "154850.230000", "154851.720000", "154853.210000", "154854.700000", "154856.190000", "154857.680000", "154859.170000", "154900.660000", "154902.150000", "154903.640000", "154905.130000", "154906.620000", "154908.110000", "154909.600000", "154911.090000", "154912.580000", "154914.070000", "154915.560000", "154917.050000", "154918.540000", "154920.030000", "154921.520000", "154923.010000", "154924.500000", "154925.990000", "154927.480000", "154928.970000", "154930.460000", "154931.950000", "154933.440000", "154934.930000", "154936.420000", "154937.910000", "154939.400000", "154940.890000", "154942.380000", "154943.870000", "154945.360000", "154946.850000", "154948.340000", "154949.830000", "154951.320000", "154952.810000", "154954.300000", "154955.790000", "154957.280000", "154958.770000", "155000.260000", "155001.750000", "155003.240000", "155004.730000", "155006.220000", "155007.710000", "155009.200000", "155010.690000", "155012.180000", "155013.670000", "155015.160000", "155016.650000", "155018.140000", "155019.630000", "155021.120000", "155022.610000", "155024.100000", "155025.590000", "155027.080000", "155028.570000", "155030.060000", "155031.550000", "155033.040000", "155034.530000", "155036.020000", "155037.510000", "155039.000000", "155040.490000", "155041.980000", "155043.470000", "155044.960000", "155046.450000", "155047.940000", "155049.430000", "155050.920000", "155052.410000", "155053.900000", "155055.390000", "155056.880000", "155058.370000", "155059.860000", "155101.350000", "155102.840000", "155104.330000", "155105.820000", "155107.310000", "155108.800000", "155110.290000", "155111.780000", "155113.270000", "155114.760000", "155116.250000", "155117.740000", "155119.230000", "155120.720000", "155122.210000", "155123.700000", "155125.190000", "155126.680000", "155128.170000", "155129.660000", "155131.150000", "155132.640000", "155134.130000", "155135.620000", "155137.110000", "155138.600000", "155140.090000", "155141.580000", "155143.070000", "155144.560000", "155146.050000", "155147.540000", "155149.030000", "155150.520000", "155152.010000", "155153.500000", "155154.990000", "155156.480000", "155157.970000", "155159.460000", "155200.950000", "155202.440000", "155203.930000", "155205.420000", "155206.910000", "155208.400000", "155209.890000", "155211.380000", "155212.870000", "155214.360000", "155215.850000", "155217.340000", "155218.830000", "155220.320000", "155221.810000", "155223.300000", "155224.790000", "155226.280000", "155227.770000", "155229.260000", "155230.750000", "155232.240000", "155233.730000", "155235.220000", "155236.710000", "155238.200000", "155239.690000", "155241.180000", "155242.670000", "155244.160000", "155245.650000", "155247.140000", "155248.630000", "155250.120000", "155251.610000", "155253.100000", "155254.590000", "155256.080000", "155257.570000", "155259.060000", "155300.550000", "155302.040000", "155303.530000", "155305.020000", "155306.510000", "155308.000000", "155309.490000", "155310.980000", "155312.470000", "155313.960000", "155315.450000", "155316.940000", "155318.430000", "155319.920000", "155321.410000", "155322.900000", "155324.390000", "155325.880000", "155327.370000", "155328.860000", "155330.350000", "155331.840000", "155333.330000", "155334.820000", "155336.310000", "155337.800000", "155339.290000", "155340.780000", "155342.270000", "155343.760000", "155345.250000", "155346.740000", "155348.230000", "155349.720000", "155351.210000", "155352.700000", "155354.190000", "155355.680000", "155357.170000", "155358.660000", "155400.150000", "155401.640000", "155403.130000", "155404.620000", "155406.110000", "155407.600000", "155409.090000", "155410.580000", "155412.070000", "155413.560000", "155415.050000", "155416.540000", "155418.030000", "155419.520000", "155421.010000", "155422.500000", "155423.990000", "155425.480000", "155426.970000", "155428.460000", "155429.950000", "155431.440000", "155432.930000", "155434.420000", "155435.910000", "155437.400000", "155438.890000", "155440.380000", "155441.870000", "155443.360000", "155444.850000", "155446.340000", "155447.830000", "155449.320000", "155450.810000", "155452.300000", "155453.790000", "155455.280000", "155456.770000", "155458.260000", "155459.750000", "155501.240000", "155502.730000", "155504.220000", "155505.710000", "155507.200000", "155508.690000", "155510.180000", "155511.670000", "155513.160000", "155514.650000", "155516.140000", "155517.630000", "155519.120000", "155520.610000", "155522.100000", "155523.590000", "155525.080000", "155526.570000", "155528.060000", "155529.550000", "155531.040000", "155532.530000", "155534.020000", "155535.510000", "155537.000000", "155538.490000", "155539.980000", "155541.470000", "155542.960000", "155544.450000", "155545.940000", "155547.430000", "155548.920000", "155550.410000", "155551.900000", "155553.390000", "155554.880000", "155556.370000", "155557.860000", "155559.350000", "155600.840000", "155602.330000", "155603.820000", "155605.310000", "155606.800000", "155608.290000", "155609.780000", "155611.270000", "155612.760000", "155614.250000", "155615.740000", "155617.230000", "155618.720000", "155620.210000", "155621.700000", "155623.190000", "155624.680000", "155626.170000", "155627.660000", "155629.150000", "155630.640000", "155632.130000", "155633.620000", "155635.110000", "155636.600000", "155638.090000", "155639.580000", "155641.070000", "155642.560000", "155644.050000", "155645.540000", "155647.030000", "155648.520000", "155650.010000", "155651.500000", "155652.990000", "155654.480000", "155655.970000", "155657.460000", "155658.950000", "155700.440000", "155701.930000", "155703.420000", "155704.910000", "155706.400000", "155707.890000", "155709.380000", "155710.870000", "155712.360000", "155713.850000", "155715.340000", "155716.830000", "155718.320000", "155719.810000", "155721.300000", "155722.790000", "155724.280000", "155725.770000", "155727.260000", "155728.750000", "155730.240000", "155731.730000", "155733.220000", "155734.710000", "155736.200000", "155737.690000", "155739.180000", "155740.670000", "155742.160000", "155743.650000", "155745.140000", "155746.630000", "155748.120000", "155749.610000", "155751.100000", "155752.590000", "155754.080000", "155755.570000", "155757.060000", "155758.550000", "155800.040000", "155801.530000", "155803.020000", "155804.510000", "155806.000000", "155807.490000", "155808.980000", "155810.470000", "155811.960000", "155813.450000", "155814.940000", "155816.430000", "155817.920000", "155819.410000", "155820.900000", "155822.390000", "155823.880000", "155825.370000", "155826.860000", "155828.350000", "155829.840000", "155831.330000", "155832.820000", "155834.310000", "155835.800000", "155837.290000", "155838.780000", "155840.270000", "155841.760000", "155843.250000", "155844.740000", "155846.230000", "155847.720000", "155849.210000", "155850.700000", "155852.190000", "155853.680000", "155855.170000", "155856.660000", "155858.150000", "155859.640000", "155901.130000", "155902.620000", "155904.110000", "155905.600000", "155907.090000", "155908.580000", "155910.070000", "155911.560000", "155913.050000", "155914.540000", "155916.030000", "155917.520000", "155919.010000", "155920.500000", "155921.990000", "155923.480000", "155924.970000", "155926.460000", "155927.950000"],
      "ContentTime": ["154920.265000", "154920.268000", "154920.271000", "154920.282000", "154920.285000", "154920.288000", "154920.290000", "154920.294000", "154920.296000", "154920.299000", "154920.302000", "154920.305000", "154920.308000", "154920.311000", "154920.314000", "154920.317000", "154920.319000", "154920.322000", "154920.325000", "154920.328000", "154920.331000", "154920.334000", "154920.337000", "154940.223000", "154940.226000", "154940.229000", "154940.232000", "154940.235000", "154940.237000", "154940.240000", "154940.243000", "154940.246000", "154940.249000", "154940.252000", "154940.255000", "154940.257000", "154940.260000", "154940.263000", "154940.266000", "154940.269000", "154940.272000", "154940.275000", "154940.286000", "155000.224000", "155000.227000", "155000.230000", "155000.233000", "155000.235000", "155000.238000", "155000.241000", "155000.244000", "155000.247000", "155000.250000", "155000.253000", "155000.256000", "155000.259000", "155000.261000", "155000.264000", "155000.267000", "155000.270000", "155000.273000", "155000.276000", "155000.279000", "155020.224000", "155020.227000", "155020.230000", "155020.233000", "155020.235000", "155020.239000", "155020.241000", "155020.244000", "155020.247000", "155020.250000", "155020.253000", "155020.256000", "155020.259000", "155020.262000", "155020.264000", "155020.267000", "155020.270000", "155020.273000", "155020.276000", "155020.279000", "155020.282000", "155040.224000", "155040.227000", "155040.230000", "155040.232000", "155040.236000", "155040.238000", "155040.241000", "155040.244000", "155040.247000", "155040.250000", "155040.253000", "155040.256000", "155040.259000", "155040.261000", "155040.264000", "155040.267000", "155040.276000", "155040.279000", "155040.281000", "155040.284000", "155120.224000", "155120.227000", "155120.230000", "155120.233000", "155120.236000", "155120.238000", "155120.241000", "155120.244000", "155120.247000", "155120.250000", "155120.253000", "155120.256000", "155120.258000", "155120.268000", "155120.271000", "155120.274000", "155120.277000", "155120.280000", "155120.283000", "155120.286000", "155120.288000", "155120.291000", "155120.294000", "155120.297000", "155120.300000", "155120.303000", "155120.306000", "155140.223000", "155140.226000", "155140.229000", "155140.232000", "155140.235000", "155140.238000", "155140.240000", "155140.243000", "155140.246000", "155140.249000", "155140.252000", "155140.255000", "155140.258000", "155220.224000", "155220.227000", "155220.230000", "155220.233000", "155220.236000", "155220.238000", "155220.241000", "155220.244000", "155220.247000", "155220.250000", "155220.253000", "155220.256000", "155220.259000", "155220.261000", "155220.264000", "155220.267000", "155220.270000", "155220.273000", "155220.276000", "155220.279000", "155220.282000", "155220.285000", "155220.288000", "155220.291000", "155220.293000", "155220.296000", "155220.299000", "155300.224000", "155300.227000", "155300.230000", "155300.233000", "155300.236000", "155300.239000", "155300.242000", "155300.244000", "155300.247000", "155300.250000", "155300.253000", "155300.256000", "155300.259000", "155300.262000", "155300.265000", "155300.268000", "155300.288000", "155300.291000", "155300.293000", "155300.296000", "155300.299000", "155300.302000", "155300.305000", "155300.308000", "155300.311000", "155300.314000", "155300.316000", "155340.224000", "155340.227000", "155340.230000", "155340.233000", "155340.236000", "155340.239000", "155340.241000", "155340.244000", "155340.247000", "155340.250000", "155340.253000", "155340.256000", "155340.261000", "155340.264000", "155340.267000", "155340.270000", "155340.273000", "155340.276000", "155340.278000", "155340.281000", "155340.284000", "155340.287000", "155340.290000", "155340.293000", "155340.296000", "155340.299000", "155340.301000", "155420.223000", "155420.226000", "155420.229000", "155420.232000", "155420.235000", "155420.238000", "155420.241000", "155420.244000", "155420.246000", "155420.249000", "155420.252000", "155420.255000", "155420.258000", "155420.261000", "155420.264000", "155420.267000", "155420.270000", "155420.273000", "155420.276000", "155420.279000", "155420.282000", "155420.285000", "155420.288000", "155420.291000", "155420.294000", "155420.297000", "155500.224000", "155500.227000", "155500.230000", "155500.233000", "155500.236000", "155500.239000", "155500.242000", "155500.245000", "155500.247000", "155500.250000", "155500.253000", "155500.256000", "155500.259000", "155500.262000", "155500.265000", "155500.268000", "155500.271000", "155500.274000", "155500.277000", "155500.279000", "155500.282000", "155500.285000", "155500.288000", "155500.291000", "155500.294000", "155500.297000", "155500.300000", "155540.224000", "155540.227000", "155540.230000", "155540.233000", "155540.236000", "155540.239000", "155540.242000", "155540.244000", "155540.247000", "155540.250000", "155540.253000", "155540.256000", "155540.259000", "155540.262000", "155540.265000", "155540.267000", "155540.270000", "155540.273000", "155540.276000", "155540.279000", "155540.282000", "155540.285000", "155540.288000", "155540.290000", "155540.293000", "155540.296000", "155540.316000", "155620.223000", "155620.226000", "155620.229000", "155620.232000", "155620.235000", "155620.245000", "155620.248000", "155620.251000", "155620.254000", "155620.257000", "155620.260000", "155620.263000", "155620.266000", "155620.269000", "155620.271000", "155620.274000", "155620.277000", "155620.280000", "155620.283000", "155620.286000", "155620.289000", "155620.292000", "155620.295000", "155620.298000", "155620.300000", "155620.303000", "155620.306000", "155700.224000", "155700.227000", "155700.230000", "155700.233000", "155700.236000", "155700.239000", "155700.242000", "155700.245000", "155700.248000", "155700.250000", "155700.253000", "155700.256000", "155700.259000", "155700.262000", "155700.265000", "155700.268000", "155700.271000", "155700.274000", "155700.277000", "155700.280000", "155700.283000", "155700.286000", "155700.289000", "155700.291000", "155700.294000", "155700.297000", "155700.300000", "155740.224000", "155740.227000", "155740.230000", "155740.233000", "155740.236000", "155740.239000", "155740.241000", "155740.244000", "155740.247000", "155740.250000", "155740.253000", "155740.256000", "155740.259000", "155740.262000", "155740.265000", "155740.267000", "155740.270000", "155740.273000", "155740.276000", "155740.279000", "155740.282000", "155740.285000", "155740.288000", "155740.291000", "155740.294000", "155740.297000", "155740.299000", "155820.224000", "155820.227000", "155820.230000", "155820.233000", "155820.236000", "155820.238000", "155820.241000", "155820.244000", "155820.256000", "155820.258000", "155820.261000", "155820.264000", "155820.267000", "155820.270000", "155820.273000", "155820.276000", "155820.279000", "155820.282000", "155820.285000", "155820.287000", "155820.290000", "155820.293000", "155820.297000", "155820.300000", "155820.303000", "155820.305000", "155820.308000", "155900.223000", "155900.226000", "155900.229000", "155900.232000", "155900.235000", "155900.238000", "155900.241000", "155900.244000", "155900.247000", "155900.250000", "155900.253000", "155900.256000", "155900.259000", "155900.262000", "155900.265000", "155900.267000", "155900.270000", "155900.273000", "155900.276000", "155900.280000", "155900.283000", "155900.286000", "155900.289000", "155900.292000", "155900.308000", "155900.311000", "155930.262000", "155930.265000", "155930.268000", "155930.271000", "155930.274000", "155930.277000", "155930.280000", "155930.283000", "155930.286000", "155930.289000", "155930.292000", "155930.295000", "155930.298000", "155930.301000", "155930.304000", "155930.307000", "155930.310000", "155930.313000", "155930.315000", "155930.319000", "155930.322000"],
