{
  "AcquisitionMatrixPE": 104,
  "AcquisitionNumber": 1,
  "AcquisitionTime": "15:36:11.222500",
  "BandwidthPerPixelPhaseEncode": 17.17,
  "BaseResolution": 104,
  "BodyPartExamined": "BRAIN",
  "CoilString": "HC1-7;NC1_2",
  "ConsistencyInfo": "N4_VE11C_LATEST_20160120",
  "ConversionSoftware": "dcm2niix",
  "ConversionSoftwareVersion": "v1.0.20190902",
  "DerivedVendorReportedEchoSpacing": 0.000560011,
  "DeviceSerialNumber": "167006",
  "DwellTime": 2.1e-06,
  "EchoTime": 0.037,
  "EchoTrainLength": 104,
  "EffectiveEchoSpacing": 0.000560011,
  "FlipAngle": 52,
  "ImageComments": "Unaliased_MB4_PE3_LB",
  "ImageOrientationPatientDICOM": [0.99825, -0.0590027, 0.00384694, 0.05651, 0.932886, -0.355712],
  "ImageType": [
    "ORIGINAL",
    "PRIMARY",
    "M",
    "MB",
    "ND",
    "MOSAIC"
],
  "ImagingFrequency": 123.259,
  "InPlanePhaseEncodingDirectionDICOM": "COL",
  "InstitutionAddress": "Chemin_Queen-Mary_4565_Montreal_District_CA_H3W_1W5",
  "InstitutionName": "IUGM",
  "InstitutionalDepartmentName": "Department",
  "MRAcquisitionType": "2D",
  "MagneticFieldStrength": 3,
  "Manufacturer": "Siemens",
  "ManufacturersModelName": "Prisma_fit",
  "Modality": "MR",
  "MultibandAccelerationFactor": 4,
  "PartialFourier": 1,
  "PatientPosition": "HFS",
  "PercentPhaseFOV": 100,
  "PhaseEncodingDirection": "j",
  "PhaseEncodingSteps": 104,
  "PhaseResolution": 1,
  "PixelBandwidth": 2290,
  "ProcedureStepDescription": "video_friends",
  "ProtocolName": "func_task-friends-s03e21a",
  "PulseSequenceDetails": "%CustomerSeq%_cmrr_mbep2d_bold",
  "ReceiveCoilActiveElements": "HC1-7;NC1,2",
  "ReceiveCoilName": "HeadNeck_64",
  "ReconMatrixPE": 104,
  "RepetitionTime": 1.49,
  "SAR": 0.0308729,
  "ScanOptions": "FS",
  "ScanningSequence": "EP",
  "SequenceName": "epfid2d1_104",
  "SequenceVariant": "SK_SS",
  "SeriesDescription": "func_task-friends-s03e21a",
  "SeriesNumber": 17,
  "ShimSetting": [640, -7261, -8811, 620, 23, -222, -82, -12],
  "SliceThickness": 2,
  "SliceTiming": [0, 0.7825, 0.0975, 0.8825, 0.195, 0.98, 0.2925, 1.0775, 0.3925, 1.175, 0.49, 1.2725, 0.5875, 1.3725, 0.685, 0, 0.7825, 0.0975, 0.8825, 0.195, 0.98, 0.2925, 1.0775, 0.3925, 1.175, 0.49, 1.2725, 0.5875, 1.3725, 0.685, 0, 0.7825, 0.0975, 0.8825, 0.195, 0.98, 0.2925, 1.0775, 0.3925, 1.175, 0.49, 1.2725, 0.5875, 1.3725, 0.685, 0, 0.7825, 0.0975, 0.8825, 0.195, 0.98, 0.2925, 1.0775, 0.3925, 1.175, 0.49, 1.2725, 0.5875, 1.3725, 0.685],
  "SoftwareVersions": "syngo_MR_E11",
  "SpacingBetweenSlices": 2,
  "StationName": "MRC35049",
  "TaskName": "s03e21a",
  "TotalReadoutTime": 0.0576811,
  "TxRefAmp": 218.181,
  "WipMemBlock": "1169d007-1906-48a7-b3fa-2b2e89049ad8||Sequence: R016 ve11c/master r/e634e98; Dec 19 2017 11:00:25 by eja",
  "dcmmeta_affine": [
    [-1.996500849723816, 0.11302001029253006, -0.03479837253689766, 97.04191589355469],
    [0.11800531297922134, 1.8657714128494263, -0.7106137871742249, -77.63736724853516],
    [0.007693886291235685, 0.7114236950874329, 1.8691755533218384, -62.712059020996094],
    [0.0, 0.0, 0.0, 1.0]
],
  "dcmmeta_reorient_transform": [
    [0.0, -1.0, 0.0, 103.0],
    [1.0, 0.0, 0.0, 0.0],
    [0.0, 0.0, 1.0, 0.0],
    [0.0, 0.0, 0.0, 1.0]
],
  "dcmmeta_shape": [104, 104, 60, 460],
  "dcmmeta_slice_dim": 2,
  "dcmmeta_version": 0.6,
  "global": {
    "const": {
      "AcquisitionMatrix": [104, 0, 0, 104],
      "AngioFlag": "N",
      "BitsAllocated": 16,
      "BitsStored": 16,
      "BodyPartExamined": "BRAIN",
      "Columns": 832,
      "EchoNumbers": 1,
      "EchoTime": 37.0,
      "EchoTrainLength": 104,
      "FlipAngle": 52.0,
      "HighBit": 15,
      "ImageOrientationPatient": [0.99825041331916, -0.0590026553349, 0.00384694314485, 0.05651000495084, 0.9328856851791, -0.355711846483],
      "ImagePositionPatient": [-876.54856468147, -750.72392866363, 266.72223213047],
      "ImageType": [
        "ORIGINAL",
        "PRIMARY",
        "M",
        "MB",
        "ND",
        "MOSAIC"
],
      "ImagedNucleus": "1H",
      "ImagingFrequency": 123.259384,
      "InPlanePhaseEncodingDirection": "COL",
      "MRAcquisitionType": "2D",
      "MagneticFieldStrength": 3.0,
      "Manufacturer": "SIEMENS",
      "ManufacturerModelName": "Prisma_fit",
      "Modality": "MR",
      "NumberOfAverages": 1.0,
      "NumberOfPhaseEncodingSteps": 104,
      "PercentPhaseFieldOfView": 100.0,
      "PercentSampling": 100.0,
      "PerformedProcedureStepStartTime": "141906.254000",
      "PhotometricInterpretation": "MONOCHROME2",
      "PixelBandwidth": 2290.0,
      "PixelRepresentation": 0,
      "PixelSpacing": [2.0, 2.0],
      "ProtocolName": "func_task-friends-s03e21a",
      "RepetitionTime": 1490.0,
      "Rows": 832,
      "SAR": 0.03087291563836,
      "SamplesPerPixel": 1,
      "ScanOptions": "FS",
      "ScanningSequence": "EP",
      "SequenceName": "epfid2d1_104",
      "SequenceVariant": [
        "SK",
        "SS"
],
      "SeriesDescription": "func_task-friends-s03e21a",
      "SeriesNumber": 17,
      "SeriesTime": "153727.697000",
      "SliceLocation": -32.713280365035,
      "SliceThickness": 2.0,
      "SmallestImagePixelValue": 0,
      "SoftwareVersions": "syngo MR E11",
      "SpacingBetweenSlices": 2.000000042334,
      "SpecificCharacterSet": "ISO_IR 100",
      "StudyID": "1",
      "StudyTime": "141906.082000",
      "TransmitCoilName": "Body",
      "VariableFlipAngleFlag": "N",
      "WindowCenterWidthExplanation": "Algo1",
      "dBdt": 0.0},
    "slices": {}
  },
  "time": {
    "samples": {
      "AcquisitionNumber": [1, 2, 3, 4, 5, 6, 7, 8, 9, 10, 11, 12, 13, 14, 15, 16, 17, 18, 19, 20, 21, 22, 23, 24, 25, 26, 27, 28, 29, 30, 31, 32, 33, 34, 35, 36, 37, 38, 39, 40, 41, 42, 43, 44, 45, 46, 47, 48, 49, 50, 51, 52, 53, 54, 55, 56, 57, 58, 59, 60, 61, 62, 63, 64, 65, 66, 67, 68, 69, 70, 71, 72, 73, 74, 75, 76, 77, 78, 79, 80, 81, 82, 83, 84, 85, 86, 87, 88, 89, 90, 91, 92, 93, 94, 95, 96, 97, 98, 99, 100, 101, 102, 103, 104, 105, 106, 107, 108, 109, 110, 111, 112, 113, 114, 115, 116, 117, 118, 119, 120, 121, 122, 123, 124, 125, 126, 127, 128, 129, 130, 131, 132, 133, 134, 135, 136, 137, 138, 139, 140, 141, 142, 143, 144, 145, 146, 147, 148, 149, 150, 151, 152, 153, 154, 155, 156, 157, 158, 159, 160, 161, 162, 163, 164, 165, 166, 167, 168, 169, 170, 171, 172, 173, 174, 175, 176, 177, 178, 179, 180, 181, 182, 183, 184, 185, 186, 187, 188, 189, 190, 191, 192, 193, 194, 195, 196, 197, 198, 199, 200, 201, 202, 203, 204, 205, 206, 207, 208, 209, 210, 211, 212, 213, 214, 215, 216, 217, 218, 219, 220, 221, 222, 223, 224, 225, 226, 227, 228, 229, 230, 231, 232, 233, 234, 235, 236, 237, 238, 239, 240, 241, 242, 243, 244, 245, 246, 247, 248, 249, 250, 251, 252, 253, 254, 255, 256, 257, 258, 259, 260, 261, 262, 263, 264, 265, 266, 267, 268, 269, 270, 271, 272, 273, 274, 275, 276, 277, 278, 279, 280, 281, 282, 283, 284, 285, 286, 287, 288, 289, 290, 291, 292, 293, 294, 295, 296, 297, 298, 299, 300, 301, 302, 303, 304, 305, 306, 307, 308, 309, 310, 311, 312, 313, 314, 315, 316, 317, 318, 319, 320, 321, 322, 323, 324, 325, 326, 327, 328, 329, 330, 331, 332, 333, 334, 335, 336, 337, 338, 339, 340, 341, 342, 343, 344, 345, 346, 347, 348, 349, 350, 351, 352, 353, 354, 355, 356, 357, 358, 359, 360, 361, 362, 363, 364, 365, 366, 367, 368, 369, 370, 371, 372, 373, 374, 375, 376, 377, 378, 379, 380, 381, 382, 383, 384, 385, 386, 387, 388, 389, 390, 391, 392, 393, 394, 395, 396, 397, 398, 399, 400, 401, 402, 403, 404, 405, 406, 407, 408, 409, 410, 411, 412, 413, 414, 415, 416, 417, 418, 419, 420, 421, 422, 423, 424, 425, 426, 427, 428, 429, 430, 431, 432, 433, 434, 435, 436, 437, 438, 439, 440, 441, 442, 443, 444, 445, 446, 447, 448, 449, 450, 451, 452, 453, 454, 455, 456, 457, 458, 459, 460],
      "AcquisitionTime": ["153611.222500", "153612.712500", "153614.202500", "153615.692500", "153617.182500", "153618.672500", "153620.162500", "153621.652500", "153623.142500", "153624.632500", "153626.122500", "153627.612500", "153629.102500", "153630.592500", "153632.082500", "153633.572500", "153635.062500", "153636.552500", "153638.042500", "153639.532500", "153641.022500", "153642.512500", "153644.002500", "153645.492500", "153646.982500", "153648.472500", "153649.962500", "153651.452500", "153652.942500", "153654.432500", "153655.922500", "153657.412500", "153658.902500", "153700.392500", "153701.882500", "153703.372500", "153704.862500", "153706.352500", "153707.842500", "153709.332500", "153710.822500", "153712.312500", "153713.802500", "153715.292500", "153716.782500", "153718.272500", "153719.762500", "153721.252500", "153722.742500", "153724.232500", "153725.722500", "153727.212500", "153728.702500", "153730.192500", "153731.682500", "153733.172500", "153734.662500", "153736.152500", "153737.642500", "153739.132500", "153740.622500", "153742.112500", "153743.602500", "153745.092500", "153746.582500", "153748.072500", "153749.562500", "153751.052500", "153752.542500", "153754.032500", "153755.522500", "153757.012500", "153758.502500", "153759.992500", "153801.482500", "153802.972500", "153804.462500", "153805.952500", "153807.442500", "153808.932500", "153810.422500", "153811.912500", "153813.402500", "153814.892500", "153816.382500", "153817.872500", "153819.362500", "153820.852500", "153822.342500", "153823.832500", "153825.322500", "153826.812500", "153828.302500", "153829.792500", "153831.282500", "153832.772500", "153834.262500", "153835.752500", "153837.242500", "153838.732500", "153840.222500", "153841.712500", "153843.202500", "153844.692500", "153846.182500", "153847.672500", "153849.162500", "153850.652500", "153852.142500", "153853.632500", "153855.122500", "153856.612500", "153858.102500", "153859.592500", "153901.082500", "153902.572500", "153904.062500", "153905.552500", "153907.042500", "153908.532500", "153910.022500", "153911.512500", "153913.002500", "153914.492500", "153915.982500", "153917.472500", "153918.962500", "153920.452500", "153921.942500", "153923.432500", "153924.922500", "153926.412500", "153927.902500", "153929.392500", "153930.882500", "153932.372500", "153933.862500", "153935.352500", "153936.842500", "153938.332500", "153939.822500", "153941.312500", "153942.802500", "153944.292500", "153945.782500", "153947.272500", "153948.762500", "153950.252500", "153951.742500", "153953.232500", "153954.722500", "153956.212500", "153957.702500", "153959.192500", "154000.682500", "154002.172500", "154003.662500", "154005.152500", "154006.642500", "154008.132500", "154009.622500", "154011.112500", "154012.602500", "154014.092500", "154015.582500", "154017.072500", "154018.562500", "154020.052500", "154021.542500", "154023.032500", "154024.522500", "154026.012500", "154027.502500", "154028.992500", "154030.482500", "154031.972500", "154033.462500", "154034.952500", "154036.442500", "154037.932500", "154039.422500", "154040.912500", "154042.402500", "154043.892500", "154045.382500", "154046.872500", "154048.362500", "154049.852500", "154051.342500", "154052.832500", "154054.322500", "154055.812500", "154057.302500", "154058.792500", "154100.282500", "154101.772500", "154103.262500", "154104.752500", "154106.242500", "154107.732500", "154109.222500", "154110.712500", "154112.202500", "154113.692500", "154115.182500", "154116.672500", "154118.162500", "154119.652500", "154121.142500", "154122.632500", "154124.122500", "154125.612500", "154127.102500", "154128.592500", "154130.082500", "154131.572500", "154133.062500", "154134.552500", "154136.042500", "154137.532500", "154139.022500", "154140.512500", "154142.002500", "154143.492500", "154144.982500", "154146.472500", "154147.962500", "154149.452500", "154150.942500", "154152.432500", "154153.922500", "154155.412500", "154156.902500", "154158.392500", "154159.882500", "154201.372500", "154202.862500", "154204.352500", "154205.842500", "154207.332500", "154208.822500", "154210.312500", "154211.802500", "154213.292500", "154214.782500", "154216.272500", "154217.762500", "154219.252500", "154220.742500", "154222.232500", "154223.722500", "154225.212500", "154226.702500", "154228.192500", "154229.682500", "154231.172500", "154232.662500", "154234.152500", "154235.642500", "154237.132500", "154238.622500", "154240.112500", "154241.602500", "154243.092500", "154244.582500", "154246.072500", "154247.562500", "154249.052500", "154250.542500", "154252.032500", "154253.522500", "154255.012500", "154256.502500", "154257.992500", "154259.482500", "154300.972500", "154302.462500", "154303.952500", "154305.442500", "154306.932500", "154308.422500", "154309.912500", "154311.402500", "154312.892500", "154314.382500", "154315.872500", "154317.362500", "154318.852500", "154320.342500", "154321.832500", "154323.322500", "154324.812500", "154326.302500", "154327.792500", "154329.282500", "154330.772500", "154332.262500", "154333.752500", "154335.242500", "154336.732500", "154338.222500", "154339.712500", "154341.202500", "154342.692500", "154344.182500", "154345.672500", "154347.162500", "154348.652500", "154350.142500", "154351.632500", "154353.122500", "154354.612500", "154356.102500", "154357.592500", "154359.082500", "154400.572500", "154402.062500", "154403.552500", "154405.042500", "154406.532500", "154408.022500", "154409.512500", "154411.002500", "154412.492500", "154413.982500", "154415.472500", "154416.962500", "154418.452500", "154419.942500", "154421.432500", "154422.922500", "154424.412500", "154425.902500", "154427.392500", "154428.882500", "154430.372500", "154431.862500", "154433.352500", "154434.842500", "154436.332500", "154437.822500", "154439.312500", "154440.802500", "154442.292500", "154443.782500", "154445.272500", "154446.762500", "154448.252500", "154449.742500", "154451.232500", "154452.722500", "154454.212500", "154455.702500", "154457.192500", "154458.682500", "154500.172500", "154501.662500", "154503.152500", "154504.642500", "154506.132500", "154507.622500", "154509.112500", "154510.602500", "154512.092500", "154513.582500", "154515.072500", "154516.562500", "154518.052500", "154519.542500", "154521.032500", "154522.522500", "154524.012500", "154525.502500", "154526.992500", "154528.482500", "154529.972500", "154531.462500", "154532.952500", "154534.442500", "154535.932500", "154537.422500", "154538.912500", "154540.402500", "154541.892500", "154543.382500", "154544.872500", "154546.362500", "154547.852500", "154549.342500", "154550.832500", "154552.322500", "154553.812500", "154555.302500", "154556.792500", "154558.282500", "154559.772500", "154601.262500", "154602.752500", "154604.242500", "154605.732500", "154607.222500", "154608.712500", "154610.202500", "154611.692500", "154613.182500", "154614.672500", "154616.162500", "154617.652500", "154619.142500", "154620.632500", "154622.122500", "154623.612500", "154625.102500", "154626.592500", "154628.082500", "154629.572500", "154631.062500", "154632.552500", "154634.042500", "154635.532500", "154637.022500", "154638.512500", "154640.002500", "154641.492500", "154642.982500", "154644.472500", "154645.962500", "154647.452500", "154648.942500", "154650.432500", "154651.922500", "154653.412500", "154654.902500", "154656.392500", "154657.882500", "154659.372500", "154700.862500", "154702.352500", "154703.842500", "154705.332500", "154706.822500", "154708.312500", "154709.802500", "154711.292500", "154712.782500", "154714.272500", "154715.762500", "154717.252500", "154718.742500", "154720.232500", "154721.722500", "154723.212500", "154724.702500", "154726.192500", "154727.682500", "154729.172500", "154730.662500", "154732.152500", "154733.642500", "154735.132500"],
      "ContentTime": ["153727.699000", "153727.703000", "153727.706000", "153727.709000", "153727.711000", "153727.714000", "153727.717000", "153727.720000", "153727.723000", "153727.726000", "153727.729000", "153727.732000", "153727.735000", "153727.738000", "153727.740000", "153727.751000", "153727.754000", "153727.757000", "153727.760000", "153727.768000", "153727.770000", "153747.670000", "153747.680000", "153747.683000", "153747.686000", "153747.689000", "153747.692000", "153747.695000", "153747.698000", "153747.700000", "153747.703000", "153747.706000", "153747.709000", "153747.712000", "153747.715000", "153747.718000", "153747.721000", "153747.723000", "153747.726000", "153747.734000", "153747.737000", "153807.670000", "153807.673000", "153807.676000", "153807.679000", "153807.682000", "153807.685000", "153807.688000", "153807.691000", "153807.694000", "153807.696000", "153807.699000", "153807.702000", "153807.705000", "153807.708000", "153807.711000", "153807.714000", "153807.717000", "153807.720000", "153807.723000", "153807.726000", "153827.669000", "153827.673000", "153827.675000", "153827.678000", "153827.681000", "153827.684000", "153827.687000", "153827.690000", "153827.693000", "153827.696000", "153827.699000", "153827.701000", "153827.704000", "153827.707000", "153827.710000", "153827.713000", "153827.716000", "153827.719000", "153827.722000", "153827.725000", "153827.727000", "153847.669000", "153847.672000", "153847.675000", "153847.678000", "153847.681000", "153847.684000", "153847.686000", "153847.689000", "153847.692000", "153847.695000", "153847.698000", "153847.701000", "153847.704000", "153847.707000", "153847.710000", "153847.712000", "153847.715000", "153847.718000", "153847.721000", "153847.724000", "153927.669000", "153927.672000", "153927.675000", "153927.678000", "153927.693000", "153927.697000", "153927.700000", "153927.703000", "153927.705000", "153927.708000", "153927.711000", "153927.714000", "153927.717000", "153927.720000", "153927.723000", "153927.726000", "153927.728000", "153927.731000", "153927.734000", "153927.737000", "153927.740000", "153927.743000", "153927.746000", "153927.749000", "153927.752000", "153927.754000", "153927.757000", "153927.760000", "153927.763000", "154007.670000", "154007.673000", "154007.676000", "154007.679000", "154007.682000", "154007.685000", "154007.688000", "154007.691000", "154007.693000", "154007.696000", "154007.699000", "154007.702000", "154007.705000", "154007.708000", "154007.711000", "154007.714000", "154007.717000", "154007.719000", "154007.722000", "154007.725000", "154007.728000", "154007.731000", "154007.734000", "154007.737000", "154007.740000", "154007.742000", "154007.745000", "154047.669000", "154047.672000", "154047.675000", "154047.679000", "154047.681000", "154047.684000", "154047.687000", "154047.690000", "154047.693000", "154047.696000", "154047.699000", "154047.702000", "154047.705000", "154047.707000", "154047.710000", "154047.713000", "154047.716000", "154047.719000", "154047.722000", "154047.725000", "154047.728000", "154047.731000", "154047.734000", "154047.736000", "154047.739000", "154047.742000", "154127.669000", "154127.672000", "154127.675000", "154127.678000", "154127.681000", "154127.684000", "154127.687000", "154127.689000", "154127.692000", "154127.695000", "154127.698000", "154127.701000", "154127.707000", "154127.710000", "154127.712000", "154127.715000", "154127.719000", "154127.722000", "154127.724000", "154127.727000", "154127.730000", "154127.733000", "154127.736000", "154127.739000", "154127.742000", "154127.744000", "154127.747000", "154147.669000", "154147.672000", "154147.675000", "154147.678000", "154147.681000", "154147.684000", "154147.687000", "154147.690000", "154147.693000", "154147.696000", "154147.698000", "154147.701000", "154147.704000", "154147.707000", "154227.670000", "154227.673000", "154227.676000", "154227.679000", "154227.682000", "154227.685000", "154227.688000", "154227.691000", "154227.693000", "154227.696000", "154227.699000", "154227.702000", "154227.705000", "154227.708000", "154227.711000", "154227.714000", "154227.716000", "154227.719000", "154227.722000", "154227.725000", "154227.728000", "154227.731000", "154227.734000", "154227.737000", "154227.740000", "154227.743000", "154227.746000", "154307.669000", "154307.672000", "154307.675000", "154307.678000", "154307.681000", "154307.684000", "154307.687000", "154307.690000", "154307.692000", "154307.695000", "154307.698000", "154307.701000", "154307.704000", "154307.707000", "154307.710000", "154307.713000", "154307.715000", "154307.718000", "154307.721000", "154307.724000", "154307.727000", "154307.730000", "154307.733000", "154307.736000", "154307.739000", "154307.742000", "154347.669000", "154347.672000", "154347.676000", "154347.679000", "154347.682000", "154347.684000", "154347.688000", "154347.690000", "154347.693000", "154347.696000", "154347.699000", "154347.702000", "154347.705000", "154347.708000", "154347.711000", "154347.713000", "154347.730000", "154347.733000", "154347.736000", "154347.739000", "154347.742000", "154347.745000", "154347.748000", "154347.751000", "154347.753000", "154347.756000", "154347.759000", "154427.670000", "154427.673000", "154427.676000", "154427.679000", "154427.682000", "154427.685000", "154427.692000", "154427.695000", "154427.698000", "154427.701000", "154427.704000", "154427.707000", "154427.709000", "154427.712000", "154427.715000", "154427.718000", "154427.721000", "154427.724000", "154427.727000", "154427.730000", "154427.732000", "154427.743000", "154427.746000", "154427.749000", "154427.751000", "154427.760000", "154427.763000", "154507.670000", "154507.673000", "154507.676000", "154507.679000", "154507.682000", "154507.685000", "154507.688000", "154507.690000", "154507.694000", "154507.696000", "154507.699000", "154507.702000", "154507.705000", "154507.708000", "154507.711000", "154507.714000", "154507.717000", "154507.720000", "154507.722000", "154507.725000", "154507.728000", "154507.731000", "154507.734000", "154507.737000", "154507.740000", "154507.743000", "154507.745000", "154547.669000", "154547.672000", "154547.675000", "154547.678000", "154547.681000", "154547.684000", "154547.687000", "154547.690000", "154547.692000", "154547.695000", "154547.698000", "154547.701000", "154547.704000", "154547.707000", "154547.710000", "154547.713000", "154547.716000", "154547.718000", "154547.721000", "154547.724000", "154547.727000", "154547.730000", "154547.733000", "154547.736000", "154547.739000", "154547.741000", "154547.744000", "154627.669000", "154627.672000", "154627.675000", "154627.678000", "154627.681000", "154627.684000", "154627.687000", "154627.690000", "154627.692000", "154627.695000", "154627.698000", "154627.701000", "154627.704000", "154627.707000", "154627.710000", "154627.713000", "154627.716000", "154627.718000", "154627.721000", "154627.724000", "154627.727000", "154627.730000", "154627.733000", "154627.736000", "154627.739000", "154627.741000", "154627.744000", "154707.670000", "154707.673000", "154707.676000", "154707.679000", "154707.682000", "154707.685000", "154707.688000", "154707.691000", "154707.694000", "154707.697000", "154707.699000", "154707.702000", "154707.705000", "154707.708000", "154707.711000", "154707.714000", "154707.717000", "154707.720000", "154707.723000", "154707.725000", "154707.728000", "154707.731000", "154707.734000", "154707.737000", "154707.740000", "154707.743000", "154707.746000", "154737.468000", "154737.471000", "154737.475000", "154737.477000", "154737.480000", "154737.483000", "154737.486000", "154737.489000", "154737.492000", "154737.495000", "154737.498000", "154737.501000", "154737.504000", "154737.507000", "154737.510000", "154737.513000", "154737.516000", "154737.518000", "154737.522000", "154737.524000"],
