{
  "AcquisitionMatrixPE": 104,
  "AcquisitionNumber": 1,
  "AcquisitionTime": "14:58:54.552500",
  "BandwidthPerPixelPhaseEncode": 17.17,
  "BaseResolution": 104,
  "BodyPartExamined": "BRAIN",
  "CoilString": "HC1-7;NC1_2",
  "ConsistencyInfo": "N4_VE11C_LATEST_20160120",
  "ConversionSoftware": "dcm2niix",
  "ConversionSoftwareVersion": "v1.0.20190902",
  "DerivedVendorReportedEchoSpacing": 0.000560011,
  "DeviceSerialNumber": "167006",
  "DwellTime": 2.1e-06,
  "EchoTime": 0.037,
  "EchoTrainLength": 104,
  "EffectiveEchoSpacing": 0.000560011,
  "FlipAngle": 52,
  "ImageComments": "Unaliased_MB4_PE3_LB",
  "ImageOrientationPatientDICOM": [0.99825, -0.0590027, 0.00384694, 0.05651, 0.932886, -0.355712],
  "ImageType": [
    "ORIGINAL",
    "PRIMARY",
    "M",
    "MB",
    "ND",
    "MOSAIC"
],
  "ImagingFrequency": 123.259,
  "InPlanePhaseEncodingDirectionDICOM": "COL",
  "InstitutionAddress": "Chemin_Queen-Mary_4565_Montreal_District_CA_H3W_1W5",
  "InstitutionName": "IUGM",
  "InstitutionalDepartmentName": "Department",
  "MRAcquisitionType": "2D",
  "MagneticFieldStrength": 3,
  "Manufacturer": "Siemens",
  "ManufacturersModelName": "Prisma_fit",
  "Modality": "MR",
  "MultibandAccelerationFactor": 4,
  "PartialFourier": 1,
  "PatientPosition": "HFS",
  "PercentPhaseFOV": 100,
  "PhaseEncodingDirection": "j",
  "PhaseEncodingSteps": 104,
  "PhaseResolution": 1,
  "PixelBandwidth": 2290,
  "ProcedureStepDescription": "video_friends",
  "ProtocolName": "func_task-friends-s03e19b",
  "PulseSequenceDetails": "%CustomerSeq%_cmrr_mbep2d_bold",
  "ReceiveCoilActiveElements": "HC1-7;NC1,2",
  "ReceiveCoilName": "HeadNeck_64",
  "ReconMatrixPE": 104,
  "RepetitionTime": 1.49,
  "SAR": 0.0308752,
  "ScanOptions": "FS",
  "ScanningSequence": "EP",
  "SequenceName": "epfid2d1_104",
  "SequenceVariant": "SK_SS",
  "SeriesDescription": "func_task-friends-s03e19b",
  "SeriesNumber": 11,
  "ShimSetting": [640, -7261, -8811, 620, 23, -222, -82, -12],
  "SliceThickness": 2,
  "SliceTiming": [0, 0.7825, 0.0975, 0.8825, 0.195, 0.98, 0.2925, 1.0775, 0.3925, 1.175, 0.49, 1.2725, 0.5875, 1.3725, 0.685, 0, 0.7825, 0.0975, 0.8825, 0.195, 0.98, 0.2925, 1.0775, 0.3925, 1.175, 0.49, 1.2725, 0.5875, 1.3725, 0.685, 0, 0.7825, 0.0975, 0.8825, 0.195, 0.98, 0.2925, 1.0775, 0.3925, 1.175, 0.49, 1.2725, 0.5875, 1.3725, 0.685, 0, 0.7825, 0.0975, 0.8825, 0.195, 0.98, 0.2925, 1.0775, 0.3925, 1.175, 0.49, 1.2725, 0.5875, 1.3725, 0.685],
  "SoftwareVersions": "syngo_MR_E11",
  "SpacingBetweenSlices": 2,
  "StationName": "MRC35049",
  "TaskName": "s03e19b",
  "TotalReadoutTime": 0.0576811,
  "TxRefAmp": 218.181,
  "WipMemBlock": "bac05c61-eede-4bb1-aadd-eede3b7e227f||Sequence: R016 ve11c/master r/e634e98; Dec 19 2017 11:00:25 by eja",
  "dcmmeta_affine": [
    [-1.996500849723816, 0.11302001029253006, -0.03479837253689766, 97.04191589355469],
    [0.11800531297922134, 1.8657714128494263, -0.7106137871742249, -77.63736724853516],
    [0.007693886291235685, 0.7114236950874329, 1.8691755533218384, -62.712059020996094],
    [0.0, 0.0, 0.0, 1.0]
],
  "dcmmeta_reorient_transform": [
    [0.0, -1.0, 0.0, 103.0],
    [1.0, 0.0, 0.0, 0.0],
    [0.0, 0.0, 1.0, 0.0],
    [0.0, 0.0, 0.0, 1.0]
],
  "dcmmeta_shape": [104, 104, 60, 468],
  "dcmmeta_slice_dim": 2,
  "dcmmeta_version": 0.6,
  "global": {
    "const": {
      "AcquisitionMatrix": [104, 0, 0, 104],
      "AngioFlag": "N",
      "BitsAllocated": 16,
      "BitsStored": 16,
      "BodyPartExamined": "BRAIN",
      "Columns": 832,
      "EchoNumbers": 1,
      "EchoTime": 37.0,
      "EchoTrainLength": 104,
      "FlipAngle": 52.0,
      "HighBit": 15,
      "ImageOrientationPatient": [0.99825041331916, -0.0590026553349, 0.00384694314485, 0.05651000495084, 0.9328856851791, -0.355711846483],
      "ImagePositionPatient": [-876.54856468147, -750.72392866363, 266.72223213047],
      "ImageType": [
        "ORIGINAL",
        "PRIMARY",
        "M",
        "MB",
        "ND",
        "MOSAIC"
],
      "ImagedNucleus": "1H",
      "ImagingFrequency": 123.259368,
      "InPlanePhaseEncodingDirection": "COL",
      "MRAcquisitionType": "2D",
      "MagneticFieldStrength": 3.0,
      "Manufacturer": "SIEMENS",
      "ManufacturerModelName": "Prisma_fit",
      "Modality": "MR",
      "NumberOfAverages": 1.0,
      "NumberOfPhaseEncodingSteps": 104,
      "PercentPhaseFieldOfView": 100.0,
      "PercentSampling": 100.0,
      "PerformedProcedureStepStartTime": "141906.254000",
      "PhotometricInterpretation": "MONOCHROME2",
      "PixelBandwidth": 2290.0,
      "PixelRepresentation": 0,
      "PixelSpacing": [2.0, 2.0],
      "ProtocolName": "func_task-friends-s03e19b",
      "RepetitionTime": 1490.0,
      "Rows": 832,
      "SAR": 0.03087518182583,
      "SamplesPerPixel": 1,
      "ScanOptions": "FS",
      "ScanningSequence": "EP",
      "SequenceName": "epfid2d1_104",
      "SequenceVariant": [
        "SK",
        "SS"
],
      "SeriesDescription": "func_task-friends-s03e19b",
      "SeriesNumber": 11,
      "SeriesTime": "150007.702000",
      "SliceLocation": -32.713280365035,
      "SliceThickness": 2.0,
      "SmallestImagePixelValue": 0,
      "SoftwareVersions": "syngo MR E11",
      "SpacingBetweenSlices": 2.000000042334,
      "SpecificCharacterSet": "ISO_IR 100",
      "StudyID": "1",
      "StudyTime": "141906.082000",
      "TransmitCoilName": "Body",
      "VariableFlipAngleFlag": "N",
      "WindowCenterWidthExplanation": "Algo1",
      "dBdt": 0.0},
    "slices": {}
  },
  "time": {
    "samples": {
      "AcquisitionNumber": [1, 2, 3, 4, 5, 6, 7, 8, 9, 10, 11, 12, 13, 14, 15, 16, 17, 18, 19, 20, 21, 22, 23, 24, 25, 26, 27, 28, 29, 30, 31, 32, 33, 34, 35, 36, 37, 38, 39, 40, 41, 42, 43, 44, 45, 46, 47, 48, 49, 50, 51, 52, 53, 54, 55, 56, 57, 58, 59, 60, 61, 62, 63, 64, 65, 66, 67, 68, 69, 70, 71, 72, 73, 74, 75, 76, 77, 78, 79, 80, 81, 82, 83, 84, 85, 86, 87, 88, 89, 90, 91, 92, 93, 94, 95, 96, 97, 98, 99, 100, 101, 102, 103, 104, 105, 106, 107, 108, 109, 110, 111, 112, 113, 114, 115, 116, 117, 118, 119, 120, 121, 122, 123, 124, 125, 126, 127, 128, 129, 130, 131, 132, 133, 134, 135, 136, 137, 138, 139, 140, 141, 142, 143, 144, 145, 146, 147, 148, 149, 150, 151, 152, 153, 154, 155, 156, 157, 158, 159, 160, 161, 162, 163, 164, 165, 166, 167, 168, 169, 170, 171, 172, 173, 174, 175, 176, 177, 178, 179, 180, 181, 182, 183, 184, 185, 186, 187, 188, 189, 190, 191, 192, 193, 194, 195, 196, 197, 198, 199, 200, 201, 202, 203, 204, 205, 206, 207, 208, 209, 210, 211, 212, 213, 214, 215, 216, 217, 218, 219, 220, 221, 222, 223, 224, 225, 226, 227, 228, 229, 230, 231, 232, 233, 234, 235, 236, 237, 238, 239, 240, 241, 242, 243, 244, 245, 246, 247, 248, 249, 250, 251, 252, 253, 254, 255, 256, 257, 258, 259, 260, 261, 262, 263, 264, 265, 266, 267, 268, 269, 270, 271, 272, 273, 274, 275, 276, 277, 278, 279, 280, 281, 282, 283, 284, 285, 286, 287, 288, 289, 290, 291, 292, 293, 294, 295, 296, 297, 298, 299, 300, 301, 302, 303, 304, 305, 306, 307, 308, 309, 310, 311, 312, 313, 314, 315, 316, 317, 318, 319, 320, 321, 322, 323, 324, 325, 326, 327, 328, 329, 330, 331, 332, 333, 334, 335, 336, 337, 338, 339, 340, 341, 342, 343, 344, 345, 346, 347, 348, 349, 350, 351, 352, 353, 354, 355, 356, 357, 358, 359, 360, 361, 362, 363, 364, 365, 366, 367, 368, 369, 370, 371, 372, 373, 374, 375, 376, 377, 378, 379, 380, 381, 382, 383, 384, 385, 386, 387, 388, 389, 390, 391, 392, 393, 394, 395, 396, 397, 398, 399, 400, 401, 402, 403, 404, 405, 406, 407, 408, 409, 410, 411, 412, 413, 414, 415, 416, 417, 418, 419, 420, 421, 422, 423, 424, 425, 426, 427, 428, 429, 430, 431, 432, 433, 434, 435, 436, 437, 438, 439, 440, 441, 442, 443, 444, 445, 446, 447, 448, 449, 450, 451, 452, 453, 454, 455, 456, 457, 458, 459, 460, 461, 462, 463, 464, 465, 466, 467, 468],
      "AcquisitionTime": ["145854.552500", "145856.042500", "145857.532500", "145859.022500", "145900.512500", "145902.002500", "145903.492500", "145904.982500", "145906.472500", "145907.962500", "145909.452500", "145910.942500", "145912.432500", "145913.922500", "145915.412500", "145916.902500", "145918.392500", "145919.882500", "145921.372500", "145922.862500", "145924.352500", "145925.842500", "145927.332500", "145928.822500", "145930.312500", "145931.802500", "145933.292500", "145934.782500", "145936.272500", "145937.762500", "145939.252500", "145940.742500", "145942.232500", "145943.722500", "145945.212500", "145946.702500", "145948.192500", "145949.682500", "145951.172500", "145952.662500", "145954.152500", "145955.642500", "145957.132500", "145958.622500", "150000.112500", "150001.602500", "150003.092500", "150004.582500", "150006.072500", "150007.562500", "150009.052500", "150010.542500", "150012.032500", "150013.522500", "150015.012500", "150016.502500", "150017.992500", "150019.482500", "150020.972500", "150022.462500", "150023.952500", "150025.442500", "150026.932500", "150028.422500", "150029.912500", "150031.402500", "150032.892500", "150034.382500", "150035.872500", "150037.362500", "150038.852500", "150040.342500", "150041.832500", "150043.322500", "150044.812500", "150046.302500", "150047.792500", "150049.282500", "150050.772500", "150052.262500", "150053.752500", "150055.242500", "150056.732500", "150058.222500", "150059.712500", "150101.202500", "150102.692500", "150104.182500", "150105.672500", "150107.162500", "150108.652500", "150110.142500", "150111.632500", "150113.122500", "150114.612500", "150116.102500", "150117.592500", "150119.082500", "150120.572500", "150122.062500", "150123.552500", "150125.042500", "150126.532500", "150128.022500", "150129.512500", "150131.002500", "150132.492500", "150133.982500", "150135.472500", "150136.962500", "150138.452500", "150139.942500", "150141.432500", "150142.922500", "150144.412500", "150145.902500", "150147.392500", "150148.882500", "150150.372500", "150151.862500", "150153.352500", "150154.842500", "150156.332500", "150157.822500", "150159.312500", "150200.802500", "150202.292500", "150203.782500", "150205.272500", "150206.762500", "150208.252500", "150209.742500", "150211.232500", "150212.722500", "150214.212500", "150215.702500", "150217.192500", "150218.682500", "150220.172500", "150221.662500", "150223.152500", "150224.642500", "150226.132500", "150227.622500", "150229.112500", "150230.602500", "150232.092500", "150233.582500", "150235.072500", "150236.562500", "150238.052500", "150239.542500", "150241.032500", "150242.522500", "150244.012500", "150245.502500", "150246.992500", "150248.482500", "150249.972500", "150251.462500", "150252.952500", "150254.442500", "150255.932500", "150257.422500", "150258.912500", "150300.402500", "150301.892500", "150303.382500", "150304.872500", "150306.362500", "150307.852500", "150309.342500", "150310.832500", "150312.322500", "150313.812500", "150315.302500", "150316.792500", "150318.282500", "150319.772500", "150321.262500", "150322.752500", "150324.242500", "150325.732500", "150327.222500", "150328.712500", "150330.202500", "150331.692500", "150333.182500", "150334.672500", "150336.162500", "150337.652500", "150339.142500", "150340.632500", "150342.122500", "150343.612500", "150345.102500", "150346.592500", "150348.082500", "150349.572500", "150351.062500", "150352.552500", "150354.042500", "150355.532500", "150357.022500", "150358.512500", "150400.002500", "150401.492500", "150402.982500", "150404.472500", "150405.962500", "150407.452500", "150408.942500", "150410.432500", "150411.922500", "150413.412500", "150414.902500", "150416.392500", "150417.882500", "150419.372500", "150420.862500", "150422.352500", "150423.842500", "150425.332500", "150426.822500", "150428.312500", "150429.802500", "150431.292500", "150432.782500", "150434.272500", "150435.762500", "150437.252500", "150438.742500", "150440.232500", "150441.722500", "150443.212500", "150444.702500", "150446.192500", "150447.682500", "150449.172500", "150450.662500", "150452.152500", "150453.642500", "150455.132500", "150456.622500", "150458.112500", "150459.602500", "150501.092500", "150502.582500", "150504.072500", "150505.562500", "150507.052500", "150508.542500", "150510.032500", "150511.522500", "150513.012500", "150514.502500", "150515.992500", "150517.482500", "150518.972500", "150520.462500", "150521.952500", "150523.442500", "150524.932500", "150526.422500", "150527.912500", "150529.402500", "150530.892500", "150532.382500", "150533.872500", "150535.362500", "150536.852500", "150538.342500", "150539.832500", "150541.322500", "150542.812500", "150544.302500", "150545.792500", "150547.282500", "150548.772500", "150550.262500", "150551.752500", "150553.242500", "150554.732500", "150556.222500", "150557.712500", "150559.202500", "150600.692500", "150602.182500", "150603.672500", "150605.162500", "150606.652500", "150608.142500", "150609.632500", "150611.122500", "150612.612500", "150614.102500", "150615.592500", "150617.082500", "150618.572500", "150620.062500", "150621.552500", "150623.042500", "150624.532500", "150626.022500", "150627.512500", "150629.002500", "150630.492500", "150631.982500", "150633.472500", "150634.962500", "150636.452500", "150637.942500", "150639.432500", "150640.922500", "150642.412500", "150643.902500", "150645.392500", "150646.882500", "150648.372500", "150649.862500", "150651.352500", "150652.842500", "150654.332500", "150655.822500", "150657.312500", "150658.802500", "150700.292500", "150701.782500", "150703.272500", "150704.762500", "150706.252500", "150707.742500", "150709.232500", "150710.722500", "150712.212500", "150713.702500", "150715.192500", "150716.682500", "150718.172500", "150719.662500", "150721.152500", "150722.642500", "150724.132500", "150725.622500", "150727.112500", "150728.602500", "150730.092500", "150731.582500", "150733.072500", "150734.562500", "150736.052500", "150737.542500", "150739.032500", "150740.522500", "150742.012500", "150743.502500", "150744.992500", "150746.482500", "150747.972500", "150749.462500", "150750.952500", "150752.442500", "150753.932500", "150755.422500", "150756.912500", "150758.402500", "150759.892500", "150801.382500", "150802.872500", "150804.362500", "150805.852500", "150807.342500", "150808.832500", "150810.322500", "150811.812500", "150813.302500", "150814.792500", "150816.282500", "150817.772500", "150819.262500", "150820.752500", "150822.242500", "150823.732500", "150825.222500", "150826.712500", "150828.202500", "150829.692500", "150831.182500", "150832.672500", "150834.162500", "150835.652500", "150837.142500", "150838.632500", "150840.122500", "150841.612500", "150843.102500", "150844.592500", "150846.082500", "150847.572500", "150849.062500", "150850.552500", "150852.042500", "150853.532500", "150855.022500", "150856.512500", "150858.002500", "150859.492500", "150900.982500", "150902.472500", "150903.962500", "150905.452500", "150906.942500", "150908.432500", "150909.922500", "150911.412500", "150912.902500", "150914.392500", "150915.882500", "150917.372500", "150918.862500", "150920.352500", "150921.842500", "150923.332500", "150924.822500", "150926.312500", "150927.802500", "150929.292500", "150930.782500", "150932.272500", "150933.762500", "150935.252500", "150936.742500", "150938.232500", "150939.722500", "150941.212500", "150942.702500", "150944.192500", "150945.682500", "150947.172500", "150948.662500", "150950.152500", "150951.642500", "150953.132500", "150954.622500", "150956.112500", "150957.602500", "150959.092500", "151000.582500", "151002.072500", "151003.562500", "151005.052500", "151006.542500", "151008.032500", "151009.522500", "151011.012500", "151012.502500", "151013.992500", "151015.482500", "151016.972500", "151018.462500", "151019.952500", "151021.442500", "151022.932500", "151024.422500", "151025.912500", "151027.402500", "151028.892500", "151030.382500"],
      "ContentTime": ["150007.705000", "150007.708000", "150007.711000", "150007.719000", "150007.727000", "150007.730000", "150007.732000", "150007.735000", "150007.738000", "150007.741000", "150007.744000", "150007.747000", "150007.756000", "150007.759000", "150007.762000", "150007.769000", "150007.771000", "150007.774000", "150007.777000", "150007.780000", "150027.670000", "150027.673000", "150027.676000", "150027.678000", "150027.681000", "150027.684000", "150027.687000", "150027.690000", "150027.693000", "150027.696000", "150027.699000", "150027.702000", "150027.705000", "150027.708000", "150027.710000", "150027.713000", "150027.716000", "150027.719000", "150027.722000", "150027.725000", "150047.670000", "150047.673000", "150047.676000", "150047.679000", "150047.681000", "150047.684000", "150047.687000", "150047.690000", "150047.693000", "150047.696000", "150047.699000", "150047.702000", "150047.704000", "150047.707000", "150047.710000", "150047.713000", "150047.716000", "150047.719000", "150047.722000", "150047.726000", "150107.670000", "150107.673000", "150107.676000", "150107.679000", "150107.682000", "150107.685000", "150107.688000", "150107.690000", "150107.693000", "150107.696000", "150107.699000", "150107.702000", "150107.705000", "150107.707000", "150107.710000", "150107.713000", "150107.716000", "150107.719000", "150107.722000", "150107.725000", "150107.728000", "150127.669000", "150127.672000", "150127.675000", "150127.678000", "150127.681000", "150127.683000", "150127.686000", "150127.689000", "150127.692000", "150127.695000", "150127.698000", "150127.718000", "150127.720000", "150127.723000", "150127.726000", "150127.729000", "150127.732000", "150127.735000", "150127.738000", "150127.740000", "150147.669000", "150147.672000", "150147.675000", "150147.687000", "150147.690000", "150147.697000", "150147.699000", "150147.702000", "150147.705000", "150147.708000", "150147.711000", "150147.714000", "150147.717000", "150147.720000", "150227.669000", "150227.672000", "150227.675000", "150227.678000", "150227.681000", "150227.684000", "150227.687000", "150227.690000", "150227.692000", "150227.695000", "150227.698000", "150227.701000", "150227.704000", "150227.707000", "150227.710000", "150227.713000", "150227.715000", "150227.718000", "150227.721000", "150227.724000", "150227.727000", "150227.730000", "150227.733000", "150227.736000", "150227.739000", "150227.742000", "150227.744000", "150307.670000", "150307.673000", "150307.676000", "150307.679000", "150307.682000", "150307.685000", "150307.687000", "150307.690000", "150307.693000", "150307.696000", "150307.699000", "150307.702000", "150307.705000", "150307.708000", "150307.710000", "150307.713000", "150307.716000", "150307.719000", "150307.722000", "150307.725000", "150307.728000", "150307.731000", "150307.733000", "150307.736000", "150307.739000", "150307.742000", "150307.745000", "150347.669000", "150347.672000", "150347.675000", "150347.678000", "150347.681000", "150347.684000", "150347.686000", "150347.689000", "150347.692000", "150347.695000", "150347.698000", "150347.701000", "150347.704000", "150347.707000", "150347.709000", "150347.712000", "150347.715000", "150347.718000", "150347.721000", "150347.724000", "150347.727000", "150347.730000", "150347.733000", "150347.736000", "150347.738000", "150347.741000", "150347.744000", "150427.669000", "150427.672000", "150427.675000", "150427.678000", "150427.681000", "150427.684000", "150427.687000", "150427.689000", "150427.692000", "150427.695000", "150427.698000", "150427.701000", "150427.704000", "150427.707000", "150427.710000", "150427.715000", "150427.718000", "150427.721000", "150427.724000", "150427.727000", "150427.730000", "150427.733000", "150427.736000", "150427.738000", "150427.741000", "150427.744000", "150427.747000", "150507.670000", "150507.680000", "150507.683000", "150507.686000", "150507.689000", "150507.692000", "150507.695000", "150507.697000", "150507.700000", "150507.703000", "150507.706000", "150507.709000", "150507.712000", "150507.715000", "150507.718000", "150507.720000", "150507.723000", "150507.726000", "150507.729000", "150507.732000", "150507.735000", "150507.738000", "150507.741000", "150507.744000", "150507.746000", "150507.749000", "150507.752000", "150547.669000", "150547.672000", "150547.675000", "150547.678000", "150547.681000", "150547.684000", "150547.687000", "150547.690000", "150547.692000", "150547.695000", "150547.698000", "150547.701000", "150547.704000", "150547.707000", "150547.711000", "150547.714000", "150547.717000", "150547.720000", "150547.723000", "150547.726000", "150547.729000", "150547.732000", "150547.735000", "150547.738000", "150547.740000", "150547.743000", "150627.669000", "150627.672000", "150627.675000", "150627.678000", "150627.681000", "150627.684000", "150627.687000", "150627.690000", "150627.692000", "150627.695000", "150627.698000", "150627.701000", "150627.704000", "150627.707000", "150627.710000", "150627.713000", "150627.715000", "150627.718000", "150627.735000", "150627.738000", "150627.740000", "150627.743000", "150627.746000", "150627.749000", "150627.752000", "150627.755000", "150627.758000", "150707.669000", "150707.672000", "150707.675000", "150707.678000", "150707.681000", "150707.684000", "150707.687000", "150707.690000", "150707.693000", "150707.696000", "150707.707000", "150707.710000", "150707.713000", "150707.716000", "150707.719000", "150707.722000", "150707.725000", "150707.728000", "150707.731000", "150707.734000", "150707.737000", "150707.740000", "150707.743000", "150707.746000", "150707.749000", "150707.751000", "150707.754000", "150747.670000", "150747.673000", "150747.676000", "150747.679000", "150747.682000", "150747.685000", "150747.688000", "150747.690000", "150747.694000", "150747.696000", "150747.699000", "150747.702000", "150747.705000", "150747.708000", "150747.711000", "150747.714000", "150747.717000", "150747.720000", "150747.723000", "150747.726000", "150747.729000", "150747.732000", "150747.735000", "150747.737000", "150747.740000", "150747.743000", "150747.746000", "150827.669000", "150827.672000", "150827.675000", "150827.678000", "150827.681000", "150827.684000", "150827.686000", "150827.689000", "150827.692000", "150827.695000", "150827.698000", "150827.701000", "150827.704000", "150827.707000", "150827.710000", "150827.713000", "150827.716000", "150827.718000", "150827.721000", "150827.724000", "150827.727000", "150827.730000", "150827.733000", "150827.736000", "150827.739000", "150827.741000", "150827.744000", "150907.669000", "150907.672000", "150907.675000", "150907.678000", "150907.681000", "150907.684000", "150907.687000", "150907.689000", "150907.692000", "150907.695000", "150907.698000", "150907.701000", "150907.704000", "150907.707000", "150907.710000", "150907.713000", "150907.715000", "150907.718000", "150907.721000", "150907.724000", "150907.727000", "150907.730000", "150907.733000", "150907.743000", "150907.746000", "150907.749000", "150907.752000", "150947.670000", "150947.673000", "150947.676000", "150947.679000", "150947.682000", "150947.685000", "150947.688000", "150947.691000", "150947.693000", "150947.696000", "150947.699000", "150947.702000", "150947.705000", "150947.708000", "150947.711000", "150947.714000", "150947.717000", "150947.720000", "150947.723000", "150947.726000", "150947.729000", "150947.732000", "150947.735000", "150947.737000", "150947.740000", "150947.743000", "151027.669000", "151027.672000", "151027.675000", "151027.678000", "151027.681000", "151027.684000", "151027.687000", "151027.693000", "151027.696000", "151027.699000", "151027.702000", "151027.705000", "151027.708000", "151027.711000", "151027.714000", "151027.717000", "151027.719000", "151027.722000", "151027.725000", "151027.728000", "151027.731000", "151027.734000", "151027.737000", "151027.740000", "151027.742000", "151027.745000", "151027.748000", "151032.469000", "151032.472000", "151032.475000", "151032.477000"],
