{
  "AcquisitionMatrixPE": 104,
  "AcquisitionNumber": 1,
  "AcquisitionTime": "17:16:41.265000",
  "BandwidthPerPixelPhaseEncode": 17.17,
  "BaseResolution": 104,
  "BodyPartExamined": "BRAIN",
  "CoilString": "HC1-7;NC1_2",
  "ConsistencyInfo": "N4_VE11C_LATEST_20160120",
  "ConversionSoftware": "dcm2niix",
  "ConversionSoftwareVersion": "v1.0.20190902",
  "DerivedVendorReportedEchoSpacing": 0.000560011,
  "DeviceSerialNumber": "167006",
  "DwellTime": 2.1e-06,
  "EchoTime": 0.037,
  "EchoTrainLength": 104,
  "EffectiveEchoSpacing": 0.000560011,
  "FlipAngle": 52,
  "ImageComments": "Unaliased_MB4_PE3_LB",
  "ImageOrientationPatientDICOM": [0.999197, -0.0400781, 2.8278e-05, 0.0375121, 0.934972, -0.352731],
  "ImageType": [
    "ORIGINAL",
    "PRIMARY",
    "M",
    "MB",
    "ND",
    "MOSAIC"
],
  "ImagingFrequency": 123.259,
  "InPlanePhaseEncodingDirectionDICOM": "COL",
  "InstitutionAddress": "Chemin_Queen-Mary_4565_Montreal_District_CA_H3W_1W5",
  "InstitutionName": "IUGM",
  "InstitutionalDepartmentName": "Department",
  "MRAcquisitionType": "2D",
  "MagneticFieldStrength": 3,
  "Manufacturer": "Siemens",
  "ManufacturersModelName": "Prisma_fit",
  "Modality": "MR",
  "MultibandAccelerationFactor": 4,
  "PartialFourier": 1,
  "PatientPosition": "HFS",
  "PercentPhaseFOV": 100,
  "PhaseEncodingDirection": "j",
  "PhaseEncodingSteps": 104,
  "PhaseResolution": 1,
  "PixelBandwidth": 2290,
  "ProcedureStepDescription": "video_friends",
  "ProtocolName": "func_task-friends-s03e24b",
  "PulseSequenceDetails": "%CustomerSeq%_cmrr_mbep2d_bold",
  "ReceiveCoilActiveElements": "HC1-7;NC1,2",
  "ReceiveCoilName": "HeadNeck_64",
  "ReconMatrixPE": 104,
  "RepetitionTime": 1.49,
  "SAR": 0.0320477,
  "ScanOptions": "FS",
  "ScanningSequence": "EP",
  "SequenceName": "epfid2d1_104",
  "SequenceVariant": "SK_SS",
  "SeriesDescription": "func_task-friends-s03e24b",
  "SeriesNumber": 38,
  "ShimSetting": [630, -7267, -8818, 621, 8, -222, -51, -5],
  "SliceThickness": 2,
  "SliceTiming": [0, 0.785, 0.0975, 0.8825, 0.195, 0.98, 0.295, 1.0775, 0.3925, 1.175, 0.49, 1.275, 0.5875, 1.3725, 0.685, 0, 0.785, 0.0975, 0.8825, 0.195, 0.98, 0.295, 1.0775, 0.3925, 1.175, 0.49, 1.275, 0.5875, 1.3725, 0.685, 0, 0.785, 0.0975, 0.8825, 0.195, 0.98, 0.295, 1.0775, 0.3925, 1.175, 0.49, 1.275, 0.5875, 1.3725, 0.685, 0, 0.785, 0.0975, 0.8825, 0.195, 0.98, 0.295, 1.0775, 0.3925, 1.175, 0.49, 1.275, 0.5875, 1.3725, 0.685],
  "SoftwareVersions": "syngo_MR_E11",
  "SpacingBetweenSlices": 2,
  "StationName": "MRC35049",
  "TaskName": "s03e24b",
  "TotalReadoutTime": 0.0576811,
  "TxRefAmp": 220.117,
  "WipMemBlock": "71dd491e-7948-42a6-937e-b187f65f5ed8||Sequence: R016 ve11c/master r/e634e98; Dec 19 2017 11:00:25 by eja",
  "dcmmeta_affine": [
    [-1.9983930587768555, 0.07502414286136627, -0.028220754116773605, 99.0252685546875],
    [0.08015628159046173, 1.8699449300765991, -0.704897940158844, -75.13886260986328],
    [5.6556087656645104e-05, 0.705462634563446, 1.8714492321014404, -62.26431655883789],
    [0.0, 0.0, 0.0, 1.0]
],
  "dcmmeta_reorient_transform": [
    [0.0, -1.0, 0.0, 103.0],
    [1.0, 0.0, 0.0, 0.0],
    [0.0, 0.0, 1.0, 0.0],
    [0.0, 0.0, 0.0, 1.0]
],
  "dcmmeta_shape": [104, 104, 60, 454],
  "dcmmeta_slice_dim": 2,
  "dcmmeta_version": 0.6,
  "global": {
    "const": {
      "AcquisitionMatrix": [104, 0, 0, 104],
      "AngioFlag": "N",
      "BitsAllocated": 16,
      "BitsStored": 16,
      "BodyPartExamined": "BRAIN",
      "Columns": 832,
      "EchoNumbers": 1,
      "EchoTime": 37.0,
      "EchoTrainLength": 104,
      "FlipAngle": 52.0,
      "HighBit": 15,
      "ImageOrientationPatient": [0.99919654809602, -0.0400781420894, 2.827804444e-05, 0.03751207182708, 0.93497243574265, -0.352731326747],
      "ImagePositionPatient": [-861.47662798558, -768.94850808424, 267.16615682691],
      "ImageType": [
        "ORIGINAL",
        "PRIMARY",
        "M",
        "MB",
        "ND",
        "MOSAIC"
],
      "ImagedNucleus": "1H",
      "ImagingFrequency": 123.259394,
      "InPlanePhaseEncodingDirection": "COL",
      "MRAcquisitionType": "2D",
      "MagneticFieldStrength": 3.0,
      "Manufacturer": "SIEMENS",
      "ManufacturerModelName": "Prisma_fit",
      "Modality": "MR",
      "NumberOfAverages": 1.0,
      "NumberOfPhaseEncodingSteps": 104,
      "PercentPhaseFieldOfView": 100.0,
      "PercentSampling": 100.0,
      "PerformedProcedureStepStartTime": "141906.254000",
      "PhotometricInterpretation": "MONOCHROME2",
      "PixelBandwidth": 2290.0,
      "PixelRepresentation": 0,
      "PixelSpacing": [2.0, 2.0],
      "ProtocolName": "func_task-friends-s03e24b",
      "RepetitionTime": 1490.0,
      "Rows": 832,
      "SAR": 0.03204772233688,
      "SamplesPerPixel": 1,
      "ScanOptions": "FS",
      "ScanningSequence": "EP",
      "SequenceName": "epfid2d1_104",
      "SequenceVariant": [
        "SK",
        "SS"
],
      "SeriesDescription": "func_task-friends-s03e24b",
      "SeriesNumber": 38,
      "SeriesTime": "171802.212000",
      "SliceLocation": -33.176923995407,
      "SliceThickness": 2.0,
      "SmallestImagePixelValue": 0,
      "SoftwareVersions": "syngo MR E11",
      "SpacingBetweenSlices": 2.0000000005364,
      "SpecificCharacterSet": "ISO_IR 100",
      "StudyID": "1",
      "StudyTime": "141906.082000",
      "TransmitCoilName": "Body",
      "VariableFlipAngleFlag": "N",
      "WindowCenterWidthExplanation": "Algo1",
      "dBdt": 0.0},
    "slices": {}
  },
  "time": {
    "samples": {
      "AcquisitionNumber": [1, 2, 3, 4, 5, 6, 7, 8, 9, 10, 11, 12, 13, 14, 15, 16, 17, 18, 19, 20, 21, 22, 23, 24, 25, 26, 27, 28, 29, 30, 31, 32, 33, 34, 35, 36, 37, 38, 39, 40, 41, 42, 43, 44, 45, 46, 47, 48, 49, 50, 51, 52, 53, 54, 55, 56, 57, 58, 59, 60, 61, 62, 63, 64, 65, 66, 67, 68, 69, 70, 71, 72, 73, 74, 75, 76, 77, 78, 79, 80, 81, 82, 83, 84, 85, 86, 87, 88, 89, 90, 91, 92, 93, 94, 95, 96, 97, 98, 99, 100, 101, 102, 103, 104, 105, 106, 107, 108, 109, 110, 111, 112, 113, 114, 115, 116, 117, 118, 119, 120, 121, 122, 123, 124, 125, 126, 127, 128, 129, 130, 131, 132, 133, 134, 135, 136, 137, 138, 139, 140, 141, 142, 143, 144, 145, 146, 147, 148, 149, 150, 151, 152, 153, 154, 155, 156, 157, 158, 159, 160, 161, 162, 163, 164, 165, 166, 167, 168, 169, 170, 171, 172, 173, 174, 175, 176, 177, 178, 179, 180, 181, 182, 183, 184, 185, 186, 187, 188, 189, 190, 191, 192, 193, 194, 195, 196, 197, 198, 199, 200, 201, 202, 203, 204, 205, 206, 207, 208, 209, 210, 211, 212, 213, 214, 215, 216, 217, 218, 219, 220, 221, 222, 223, 224, 225, 226, 227, 228, 229, 230, 231, 232, 233, 234, 235, 236, 237, 238, 239, 240, 241, 242, 243, 244, 245, 246, 247, 248, 249, 250, 251, 252, 253, 254, 255, 256, 257, 258, 259, 260, 261, 262, 263, 264, 265, 266, 267, 268, 269, 270, 271, 272, 273, 274, 275, 276, 277, 278, 279, 280, 281, 282, 283, 284, 285, 286, 287, 288, 289, 290, 291, 292, 293, 294, 295, 296, 297, 298, 299, 300, 301, 302, 303, 304, 305, 306, 307, 308, 309, 310, 311, 312, 313, 314, 315, 316, 317, 318, 319, 320, 321, 322, 323, 324, 325, 326, 327, 328, 329, 330, 331, 332, 333, 334, 335, 336, 337, 338, 339, 340, 341, 342, 343, 344, 345, 346, 347, 348, 349, 350, 351, 352, 353, 354, 355, 356, 357, 358, 359, 360, 361, 362, 363, 364, 365, 366, 367, 368, 369, 370, 371, 372, 373, 374, 375, 376, 377, 378, 379, 380, 381, 382, 383, 384, 385, 386, 387, 388, 389, 390, 391, 392, 393, 394, 395, 396, 397, 398, 399, 400, 401, 402, 403, 404, 405, 406, 407, 408, 409, 410, 411, 412, 413, 414, 415, 416, 417, 418, 419, 420, 421, 422, 423, 424, 425, 426, 427, 428, 429, 430, 431, 432, 433, 434, 435, 436, 437, 438, 439, 440, 441, 442, 443, 444, 445, 446, 447, 448, 449, 450, 451, 452, 453, 454],
      "AcquisitionTime": ["171641.265000", "171642.755000", "171644.245000", "171645.735000", "171647.225000", "171648.715000", "171650.205000", "171651.695000", "171653.185000", "171654.675000", "171656.165000", "171657.655000", "171659.145000", "171700.635000", "171702.125000", "171703.615000", "171705.105000", "171706.595000", "171708.085000", "171709.575000", "171711.065000", "171712.555000", "171714.045000", "171715.535000", "171717.025000", "171718.515000", "171720.005000", "171721.495000", "171722.985000", "171724.475000", "171725.965000", "171727.455000", "171728.945000", "171730.435000", "171731.925000", "171733.415000", "171734.905000", "171736.395000", "171737.885000", "171739.375000", "171740.865000", "171742.355000", "171743.845000", "171745.335000", "171746.825000", "171748.315000", "171749.805000", "171751.295000", "171752.785000", "171754.275000", "171755.765000", "171757.255000", "171758.745000", "171800.235000", "171801.725000", "171803.215000", "171804.705000", "171806.195000", "171807.685000", "171809.175000", "171810.665000", "171812.155000", "171813.645000", "171815.135000", "171816.625000", "171818.115000", "171819.605000", "171821.095000", "171822.585000", "171824.075000", "171825.565000", "171827.055000", "171828.545000", "171830.035000", "171831.525000", "171833.015000", "171834.505000", "171835.995000", "171837.485000", "171838.975000", "171840.465000", "171841.955000", "171843.445000", "171844.935000", "171846.425000", "171847.915000", "171849.405000", "171850.895000", "171852.385000", "171853.875000", "171855.365000", "171856.855000", "171858.345000", "171859.835000", "171901.325000", "171902.815000", "171904.305000", "171905.795000", "171907.285000", "171908.775000", "171910.265000", "171911.755000", "171913.245000", "171914.735000", "171916.225000", "171917.715000", "171919.205000", "171920.695000", "171922.185000", "171923.675000", "171925.165000", "171926.655000", "171928.145000", "171929.635000", "171931.125000", "171932.615000", "171934.105000", "171935.595000", "171937.085000", "171938.575000", "171940.065000", "171941.555000", "171943.045000", "171944.535000", "171946.025000", "171947.515000", "171949.005000", "171950.495000", "171951.985000", "171953.475000", "171954.965000", "171956.455000", "171957.945000", "171959.435000", "172000.925000", "172002.415000", "172003.905000", "172005.395000", "172006.885000", "172008.375000", "172009.865000", "172011.355000", "172012.845000", "172014.335000", "172015.825000", "172017.315000", "172018.805000", "172020.295000", "172021.785000", "172023.275000", "172024.765000", "172026.255000", "172027.745000", "172029.235000", "172030.725000", "172032.215000", "172033.705000", "172035.195000", "172036.685000", "172038.175000", "172039.665000", "172041.155000", "172042.645000", "172044.135000", "172045.625000", "172047.115000", "172048.605000", "172050.095000", "172051.585000", "172053.075000", "172054.565000", "172056.055000", "172057.545000", "172059.035000", "172100.525000", "172102.015000", "172103.505000", "172104.995000", "172106.485000", "172107.975000", "172109.465000", "172110.955000", "172112.445000", "172113.935000", "172115.425000", "172116.915000", "172118.405000", "172119.895000", "172121.385000", "172122.875000", "172124.365000", "172125.855000", "172127.345000", "172128.835000", "172130.325000", "172131.815000", "172133.305000", "172134.795000", "172136.285000", "172137.775000", "172139.265000", "172140.755000", "172142.245000", "172143.735000", "172145.225000", "172146.715000", "172148.205000", "172149.695000", "172151.185000", "172152.675000", "172154.165000", "172155.655000", "172157.145000", "172158.635000", "172200.125000", "172201.615000", "172203.105000", "172204.595000", "172206.085000", "172207.575000", "172209.065000", "172210.555000", "172212.045000", "172213.535000", "172215.025000", "172216.515000", "172218.005000", "172219.495000", "172220.985000", "172222.475000", "172223.965000", "172225.455000", "172226.945000", "172228.435000", "172229.925000", "172231.415000", "172232.905000", "172234.395000", "172235.885000", "172237.375000", "172238.865000", "172240.355000", "172241.845000", "172243.335000", "172244.825000", "172246.315000", "172247.805000", "172249.295000", "172250.785000", "172252.275000", "172253.765000", "172255.255000", "172256.745000", "172258.235000", "172259.725000", "172301.215000", "172302.705000", "172304.195000", "172305.685000", "172307.175000", "172308.665000", "172310.155000", "172311.645000", "172313.135000", "172314.625000", "172316.115000", "172317.605000", "172319.095000", "172320.585000", "172322.075000", "172323.565000", "172325.055000", "172326.545000", "172328.035000", "172329.525000", "172331.015000", "172332.505000", "172333.995000", "172335.485000", "172336.975000", "172338.465000", "172339.955000", "172341.445000", "172342.935000", "172344.425000", "172345.915000", "172347.405000", "172348.895000", "172350.385000", "172351.875000", "172353.365000", "172354.855000", "172356.345000", "172357.835000", "172359.325000", "172400.815000", "172402.305000", "172403.795000", "172405.285000", "172406.775000", "172408.265000", "172409.755000", "172411.245000", "172412.735000", "172414.225000", "172415.715000", "172417.205000", "172418.695000", "172420.185000", "172421.675000", "172423.165000", "172424.655000", "172426.145000", "172427.635000", "172429.125000", "172430.615000", "172432.105000", "172433.595000", "172435.085000", "172436.575000", "172438.065000", "172439.555000", "172441.045000", "172442.535000", "172444.025000", "172445.515000", "172447.005000", "172448.495000", "172449.985000", "172451.475000", "172452.965000", "172454.455000", "172455.945000", "172457.435000", "172458.925000", "172500.415000", "172501.905000", "172503.395000", "172504.885000", "172506.375000", "172507.865000", "172509.355000", "172510.845000", "172512.335000", "172513.825000", "172515.315000", "172516.805000", "172518.295000", "172519.785000", "172521.275000", "172522.765000", "172524.255000", "172525.745000", "172527.235000", "172528.725000", "172530.215000", "172531.705000", "172533.195000", "172534.685000", "172536.175000", "172537.665000", "172539.155000", "172540.645000", "172542.135000", "172543.625000", "172545.115000", "172546.605000", "172548.095000", "172549.585000", "172551.075000", "172552.565000", "172554.055000", "172555.545000", "172557.035000", "172558.525000", "172600.015000", "172601.505000", "172602.995000", "172604.485000", "172605.975000", "172607.465000", "172608.955000", "172610.445000", "172611.935000", "172613.425000", "172614.915000", "172616.405000", "172617.895000", "172619.385000", "172620.875000", "172622.365000", "172623.855000", "172625.345000", "172626.835000", "172628.325000", "172629.815000", "172631.305000", "172632.795000", "172634.285000", "172635.775000", "172637.265000", "172638.755000", "172640.245000", "172641.735000", "172643.225000", "172644.715000", "172646.205000", "172647.695000", "172649.185000", "172650.675000", "172652.165000", "172653.655000", "172655.145000", "172656.635000", "172658.125000", "172659.615000", "172701.105000", "172702.595000", "172704.085000", "172705.575000", "172707.065000", "172708.555000", "172710.045000", "172711.535000", "172713.025000", "172714.515000", "172716.005000", "172717.495000", "172718.985000", "172720.475000", "172721.965000", "172723.455000", "172724.945000", "172726.435000", "172727.925000", "172729.415000", "172730.905000", "172732.395000", "172733.885000", "172735.375000", "172736.865000", "172738.355000", "172739.845000", "172741.335000", "172742.825000", "172744.315000", "172745.805000", "172747.295000", "172748.785000", "172750.275000", "172751.765000", "172753.255000", "172754.745000", "172756.235000"],
      "ContentTime": ["171802.215000", "171802.218000", "171802.237000", "171802.240000", "171802.244000", "171802.247000", "171802.250000", "171802.252000", "171802.255000", "171802.264000", "171802.267000", "171802.270000", "171802.273000", "171802.276000", "171802.279000", "171802.282000", "171802.284000", "171802.287000", "171802.290000", "171802.293000", "171802.299000", "171802.302000", "171802.305000", "171802.308000", "171802.311000", "171802.314000", "171822.181000", "171822.184000", "171822.187000", "171822.190000", "171822.193000", "171822.195000", "171822.198000", "171822.201000", "171822.204000", "171822.207000", "171822.210000", "171822.213000", "171822.216000", "171822.218000", "171822.221000", "171822.224000", "171822.227000", "171822.230000", "171822.233000", "171822.236000", "171842.181000", "171842.184000", "171842.187000", "171842.190000", "171842.193000", "171842.196000", "171842.199000", "171842.202000", "171842.205000", "171842.208000", "171842.211000", "171842.214000", "171842.217000", "171842.220000", "171842.222000", "171842.226000", "171842.229000", "171842.232000", "171842.235000", "171842.240000", "171902.181000", "171902.184000", "171902.187000", "171902.190000", "171902.192000", "171902.196000", "171902.199000", "171902.202000", "171902.205000", "171902.208000", "171902.210000", "171902.214000", "171902.216000", "171902.219000", "171902.222000", "171902.225000", "171902.228000", "171902.231000", "171902.234000", "171902.237000", "171922.181000", "171922.184000", "171922.187000", "171922.190000", "171922.193000", "171922.195000", "171922.198000", "171922.201000", "171922.204000", "171922.207000", "171922.210000", "171922.220000", "171922.224000", "171922.226000", "171922.229000", "171922.232000", "171922.235000", "171922.238000", "171922.241000", "171922.244000", "172002.182000", "172002.185000", "172002.188000", "172002.191000", "172002.194000", "172002.196000", "172002.199000", "172002.215000", "172002.218000", "172002.221000", "172002.224000", "172002.227000", "172002.230000", "172002.233000", "172002.236000", "172002.239000", "172002.241000", "172002.244000", "172002.247000", "172002.250000", "172002.253000", "172002.256000", "172002.259000", "172002.262000", "172002.265000", "172002.269000", "172002.272000", "172002.275000", "172042.181000", "172042.184000", "172042.187000", "172042.190000", "172042.193000", "172042.196000", "172042.199000", "172042.201000", "172042.204000", "172042.208000", "172042.211000", "172042.213000", "172042.216000", "172042.220000", "172042.222000", "172042.225000", "172042.228000", "172042.231000", "172042.234000", "172042.237000", "172042.240000", "172042.243000", "172042.254000", "172042.256000", "172042.259000", "172042.262000", "172042.265000", "172122.181000", "172122.184000", "172122.187000", "172122.190000", "172122.193000", "172122.195000", "172122.198000", "172122.201000", "172122.204000", "172122.207000", "172122.210000", "172122.213000", "172122.216000", "172122.219000", "172122.222000", "172122.225000", "172122.228000", "172122.231000", "172122.234000", "172122.237000", "172122.240000", "172122.243000", "172122.246000", "172122.249000", "172122.252000", "172122.255000", "172142.181000", "172142.184000", "172142.187000", "172142.190000", "172142.193000", "172142.195000", "172142.198000", "172142.201000", "172142.205000", "172142.207000", "172142.210000", "172142.213000", "172142.216000", "172142.219000", "172222.182000", "172222.185000", "172222.188000", "172222.191000", "172222.194000", "172222.196000", "172222.199000", "172222.202000", "172222.205000", "172222.208000", "172222.211000", "172222.214000", "172222.217000", "172222.220000", "172222.222000", "172222.225000", "172222.228000", "172222.231000", "172222.234000", "172222.237000", "172222.240000", "172222.243000", "172222.246000", "172222.249000", "172222.252000", "172222.255000", "172222.257000", "172302.181000", "172302.184000", "172302.187000", "172302.190000", "172302.193000", "172302.195000", "172302.198000", "172302.216000", "172302.218000", "172302.221000", "172302.224000", "172302.227000", "172302.230000", "172302.233000", "172302.236000", "172302.239000", "172302.242000", "172302.245000", "172302.248000", "172302.251000", "172302.254000", "172302.256000", "172302.259000", "172302.262000", "172302.265000", "172302.268000", "172302.271000", "172342.181000", "172342.184000", "172342.187000", "172342.190000", "172342.193000", "172342.196000", "172342.199000", "172342.202000", "172342.205000", "172342.207000", "172342.210000", "172342.213000", "172342.217000", "172342.220000", "172342.222000", "172342.225000", "172342.228000", "172342.231000", "172342.234000", "172342.237000", "172342.240000", "172342.243000", "172342.246000", "172342.249000", "172342.252000", "172342.255000", "172422.181000", "172422.184000", "172422.187000", "172422.190000", "172422.193000", "172422.196000", "172422.199000", "172422.201000", "172422.205000", "172422.207000", "172422.210000", "172422.213000", "172422.216000", "172422.219000", "172422.222000", "172422.225000", "172422.228000", "172422.231000", "172422.233000", "172422.236000", "172422.239000", "172422.242000", "172422.245000", "172422.248000", "172422.251000", "172422.254000", "172422.257000", "172502.182000", "172502.186000", "172502.188000", "172502.192000", "172502.194000", "172502.197000", "172502.207000", "172502.210000", "172502.213000", "172502.215000", "172502.218000", "172502.221000", "172502.224000", "172502.227000", "172502.230000", "172502.233000", "172502.236000", "172502.239000", "172502.249000", "172502.252000", "172502.254000", "172502.257000", "172502.260000", "172502.263000", "172502.266000", "172502.269000", "172502.272000", "172542.181000", "172542.184000", "172542.187000", "172542.190000", "172542.193000", "172542.196000", "172542.199000", "172542.202000", "172542.204000", "172542.207000", "172542.210000", "172542.213000", "172542.216000", "172542.219000", "172542.222000", "172542.225000", "172542.228000", "172542.231000", "172542.234000", "172542.237000", "172542.239000", "172542.242000", "172542.245000", "172542.248000", "172542.251000", "172542.254000", "172542.257000", "172622.181000", "172622.184000", "172622.187000", "172622.190000", "172622.193000", "172622.196000", "172622.199000", "172622.201000", "172622.204000", "172622.207000", "172622.210000", "172622.213000", "172622.216000", "172622.219000", "172622.222000", "172622.225000", "172622.228000", "172622.231000", "172622.234000", "172622.237000", "172622.239000", "172622.243000", "172622.245000", "172622.248000", "172622.251000", "172622.254000", "172622.257000", "172702.182000", "172702.185000", "172702.188000", "172702.191000", "172702.194000", "172702.197000", "172702.199000", "172702.202000", "172702.205000", "172702.208000", "172702.211000", "172702.214000", "172702.217000", "172702.220000", "172702.223000", "172702.225000", "172702.229000", "172702.231000", "172702.234000", "172702.237000", "172702.240000", "172702.243000", "172702.246000", "172702.249000", "172702.252000", "172702.255000", "172702.258000", "172742.181000", "172742.184000", "172742.187000", "172742.190000", "172742.193000", "172742.195000", "172742.198000", "172742.201000", "172742.204000", "172742.207000", "172742.210000", "172742.219000", "172742.222000", "172742.225000", "172742.228000", "172742.231000", "172742.234000", "172742.236000", "172742.239000", "172742.242000", "172742.245000", "172742.248000", "172742.251000", "172742.254000", "172742.257000", "172742.259000", "172758.596000", "172758.599000", "172758.602000", "172758.605000", "172758.608000", "172758.611000", "172758.614000", "172758.617000", "172758.620000", "172758.623000", "172758.626000", "172758.629000"],
