{
  "AcquisitionMatrixPE": 104,
  "AcquisitionNumber": 1,
  "AcquisitionTime": "16:52:55.607500",
  "BandwidthPerPixelPhaseEncode": 17.17,
  "BaseResolution": 104,
  "BodyPartExamined": "BRAIN",
  "CoilString": "HC1-7;NC1_2",
  "ConsistencyInfo": "N4_VE11C_LATEST_20160120",
  "ConversionSoftware": "dcm2niix",
  "ConversionSoftwareVersion": "v1.0.20190902",
  "DerivedVendorReportedEchoSpacing": 0.000560011,
  "DeviceSerialNumber": "167006",
  "DwellTime": 2.1e-06,
  "EchoTime": 0.037,
  "EchoTrainLength": 104,
  "EffectiveEchoSpacing": 0.000560011,
  "FlipAngle": 52,
  "ImageComments": "Unaliased_MB4_PE3_LB",
  "ImageOrientationPatientDICOM": [0.999197, -0.0400781, 2.8278e-05, 0.0375121, 0.934972, -0.352731],
  "ImageType": [
    "ORIGINAL",
    "PRIMARY",
    "M",
    "MB",
    "ND",
    "MOSAIC"
],
  "ImagingFrequency": 123.259,
  "InPlanePhaseEncodingDirectionDICOM": "COL",
  "InstitutionAddress": "Chemin_Queen-Mary_4565_Montreal_District_CA_H3W_1W5",
  "InstitutionName": "IUGM",
  "InstitutionalDepartmentName": "Department",
  "MRAcquisitionType": "2D",
  "MagneticFieldStrength": 3,
  "Manufacturer": "Siemens",
  "ManufacturersModelName": "Prisma_fit",
  "Modality": "MR",
  "MultibandAccelerationFactor": 4,
  "PartialFourier": 1,
  "PatientPosition": "HFS",
  "PercentPhaseFOV": 100,
  "PhaseEncodingDirection": "j",
  "PhaseEncodingSteps": 104,
  "PhaseResolution": 1,
  "PixelBandwidth": 2290,
  "ProcedureStepDescription": "video_friends",
  "ProtocolName": "func_task-friends-s03e23b",
  "PulseSequenceDetails": "%CustomerSeq%_cmrr_mbep2d_bold",
  "ReceiveCoilActiveElements": "HC1-7;NC1,2",
  "ReceiveCoilName": "HeadNeck_64",
  "ReconMatrixPE": 104,
  "RepetitionTime": 1.49,
  "SAR": 0.0320525,
  "ScanOptions": "FS",
  "ScanningSequence": "EP",
  "SequenceName": "epfid2d1_104",
  "SequenceVariant": "SK_SS",
  "SeriesDescription": "func_task-friends-s03e23b",
  "SeriesNumber": 34,
  "ShimSetting": [630, -7267, -8818, 621, 8, -222, -51, -5],
  "SliceThickness": 2,
  "SliceTiming": [0, 0.7825, 0.0975, 0.88, 0.195, 0.98, 0.2925, 1.0775, 0.39, 1.175, 0.49, 1.2725, 0.5875, 1.37, 0.685, 0, 0.7825, 0.0975, 0.88, 0.195, 0.98, 0.2925, 1.0775, 0.39, 1.175, 0.49, 1.2725, 0.5875, 1.37, 0.685, 0, 0.7825, 0.0975, 0.88, 0.195, 0.98, 0.2925, 1.0775, 0.39, 1.175, 0.49, 1.2725, 0.5875, 1.37, 0.685, 0, 0.7825, 0.0975, 0.88, 0.195, 0.98, 0.2925, 1.0775, 0.39, 1.175, 0.49, 1.2725, 0.5875, 1.37, 0.685],
  "SoftwareVersions": "syngo_MR_E11",
  "SpacingBetweenSlices": 2,
  "StationName": "MRC35049",
  "TaskName": "s03e23b",
  "TotalReadoutTime": 0.0576811,
  "TxRefAmp": 220.117,
  "WipMemBlock": "82c3bcbe-5f95-4771-9b21-ca822fade227||Sequence: R016 ve11c/master r/e634e98; Dec 19 2017 11:00:25 by eja",
  "dcmmeta_affine": [
    [-1.9983930587768555, 0.07502414286136627, -0.028220754116773605, 99.0252685546875],
    [0.08015628159046173, 1.8699449300765991, -0.704897940158844, -75.13886260986328],
    [5.6556087656645104e-05, 0.705462634563446, 1.8714492321014404, -62.26431655883789],
    [0.0, 0.0, 0.0, 1.0]
],
  "dcmmeta_reorient_transform": [
    [0.0, -1.0, 0.0, 103.0],
    [1.0, 0.0, 0.0, 0.0],
    [0.0, 0.0, 1.0, 0.0],
    [0.0, 0.0, 0.0, 1.0]
],
  "dcmmeta_shape": [104, 104, 60, 470],
  "dcmmeta_slice_dim": 2,
  "dcmmeta_version": 0.6,
  "global": {
    "const": {
      "AcquisitionMatrix": [104, 0, 0, 104],
      "AngioFlag": "N",
      "BitsAllocated": 16,
      "BitsStored": 16,
      "BodyPartExamined": "BRAIN",
      "Columns": 832,
      "EchoNumbers": 1,
      "EchoTime": 37.0,
      "EchoTrainLength": 104,
      "FlipAngle": 52.0,
      "HighBit": 15,
      "ImageOrientationPatient": [0.99919654809602, -0.0400781420894, 2.827804444e-05, 0.03751207182708, 0.93497243574265, -0.352731326747],
      "ImagePositionPatient": [-861.47662798558, -768.94850808424, 267.16615682691],
      "ImageType": [
        "ORIGINAL",
        "PRIMARY",
        "M",
        "MB",
        "ND",
        "MOSAIC"
],
      "ImagedNucleus": "1H",
      "ImagingFrequency": 123.259388,
      "InPlanePhaseEncodingDirection": "COL",
      "MRAcquisitionType": "2D",
      "MagneticFieldStrength": 3.0,
      "Manufacturer": "SIEMENS",
      "ManufacturerModelName": "Prisma_fit",
      "Modality": "MR",
      "NumberOfAverages": 1.0,
      "NumberOfPhaseEncodingSteps": 104,
      "PercentPhaseFieldOfView": 100.0,
      "PercentSampling": 100.0,
      "PerformedProcedureStepStartTime": "141906.254000",
      "PhotometricInterpretation": "MONOCHROME2",
      "PixelBandwidth": 2290.0,
      "PixelRepresentation": 0,
      "PixelSpacing": [2.0, 2.0],
      "ProtocolName": "func_task-friends-s03e23b",
      "RepetitionTime": 1490.0,
      "Rows": 832,
      "SAR": 0.03205246775809,
      "SamplesPerPixel": 1,
      "ScanOptions": "FS",
      "ScanningSequence": "EP",
      "SequenceName": "epfid2d1_104",
      "SequenceVariant": [
        "SK",
        "SS"
],
      "SeriesDescription": "func_task-friends-s03e23b",
      "SeriesNumber": 34,
      "SeriesTime": "165411.423000",
      "SliceLocation": -33.176923995407,
      "SliceThickness": 2.0,
      "SmallestImagePixelValue": 0,
      "SoftwareVersions": "syngo MR E11",
      "SpacingBetweenSlices": 2.0000000005364,
      "SpecificCharacterSet": "ISO_IR 100",
      "StudyID": "1",
      "StudyTime": "141906.082000",
      "TransmitCoilName": "Body",
      "VariableFlipAngleFlag": "N",
      "WindowCenterWidthExplanation": "Algo1",
      "dBdt": 0.0},
    "slices": {}
  },
  "time": {
    "samples": {
      "AcquisitionNumber": [1, 2, 3, 4, 5, 6, 7, 8, 9, 10, 11, 12, 13, 14, 15, 16, 17, 18, 19, 20, 21, 22, 23, 24, 25, 26, 27, 28, 29, 30, 31, 32, 33, 34, 35, 36, 37, 38, 39, 40, 41, 42, 43, 44, 45, 46, 47, 48, 49, 50, 51, 52, 53, 54, 55, 56, 57, 58, 59, 60, 61, 62, 63, 64, 65, 66, 67, 68, 69, 70, 71, 72, 73, 74, 75, 76, 77, 78, 79, 80, 81, 82, 83, 84, 85, 86, 87, 88, 89, 90, 91, 92, 93, 94, 95, 96, 97, 98, 99, 100, 101, 102, 103, 104, 105, 106, 107, 108, 109, 110, 111, 112, 113, 114, 115, 116, 117, 118, 119, 120, 121, 122, 123, 124, 125, 126, 127, 128, 129, 130, 131, 132, 133, 134, 135, 136, 137, 138, 139, 140, 141, 142, 143, 144, 145, 146, 147, 148, 149, 150, 151, 152, 153, 154, 155, 156, 157, 158, 159, 160, 161, 162, 163, 164, 165, 166, 167, 168, 169, 170, 171, 172, 173, 174, 175, 176, 177, 178, 179, 180, 181, 182, 183, 184, 185, 186, 187, 188, 189, 190, 191, 192, 193, 194, 195, 196, 197, 198, 199, 200, 201, 202, 203, 204, 205, 206, 207, 208, 209, 210, 211, 212, 213, 214, 215, 216, 217, 218, 219, 220, 221, 222, 223, 224, 225, 226, 227, 228, 229, 230, 231, 232, 233, 234, 235, 236, 237, 238, 239, 240, 241, 242, 243, 244, 245, 246, 247, 248, 249, 250, 251, 252, 253, 254, 255, 256, 257, 258, 259, 260, 261, 262, 263, 264, 265, 266, 267, 268, 269, 270, 271, 272, 273, 274, 275, 276, 277, 278, 279, 280, 281, 282, 283, 284, 285, 286, 287, 288, 289, 290, 291, 292, 293, 294, 295, 296, 297, 298, 299, 300, 301, 302, 303, 304, 305, 306, 307, 308, 309, 310, 311, 312, 313, 314, 315, 316, 317, 318, 319, 320, 321, 322, 323, 324, 325, 326, 327, 328, 329, 330, 331, 332, 333, 334, 335, 336, 337, 338, 339, 340, 341, 342, 343, 344, 345, 346, 347, 348, 349, 350, 351, 352, 353, 354, 355, 356, 357, 358, 359, 360, 361, 362, 363, 364, 365, 366, 367, 368, 369, 370, 371, 372, 373, 374, 375, 376, 377, 378, 379, 380, 381, 382, 383, 384, 385, 386, 387, 388, 389, 390, 391, 392, 393, 394, 395, 396, 397, 398, 399, 400, 401, 402, 403, 404, 405, 406, 407, 408, 409, 410, 411, 412, 413, 414, 415, 416, 417, 418, 419, 420, 421, 422, 423, 424, 425, 426, 427, 428, 429, 430, 431, 432, 433, 434, 435, 436, 437, 438, 439, 440, 441, 442, 443, 444, 445, 446, 447, 448, 449, 450, 451, 452, 453, 454, 455, 456, 457, 458, 459, 460, 461, 462, 463, 464, 465, 466, 467, 468, 469, 470],
      "AcquisitionTime": ["165255.607500", "165257.097500", "165258.587500", "165300.077500", "165301.567500", "165303.057500", "165304.547500", "165306.037500", "165307.527500", "165309.017500", "165310.507500", "165311.997500", "165313.487500", "165314.977500", "165316.467500", "165317.957500", "165319.447500", "165320.937500", "165322.427500", "165323.917500", "165325.407500", "165326.897500", "165328.387500", "165329.877500", "165331.367500", "165332.857500", "165334.347500", "165335.837500", "165337.327500", "165338.817500", "165340.307500", "165341.797500", "165343.287500", "165344.777500", "165346.267500", "165347.757500", "165349.247500", "165350.737500", "165352.227500", "165353.717500", "165355.207500", "165356.697500", "165358.187500", "165359.677500", "165401.167500", "165402.657500", "165404.147500", "165405.637500", "165407.127500", "165408.617500", "165410.107500", "165411.597500", "165413.087500", "165414.577500", "165416.067500", "165417.557500", "165419.047500", "165420.537500", "165422.027500", "165423.517500", "165425.007500", "165426.497500", "165427.987500", "165429.477500", "165430.967500", "165432.457500", "165433.947500", "165435.437500", "165436.927500", "165438.417500", "165439.907500", "165441.397500", "165442.887500", "165444.377500", "165445.867500", "165447.357500", "165448.847500", "165450.337500", "165451.827500", "165453.317500", "165454.807500", "165456.297500", "165457.787500", "165459.277500", "165500.767500", "165502.257500", "165503.747500", "165505.237500", "165506.727500", "165508.217500", "165509.707500", "165511.197500", "165512.687500", "165514.177500", "165515.667500", "165517.157500", "165518.647500", "165520.137500", "165521.627500", "165523.117500", "165524.607500", "165526.097500", "165527.587500", "165529.077500", "165530.567500", "165532.057500", "165533.547500", "165535.037500", "165536.527500", "165538.017500", "165539.507500", "165540.997500", "165542.487500", "165543.977500", "165545.467500", "165546.957500", "165548.447500", "165549.937500", "165551.427500", "165552.917500", "165554.407500", "165555.897500", "165557.387500", "165558.877500", "165600.367500", "165601.857500", "165603.347500", "165604.837500", "165606.327500", "165607.817500", "165609.307500", "165610.797500", "165612.287500", "165613.777500", "165615.267500", "165616.757500", "165618.247500", "165619.737500", "165621.227500", "165622.717500", "165624.207500", "165625.697500", "165627.187500", "165628.677500", "165630.167500", "165631.657500", "165633.147500", "165634.637500", "165636.127500", "165637.617500", "165639.107500", "165640.597500", "165642.087500", "165643.577500", "165645.067500", "165646.557500", "165648.047500", "165649.537500", "165651.027500", "165652.517500", "165654.007500", "165655.497500", "165656.987500", "165658.477500", "165659.967500", "165701.457500", "165702.947500", "165704.437500", "165705.927500", "165707.417500", "165708.907500", "165710.397500", "165711.887500", "165713.377500", "165714.867500", "165716.357500", "165717.847500", "165719.337500", "165720.827500", "165722.317500", "165723.807500", "165725.297500", "165726.787500", "165728.277500", "165729.767500", "165731.257500", "165732.747500", "165734.237500", "165735.727500", "165737.217500", "165738.707500", "165740.197500", "165741.687500", "165743.177500", "165744.667500", "165746.157500", "165747.647500", "165749.137500", "165750.627500", "165752.117500", "165753.607500", "165755.097500", "165756.587500", "165758.077500", "165759.567500", "165801.057500", "165802.547500", "165804.037500", "165805.527500", "165807.017500", "165808.507500", "165809.997500", "165811.487500", "165812.977500", "165814.467500", "165815.957500", "165817.447500", "165818.937500", "165820.427500", "165821.917500", "165823.407500", "165824.897500", "165826.387500", "165827.877500", "165829.367500", "165830.857500", "165832.347500", "165833.837500", "165835.327500", "165836.817500", "165838.307500", "165839.797500", "165841.287500", "165842.777500", "165844.267500", "165845.757500", "165847.247500", "165848.737500", "165850.227500", "165851.717500", "165853.207500", "165854.697500", "165856.187500", "165857.677500", "165859.167500", "165900.657500", "165902.147500", "165903.637500", "165905.127500", "165906.617500", "165908.107500", "165909.597500", "165911.087500", "165912.577500", "165914.067500", "165915.557500", "165917.047500", "165918.537500", "165920.027500", "165921.517500", "165923.007500", "165924.497500", "165925.987500", "165927.477500", "165928.967500", "165930.457500", "165931.947500", "165933.437500", "165934.927500", "165936.417500", "165937.907500", "165939.397500", "165940.887500", "165942.377500", "165943.867500", "165945.357500", "165946.847500", "165948.337500", "165949.827500", "165951.317500", "165952.807500", "165954.297500", "165955.787500", "165957.277500", "165958.767500", "170000.257500", "170001.747500", "170003.237500", "170004.727500", "170006.217500", "170007.707500", "170009.197500", "170010.687500", "170012.177500", "170013.667500", "170015.157500", "170016.647500", "170018.137500", "170019.627500", "170021.117500", "170022.607500", "170024.097500", "170025.587500", "170027.077500", "170028.567500", "170030.057500", "170031.547500", "170033.037500", "170034.527500", "170036.017500", "170037.507500", "170038.997500", "170040.487500", "170041.977500", "170043.467500", "170044.957500", "170046.447500", "170047.937500", "170049.427500", "170050.917500", "170052.407500", "170053.897500", "170055.387500", "170056.877500", "170058.367500", "170059.857500", "170101.347500", "170102.837500", "170104.327500", "170105.817500", "170107.307500", "170108.797500", "170110.287500", "170111.777500", "170113.267500", "170114.757500", "170116.247500", "170117.737500", "170119.227500", "170120.717500", "170122.207500", "170123.697500", "170125.187500", "170126.677500", "170128.167500", "170129.657500", "170131.147500", "170132.637500", "170134.127500", "170135.617500", "170137.107500", "170138.597500", "170140.087500", "170141.577500", "170143.067500", "170144.557500", "170146.047500", "170147.537500", "170149.027500", "170150.517500", "170152.007500", "170153.497500", "170154.987500", "170156.477500", "170157.967500", "170159.457500", "170200.947500", "170202.437500", "170203.927500", "170205.417500", "170206.907500", "170208.397500", "170209.887500", "170211.377500", "170212.867500", "170214.357500", "170215.847500", "170217.337500", "170218.827500", "170220.317500", "170221.807500", "170223.297500", "170224.787500", "170226.277500", "170227.767500", "170229.257500", "170230.747500", "170232.237500", "170233.727500", "170235.217500", "170236.707500", "170238.197500", "170239.687500", "170241.177500", "170242.667500", "170244.157500", "170245.647500", "170247.137500", "170248.627500", "170250.117500", "170251.607500", "170253.097500", "170254.587500", "170256.077500", "170257.567500", "170259.057500", "170300.547500", "170302.037500", "170303.527500", "170305.017500", "170306.507500", "170307.997500", "170309.487500", "170310.977500", "170312.467500", "170313.957500", "170315.447500", "170316.937500", "170318.427500", "170319.917500", "170321.407500", "170322.897500", "170324.387500", "170325.877500", "170327.367500", "170328.857500", "170330.347500", "170331.837500", "170333.327500", "170334.817500", "170336.307500", "170337.797500", "170339.287500", "170340.777500", "170342.267500", "170343.757500", "170345.247500", "170346.737500", "170348.227500", "170349.717500", "170351.207500", "170352.697500", "170354.187500", "170355.677500", "170357.167500", "170358.657500", "170400.147500", "170401.637500", "170403.127500", "170404.617500", "170406.107500", "170407.597500", "170409.087500", "170410.577500", "170412.067500", "170413.557500", "170415.047500", "170416.537500", "170418.027500", "170419.517500", "170421.007500", "170422.497500", "170423.987500", "170425.477500", "170426.967500", "170428.457500", "170429.947500", "170431.437500", "170432.927500", "170434.417500"],
      "ContentTime": ["165411.426000", "165411.430000", "165411.433000", "165411.436000", "165411.438000", "165411.441000", "165411.444000", "165411.447000", "165411.450000", "165411.453000", "165411.456000", "165411.459000", "165411.461000", "165411.474000", "165411.477000", "165411.480000", "165411.483000", "165411.486000", "165411.489000", "165411.492000", "165431.396000", "165431.399000", "165431.402000", "165431.405000", "165431.423000", "165431.426000", "165431.429000", "165431.432000", "165431.435000", "165431.438000", "165431.441000", "165431.444000", "165431.446000", "165431.449000", "165431.452000", "165431.455000", "165431.458000", "165431.461000", "165431.464000", "165431.467000", "165431.470000", "165451.396000", "165451.399000", "165451.416000", "165451.418000", "165451.421000", "165451.424000", "165451.427000", "165451.431000", "165451.434000", "165451.437000", "165451.440000", "165451.443000", "165451.446000", "165451.448000", "165451.451000", "165451.454000", "165451.457000", "165451.460000", "165451.463000", "165451.466000", "165511.396000", "165511.399000", "165511.402000", "165511.405000", "165511.408000", "165511.411000", "165511.414000", "165511.416000", "165511.419000", "165511.422000", "165511.425000", "165511.428000", "165511.431000", "165511.434000", "165511.437000", "165511.440000", "165511.442000", "165511.445000", "165511.448000", "165511.451000", "165531.395000", "165531.398000", "165531.401000", "165531.404000", "165531.407000", "165531.409000", "165531.413000", "165531.415000", "165531.418000", "165531.421000", "165531.424000", "165531.427000", "165531.430000", "165531.433000", "165531.436000", "165531.439000", "165531.441000", "165531.444000", "165531.447000", "165531.450000", "165611.396000", "165611.399000", "165611.402000", "165611.405000", "165611.408000", "165611.411000", "165611.414000", "165611.416000", "165611.419000", "165611.422000", "165611.425000", "165611.428000", "165611.431000", "165611.434000", "165611.437000", "165611.440000", "165611.443000", "165611.445000", "165611.448000", "165611.451000", "165611.454000", "165611.457000", "165611.460000", "165611.463000", "165611.466000", "165611.468000", "165611.471000", "165611.474000", "165611.477000", "165611.480000", "165651.396000", "165651.399000", "165651.402000", "165651.405000", "165651.408000", "165651.411000", "165651.414000", "165651.418000", "165651.426000", "165651.429000", "165651.432000", "165651.435000", "165651.438000", "165651.441000", "165651.444000", "165651.447000", "165651.450000", "165651.453000", "165651.455000", "165651.458000", "165651.461000", "165651.464000", "165651.467000", "165651.470000", "165651.473000", "165651.476000", "165731.396000", "165731.399000", "165731.402000", "165731.405000", "165731.408000", "165731.411000", "165731.414000", "165731.417000", "165731.420000", "165731.422000", "165731.425000", "165731.428000", "165731.431000", "165731.434000", "165731.437000", "165731.440000", "165731.443000", "165731.446000", "165731.449000", "165731.452000", "165731.455000", "165731.457000", "165731.460000", "165731.463000", "165731.466000", "165731.469000", "165731.472000", "165811.396000", "165811.399000", "165811.402000", "165811.405000", "165811.408000", "165811.411000", "165811.414000", "165811.417000", "165811.420000", "165811.422000", "165811.425000", "165811.428000", "165811.431000", "165811.434000", "165811.437000", "165811.440000", "165811.443000", "165811.446000", "165811.449000", "165811.452000", "165811.455000", "165811.458000", "165811.461000", "165811.466000", "165811.480000", "165811.483000", "165811.486000", "165851.396000", "165851.399000", "165851.406000", "165851.409000", "165851.411000", "165851.414000", "165851.417000", "165851.420000", "165851.423000", "165851.426000", "165851.429000", "165851.432000", "165851.435000", "165851.438000", "165851.441000", "165851.444000", "165851.446000", "165851.449000", "165851.452000", "165851.455000", "165851.458000", "165851.461000", "165851.464000", "165851.467000", "165851.470000", "165851.472000", "165851.476000", "165931.396000", "165931.399000", "165931.402000", "165931.405000", "165931.408000", "165931.411000", "165931.414000", "165931.417000", "165931.419000", "165931.423000", "165931.425000", "165931.428000", "165931.431000", "165931.434000", "165931.437000", "165931.440000", "165931.443000", "165931.446000", "165931.449000", "165931.452000", "165931.455000", "165931.458000", "165931.461000", "165931.463000", "165931.466000", "165931.469000", "165931.472000", "170011.395000", "170011.398000", "170011.401000", "170011.404000", "170011.407000", "170011.410000", "170011.413000", "170011.415000", "170011.418000", "170011.421000", "170011.424000", "170011.427000", "170011.430000", "170011.433000", "170011.436000", "170011.439000", "170011.442000", "170011.445000", "170011.448000", "170011.450000", "170011.454000", "170011.456000", "170011.459000", "170011.462000", "170011.465000", "170011.468000", "170011.471000", "170051.396000", "170051.399000", "170051.402000", "170051.405000", "170051.408000", "170051.411000", "170051.414000", "170051.417000", "170051.420000", "170051.423000", "170051.426000", "170051.429000", "170051.432000", "170051.435000", "170051.438000", "170051.441000", "170051.444000", "170051.447000", "170051.450000", "170051.453000", "170051.456000", "170051.459000", "170051.462000", "170051.465000", "170051.467000", "170051.470000", "170131.396000", "170131.399000", "170131.402000", "170131.405000", "170131.408000", "170131.411000", "170131.414000", "170131.417000", "170131.420000", "170131.423000", "170131.426000", "170131.428000", "170131.431000", "170131.434000", "170131.437000", "170131.440000", "170131.443000", "170131.446000", "170131.449000", "170131.452000", "170131.455000", "170131.458000", "170131.461000", "170131.463000", "170131.466000", "170131.469000", "170131.472000", "170151.396000", "170151.399000", "170151.402000", "170151.405000", "170151.408000", "170151.411000", "170151.414000", "170151.417000", "170151.420000", "170151.423000", "170151.426000", "170151.429000", "170151.431000", "170151.434000", "170231.395000", "170231.398000", "170231.401000", "170231.404000", "170231.407000", "170231.410000", "170231.413000", "170231.416000", "170231.419000", "170231.422000", "170231.425000", "170231.427000", "170231.430000", "170231.433000", "170231.436000", "170231.439000", "170231.442000", "170231.445000", "170231.448000", "170231.451000", "170231.454000", "170231.456000", "170231.460000", "170231.462000", "170231.465000", "170231.468000", "170231.471000", "170311.396000", "170311.399000", "170311.402000", "170311.410000", "170311.413000", "170311.417000", "170311.420000", "170311.423000", "170311.426000", "170311.429000", "170311.432000", "170311.435000", "170311.438000", "170311.441000", "170311.444000", "170311.447000", "170311.450000", "170311.453000", "170311.456000", "170311.459000", "170311.462000", "170311.465000", "170311.468000", "170311.471000", "170311.474000", "170311.477000", "170351.396000", "170351.399000", "170351.402000", "170351.405000", "170351.408000", "170351.411000", "170351.414000", "170351.417000", "170351.420000", "170351.423000", "170351.425000", "170351.428000", "170351.431000", "170351.434000", "170351.437000", "170351.440000", "170351.443000", "170351.446000", "170351.449000", "170351.452000", "170351.455000", "170351.458000", "170351.461000", "170351.464000", "170351.466000", "170351.469000", "170351.472000", "170431.396000", "170431.399000", "170431.402000", "170431.405000", "170431.408000", "170431.411000", "170431.414000", "170431.417000", "170431.420000", "170431.423000", "170431.426000", "170431.429000", "170431.431000", "170431.434000", "170431.437000", "170431.440000", "170431.443000", "170431.446000", "170431.449000", "170431.452000", "170431.455000", "170431.458000", "170431.461000", "170431.463000", "170431.466000", "170431.469000", "170431.472000", "170436.468000", "170436.472000", "170436.474000", "170436.478000"],
