{
  "AcquisitionMatrixPE": 104,
  "AcquisitionNumber": 1,
  "AcquisitionTime": "16:11:48.730000",
  "BandwidthPerPixelPhaseEncode": 17.17,
  "BaseResolution": 104,
  "BodyPartExamined": "BRAIN",
  "CoilString": "HC1-7;NC1_2",
  "ConsistencyInfo": "N4_VE11C_LATEST_20160120",
  "ConversionSoftware": "dcm2niix",
  "ConversionSoftwareVersion": "v1.0.20190902",
  "DerivedVendorReportedEchoSpacing": 0.000560011,
  "DeviceSerialNumber": "167006",
  "DwellTime": 2.1e-06,
  "EchoTime": 0.037,
  "EchoTrainLength": 104,
  "EffectiveEchoSpacing": 0.000560011,
  "FlipAngle": 52,
  "ImageComments": "Unaliased_MB4_PE3_LB",
  "ImageOrientationPatientDICOM": [0.99825, -0.0590027, 0.00384694, 0.05651, 0.932886, -0.355712],
  "ImageType": [
    "ORIGINAL",
    "PRIMARY",
    "M",
    "MB",
    "ND",
    "MOSAIC"
],
  "ImagingFrequency": 123.259,
  "InPlanePhaseEncodingDirectionDICOM": "COL",
  "InstitutionAddress": "Chemin_Queen-Mary_4565_Montreal_District_CA_H3W_1W5",
  "InstitutionName": "IUGM",
  "InstitutionalDepartmentName": "Department",
  "MRAcquisitionType": "2D",
  "MagneticFieldStrength": 3,
  "Manufacturer": "Siemens",
  "ManufacturersModelName": "Prisma_fit",
  "Modality": "MR",
  "MultibandAccelerationFactor": 4,
  "PartialFourier": 1,
  "PatientPosition": "HFS",
  "PercentPhaseFOV": 100,
  "PhaseEncodingDirection": "j",
  "PhaseEncodingSteps": 104,
  "PhaseResolution": 1,
  "PixelBandwidth": 2290,
  "ProcedureStepDescription": "video_friends",
  "ProtocolName": "func_task-friends-s03e22b",
  "PulseSequenceDetails": "%CustomerSeq%_cmrr_mbep2d_bold",
  "ReceiveCoilActiveElements": "HC1-7;NC1,2",
  "ReceiveCoilName": "HeadNeck_64",
  "ReconMatrixPE": 104,
  "RepetitionTime": 1.49,
  "SAR": 0.0308738,
  "ScanOptions": "FS",
  "ScanningSequence": "EP",
  "SequenceName": "epfid2d1_104",
  "SequenceVariant": "SK_SS",
  "SeriesDescription": "func_task-friends-s03e22b",
  "SeriesNumber": 23,
  "ShimSetting": [640, -7261, -8811, 620, 23, -222, -82, -12],
  "SliceThickness": 2,
  "SliceTiming": [0, 0.7825, 0.0975, 0.8825, 0.195, 0.98, 0.2925, 1.0775, 0.3925, 1.175, 0.49, 1.2725, 0.5875, 1.3725, 0.685, 0, 0.7825, 0.0975, 0.8825, 0.195, 0.98, 0.2925, 1.0775, 0.3925, 1.175, 0.49, 1.2725, 0.5875, 1.3725, 0.685, 0, 0.7825, 0.0975, 0.8825, 0.195, 0.98, 0.2925, 1.0775, 0.3925, 1.175, 0.49, 1.2725, 0.5875, 1.3725, 0.685, 0, 0.7825, 0.0975, 0.8825, 0.195, 0.98, 0.2925, 1.0775, 0.3925, 1.175, 0.49, 1.2725, 0.5875, 1.3725, 0.685],
  "SoftwareVersions": "syngo_MR_E11",
  "SpacingBetweenSlices": 2,
  "StationName": "MRC35049",
  "TaskName": "s03e22b",
  "TotalReadoutTime": 0.0576811,
  "TxRefAmp": 218.181,
  "WipMemBlock": "9ead1d47-fb17-401a-b260-6e947f0a20e7||Sequence: R016 ve11c/master r/e634e98; Dec 19 2017 11:00:25 by eja",
  "dcmmeta_affine": [
    [-1.996500849723816, 0.11302001029253006, -0.03479837253689766, 97.04191589355469],
    [0.11800531297922134, 1.8657714128494263, -0.7106137871742249, -77.63736724853516],
    [0.007693886291235685, 0.7114236950874329, 1.8691755533218384, -62.712059020996094],
    [0.0, 0.0, 0.0, 1.0]
],
  "dcmmeta_reorient_transform": [
    [0.0, -1.0, 0.0, 103.0],
    [1.0, 0.0, 0.0, 0.0],
    [0.0, 0.0, 1.0, 0.0],
    [0.0, 0.0, 0.0, 1.0]
],
  "dcmmeta_shape": [104, 104, 60, 463],
  "dcmmeta_slice_dim": 2,
  "dcmmeta_version": 0.6,
  "global": {
    "const": {
      "AcquisitionMatrix": [104, 0, 0, 104],
      "AngioFlag": "N",
      "BitsAllocated": 16,
      "BitsStored": 16,
      "BodyPartExamined": "BRAIN",
      "Columns": 832,
      "EchoNumbers": 1,
      "EchoTime": 37.0,
      "EchoTrainLength": 104,
      "FlipAngle": 52.0,
      "HighBit": 15,
      "ImageOrientationPatient": [0.99825041331916, -0.0590026553349, 0.00384694314485, 0.05651000495084, 0.9328856851791, -0.355711846483],
      "ImagePositionPatient": [-876.54856468147, -750.72392866363, 266.72223213047],
      "ImageType": [
        "ORIGINAL",
        "PRIMARY",
        "M",
        "MB",
        "ND",
        "MOSAIC"
],
      "ImagedNucleus": "1H",
      "ImagingFrequency": 123.259394,
      "InPlanePhaseEncodingDirection": "COL",
      "MRAcquisitionType": "2D",
      "MagneticFieldStrength": 3.0,
      "Manufacturer": "SIEMENS",
      "ManufacturerModelName": "Prisma_fit",
      "Modality": "MR",
      "NumberOfAverages": 1.0,
      "NumberOfPhaseEncodingSteps": 104,
      "PercentPhaseFieldOfView": 100.0,
      "PercentSampling": 100.0,
      "PerformedProcedureStepStartTime": "141906.254000",
      "PhotometricInterpretation": "MONOCHROME2",
      "PixelBandwidth": 2290.0,
      "PixelRepresentation": 0,
      "PixelSpacing": [2.0, 2.0],
      "ProtocolName": "func_task-friends-s03e22b",
      "RepetitionTime": 1490.0,
      "Rows": 832,
      "SAR": 0.03087377847953,
      "SamplesPerPixel": 1,
      "ScanOptions": "FS",
      "ScanningSequence": "EP",
      "SequenceName": "epfid2d1_104",
      "SequenceVariant": [
        "SK",
        "SS"
],
      "SeriesDescription": "func_task-friends-s03e22b",
      "SeriesNumber": 23,
      "SeriesTime": "161247.704000",
      "SliceLocation": -32.713280365035,
      "SliceThickness": 2.0,
      "SmallestImagePixelValue": 0,
      "SoftwareVersions": "syngo MR E11",
      "SpacingBetweenSlices": 2.000000042334,
      "SpecificCharacterSet": "ISO_IR 100",
      "StudyID": "1",
      "StudyTime": "141906.082000",
      "TransmitCoilName": "Body",
      "VariableFlipAngleFlag": "N",
      "WindowCenterWidthExplanation": "Algo1",
      "dBdt": 0.0},
    "slices": {}
  },
  "time": {
    "samples": {
      "AcquisitionNumber": [1, 2, 3, 4, 5, 6, 7, 8, 9, 10, 11, 12, 13, 14, 15, 16, 17, 18, 19, 20, 21, 22, 23, 24, 25, 26, 27, 28, 29, 30, 31, 32, 33, 34, 35, 36, 37, 38, 39, 40, 41, 42, 43, 44, 45, 46, 47, 48, 49, 50, 51, 52, 53, 54, 55, 56, 57, 58, 59, 60, 61, 62, 63, 64, 65, 66, 67, 68, 69, 70, 71, 72, 73, 74, 75, 76, 77, 78, 79, 80, 81, 82, 83, 84, 85, 86, 87, 88, 89, 90, 91, 92, 93, 94, 95, 96, 97, 98, 99, 100, 101, 102, 103, 104, 105, 106, 107, 108, 109, 110, 111, 112, 113, 114, 115, 116, 117, 118, 119, 120, 121, 122, 123, 124, 125, 126, 127, 128, 129, 130, 131, 132, 133, 134, 135, 136, 137, 138, 139, 140, 141, 142, 143, 144, 145, 146, 147, 148, 149, 150, 151, 152, 153, 154, 155, 156, 157, 158, 159, 160, 161, 162, 163, 164, 165, 166, 167, 168, 169, 170, 171, 172, 173, 174, 175, 176, 177, 178, 179, 180, 181, 182, 183, 184, 185, 186, 187, 188, 189, 190, 191, 192, 193, 194, 195, 196, 197, 198, 199, 200, 201, 202, 203, 204, 205, 206, 207, 208, 209, 210, 211, 212, 213, 214, 215, 216, 217, 218, 219, 220, 221, 222, 223, 224, 225, 226, 227, 228, 229, 230, 231, 232, 233, 234, 235, 236, 237, 238, 239, 240, 241, 242, 243, 244, 245, 246, 247, 248, 249, 250, 251, 252, 253, 254, 255, 256, 257, 258, 259, 260, 261, 262, 263, 264, 265, 266, 267, 268, 269, 270, 271, 272, 273, 274, 275, 276, 277, 278, 279, 280, 281, 282, 283, 284, 285, 286, 287, 288, 289, 290, 291, 292, 293, 294, 295, 296, 297, 298, 299, 300, 301, 302, 303, 304, 305, 306, 307, 308, 309, 310, 311, 312, 313, 314, 315, 316, 317, 318, 319, 320, 321, 322, 323, 324, 325, 326, 327, 328, 329, 330, 331, 332, 333, 334, 335, 336, 337, 338, 339, 340, 341, 342, 343, 344, 345, 346, 347, 348, 349, 350, 351, 352, 353, 354, 355, 356, 357, 358, 359, 360, 361, 362, 363, 364, 365, 366, 367, 368, 369, 370, 371, 372, 373, 374, 375, 376, 377, 378, 379, 380, 381, 382, 383, 384, 385, 386, 387, 388, 389, 390, 391, 392, 393, 394, 395, 396, 397, 398, 399, 400, 401, 402, 403, 404, 405, 406, 407, 408, 409, 410, 411, 412, 413, 414, 415, 416, 417, 418, 419, 420, 421, 422, 423, 424, 425, 426, 427, 428, 429, 430, 431, 432, 433, 434, 435, 436, 437, 438, 439, 440, 441, 442, 443, 444, 445, 446, 447, 448, 449, 450, 451, 452, 453, 454, 455, 456, 457, 458, 459, 460, 461, 462, 463],
      "AcquisitionTime": ["161148.730000", "161150.220000", "161151.710000", "161153.200000", "161154.690000", "161156.180000", "161157.670000", "161159.160000", "161200.650000", "161202.140000", "161203.630000", "161205.120000", "161206.610000", "161208.100000", "161209.590000", "161211.080000", "161212.570000", "161214.060000", "161215.550000", "161217.040000", "161218.530000", "161220.020000", "161221.510000", "161223.000000", "161224.490000", "161225.980000", "161227.470000", "161228.960000", "161230.450000", "161231.940000", "161233.430000", "161234.920000", "161236.410000", "161237.900000", "161239.390000", "161240.880000", "161242.370000", "161243.860000", "161245.350000", "161246.840000", "161248.330000", "161249.820000", "161251.310000", "161252.800000", "161254.290000", "161255.780000", "161257.270000", "161258.760000", "161300.250000", "161301.740000", "161303.230000", "161304.720000", "161306.210000", "161307.700000", "161309.190000", "161310.680000", "161312.170000", "161313.660000", "161315.150000", "161316.640000", "161318.130000", "161319.620000", "161321.110000", "161322.600000", "161324.090000", "161325.580000", "161327.070000", "161328.560000", "161330.050000", "161331.540000", "161333.030000", "161334.520000", "161336.010000", "161337.500000", "161338.990000", "161340.480000", "161341.970000", "161343.460000", "161344.950000", "161346.440000", "161347.930000", "161349.420000", "161350.910000", "161352.400000", "161353.890000", "161355.380000", "161356.870000", "161358.360000", "161359.850000", "161401.340000", "161402.830000", "161404.320000", "161405.810000", "161407.300000", "161408.790000", "161410.280000", "161411.770000", "161413.260000", "161414.750000", "161416.240000", "161417.730000", "161419.220000", "161420.710000", "161422.200000", "161423.690000", "161425.180000", "161426.670000", "161428.160000", "161429.650000", "161431.140000", "161432.630000", "161434.120000", "161435.610000", "161437.100000", "161438.590000", "161440.080000", "161441.570000", "161443.060000", "161444.550000", "161446.040000", "161447.530000", "161449.020000", "161450.510000", "161452.000000", "161453.490000", "161454.980000", "161456.470000", "161457.960000", "161459.450000", "161500.940000", "161502.430000", "161503.920000", "161505.410000", "161506.900000", "161508.390000", "161509.880000", "161511.370000", "161512.860000", "161514.350000", "161515.840000", "161517.330000", "161518.820000", "161520.310000", "161521.800000", "161523.290000", "161524.780000", "161526.270000", "161527.760000", "161529.250000", "161530.740000", "161532.230000", "161533.720000", "161535.210000", "161536.700000", "161538.190000", "161539.680000", "161541.170000", "161542.660000", "161544.150000", "161545.640000", "161547.130000", "161548.620000", "161550.110000", "161551.600000", "161553.090000", "161554.580000", "161556.070000", "161557.560000", "161559.050000", "161600.540000", "161602.030000", "161603.520000", "161605.010000", "161606.500000", "161607.990000", "161609.480000", "161610.970000", "161612.460000", "161613.950000", "161615.440000", "161616.930000", "161618.420000", "161619.910000", "161621.400000", "161622.890000", "161624.380000", "161625.870000", "161627.360000", "161628.850000", "161630.340000", "161631.830000", "161633.320000", "161634.810000", "161636.300000", "161637.790000", "161639.280000", "161640.770000", "161642.260000", "161643.750000", "161645.240000", "161646.730000", "161648.220000", "161649.710000", "161651.200000", "161652.690000", "161654.180000", "161655.670000", "161657.160000", "161658.650000", "161700.140000", "161701.630000", "161703.120000", "161704.610000", "161706.100000", "161707.590000", "161709.080000", "161710.570000", "161712.060000", "161713.550000", "161715.040000", "161716.530000", "161718.020000", "161719.510000", "161721.000000", "161722.490000", "161723.980000", "161725.470000", "161726.960000", "161728.450000", "161729.940000", "161731.430000", "161732.920000", "161734.410000", "161735.900000", "161737.390000", "161738.880000", "161740.370000", "161741.860000", "161743.350000", "161744.840000", "161746.330000", "161747.820000", "161749.310000", "161750.800000", "161752.290000", "161753.780000", "161755.270000", "161756.760000", "161758.250000", "161759.740000", "161801.230000", "161802.720000", "161804.210000", "161805.700000", "161807.190000", "161808.680000", "161810.170000", "161811.660000", "161813.150000", "161814.640000", "161816.130000", "161817.620000", "161819.110000", "161820.600000", "161822.090000", "161823.580000", "161825.070000", "161826.560000", "161828.050000", "161829.540000", "161831.030000", "161832.520000", "161834.010000", "161835.500000", "161836.990000", "161838.480000", "161839.970000", "161841.460000", "161842.950000", "161844.440000", "161845.930000", "161847.420000", "161848.910000", "161850.400000", "161851.890000", "161853.380000", "161854.870000", "161856.360000", "161857.850000", "161859.340000", "161900.830000", "161902.320000", "161903.810000", "161905.300000", "161906.790000", "161908.280000", "161909.770000", "161911.260000", "161912.750000", "161914.240000", "161915.730000", "161917.220000", "161918.710000", "161920.200000", "161921.690000", "161923.180000", "161924.670000", "161926.160000", "161927.650000", "161929.140000", "161930.630000", "161932.120000", "161933.610000", "161935.100000", "161936.590000", "161938.080000", "161939.570000", "161941.060000", "161942.550000", "161944.040000", "161945.530000", "161947.020000", "161948.510000", "161950.000000", "161951.490000", "161952.980000", "161954.470000", "161955.960000", "161957.450000", "161958.940000", "162000.430000", "162001.920000", "162003.410000", "162004.900000", "162006.390000", "162007.880000", "162009.370000", "162010.860000", "162012.350000", "162013.840000", "162015.330000", "162016.820000", "162018.310000", "162019.800000", "162021.290000", "162022.780000", "162024.270000", "162025.760000", "162027.250000", "162028.740000", "162030.230000", "162031.720000", "162033.210000", "162034.700000", "162036.190000", "162037.680000", "162039.170000", "162040.660000", "162042.150000", "162043.640000", "162045.130000", "162046.620000", "162048.110000", "162049.600000", "162051.090000", "162052.580000", "162054.070000", "162055.560000", "162057.050000", "162058.540000", "162100.030000", "162101.520000", "162103.010000", "162104.500000", "162105.990000", "162107.480000", "162108.970000", "162110.460000", "162111.950000", "162113.440000", "162114.930000", "162116.420000", "162117.910000", "162119.400000", "162120.890000", "162122.380000", "162123.870000", "162125.360000", "162126.850000", "162128.340000", "162129.830000", "162131.320000", "162132.810000", "162134.300000", "162135.790000", "162137.280000", "162138.770000", "162140.260000", "162141.750000", "162143.240000", "162144.730000", "162146.220000", "162147.710000", "162149.200000", "162150.690000", "162152.180000", "162153.670000", "162155.160000", "162156.650000", "162158.140000", "162159.630000", "162201.120000", "162202.610000", "162204.100000", "162205.590000", "162207.080000", "162208.570000", "162210.060000", "162211.550000", "162213.040000", "162214.530000", "162216.020000", "162217.510000", "162219.000000", "162220.490000", "162221.980000", "162223.470000", "162224.960000", "162226.450000", "162227.940000", "162229.430000", "162230.920000", "162232.410000", "162233.900000", "162235.390000", "162236.880000", "162238.370000", "162239.860000", "162241.350000", "162242.840000", "162244.330000", "162245.820000", "162247.310000", "162248.800000", "162250.290000", "162251.780000", "162253.270000", "162254.760000", "162256.250000", "162257.740000", "162259.230000", "162300.720000", "162302.210000", "162303.700000", "162305.190000", "162306.680000", "162308.170000", "162309.660000", "162311.150000", "162312.640000", "162314.130000", "162315.620000", "162317.110000"],
      "ContentTime": ["161247.706000", "161247.710000", "161247.713000", "161247.715000", "161247.718000", "161307.669000", "161307.672000", "161307.675000", "161307.678000", "161307.681000", "161307.690000", "161307.693000", "161307.709000", "161307.712000", "161307.714000", "161307.717000", "161307.720000", "161307.723000", "161307.726000", "161307.729000", "161307.732000", "161307.735000", "161307.737000", "161307.740000", "161307.743000", "161327.669000", "161327.672000", "161327.675000", "161327.678000", "161327.680000", "161327.683000", "161327.686000", "161327.689000", "161327.692000", "161327.695000", "161327.704000", "161327.707000", "161327.710000", "161327.712000", "161327.715000", "161327.718000", "161327.721000", "161327.724000", "161327.727000", "161327.730000", "161327.733000", "161347.669000", "161347.672000", "161347.676000", "161347.679000", "161347.682000", "161347.685000", "161347.688000", "161347.690000", "161347.693000", "161347.696000", "161347.699000", "161347.702000", "161347.705000", "161347.708000", "161347.711000", "161347.721000", "161347.724000", "161347.727000", "161347.730000", "161347.733000", "161407.669000", "161407.672000", "161407.675000", "161407.678000", "161407.681000", "161407.684000", "161407.686000", "161407.689000", "161407.692000", "161407.695000", "161407.698000", "161407.701000", "161407.703000", "161407.707000", "161407.720000", "161407.723000", "161407.726000", "161407.729000", "161407.731000", "161407.734000", "161427.670000", "161427.673000", "161427.676000", "161427.679000", "161427.682000", "161427.685000", "161427.688000", "161427.690000", "161427.693000", "161427.696000", "161427.699000", "161427.702000", "161427.705000", "161427.708000", "161427.711000", "161427.714000", "161427.716000", "161427.719000", "161427.722000", "161427.725000", "161507.670000", "161507.673000", "161507.676000", "161507.679000", "161507.682000", "161507.691000", "161507.694000", "161507.697000", "161507.700000", "161507.702000", "161507.705000", "161507.708000", "161507.711000", "161507.714000", "161507.717000", "161507.720000", "161507.723000", "161507.726000", "161507.729000", "161507.732000", "161507.734000", "161507.737000", "161507.740000", "161507.743000", "161507.746000", "161507.749000", "161507.752000", "161547.669000", "161547.672000", "161547.675000", "161547.678000", "161547.681000", "161547.684000", "161547.687000", "161547.690000", "161547.692000", "161547.695000", "161547.698000", "161547.701000", "161547.704000", "161547.707000", "161547.710000", "161547.713000", "161547.716000", "161547.718000", "161547.721000", "161547.724000", "161547.727000", "161547.730000", "161547.733000", "161547.736000", "161547.739000", "161547.741000", "161547.744000", "161627.669000", "161627.672000", "161627.675000", "161627.678000", "161627.681000", "161627.684000", "161627.687000", "161627.690000", "161627.693000", "161627.696000", "161627.698000", "161627.701000", "161627.704000", "161627.707000", "161627.710000", "161627.713000", "161627.716000", "161627.719000", "161627.722000", "161627.724000", "161627.727000", "161627.730000", "161627.733000", "161627.736000", "161627.739000", "161627.742000", "161707.670000", "161707.673000", "161707.676000", "161707.679000", "161707.682000", "161707.685000", "161707.688000", "161707.691000", "161707.694000", "161707.697000", "161707.700000", "161707.703000", "161707.706000", "161707.710000", "161707.713000", "161707.716000", "161707.719000", "161707.721000", "161707.724000", "161707.727000", "161707.730000", "161707.733000", "161707.736000", "161707.739000", "161707.742000", "161707.745000", "161707.748000", "161747.669000", "161747.672000", "161747.675000", "161747.678000", "161747.681000", "161747.684000", "161747.687000", "161747.690000", "161747.693000", "161747.695000", "161747.698000", "161747.701000", "161747.704000", "161747.707000", "161747.710000", "161747.713000", "161747.716000", "161747.719000", "161747.722000", "161747.725000", "161747.727000", "161747.730000", "161747.733000", "161747.736000", "161747.739000", "161747.742000", "161747.748000", "161827.669000", "161827.672000", "161827.675000", "161827.678000", "161827.681000", "161827.684000", "161827.687000", "161827.690000", "161827.692000", "161827.695000", "161827.698000", "161827.701000", "161827.704000", "161827.707000", "161827.710000", "161827.713000", "161827.716000", "161827.719000", "161827.722000", "161827.724000", "161827.727000", "161827.730000", "161827.733000", "161827.736000", "161827.739000", "161827.742000", "161827.745000", "161907.670000", "161907.673000", "161907.676000", "161907.679000", "161907.682000", "161907.685000", "161907.688000", "161907.690000", "161907.693000", "161907.696000", "161907.699000", "161907.702000", "161907.705000", "161907.708000", "161907.711000", "161907.714000", "161907.717000", "161907.720000", "161907.722000", "161907.725000", "161907.728000", "161907.731000", "161907.734000", "161907.737000", "161907.740000", "161907.743000", "161907.746000", "161947.670000", "161947.673000", "161947.676000", "161947.679000", "161947.682000", "161947.685000", "161947.688000", "161947.691000", "161947.693000", "161947.696000", "161947.699000", "161947.702000", "161947.705000", "161947.708000", "161947.711000", "161947.714000", "161947.717000", "161947.720000", "161947.722000", "161947.725000", "161947.728000", "161947.731000", "161947.734000", "161947.737000", "161947.740000", "161947.743000", "161947.746000", "162027.669000", "162027.672000", "162027.676000", "162027.679000", "162027.681000", "162027.684000", "162027.687000", "162027.690000", "162027.693000", "162027.696000", "162027.699000", "162027.702000", "162027.705000", "162027.708000", "162027.712000", "162027.715000", "162027.718000", "162027.721000", "162027.724000", "162027.727000", "162027.730000", "162027.733000", "162027.736000", "162027.739000", "162027.742000", "162027.745000", "162027.748000", "162107.669000", "162107.672000", "162107.675000", "162107.678000", "162107.681000", "162107.684000", "162107.687000", "162107.690000", "162107.693000", "162107.696000", "162107.699000", "162107.702000", "162107.705000", "162107.708000", "162107.711000", "162107.714000", "162107.717000", "162107.720000", "162107.723000", "162107.726000", "162107.729000", "162107.732000", "162107.735000", "162107.738000", "162107.741000", "162107.744000", "162147.670000", "162147.673000", "162147.676000", "162147.679000", "162147.690000", "162147.692000", "162147.695000", "162147.698000", "162147.701000", "162147.704000", "162147.707000", "162147.710000", "162147.713000", "162147.716000", "162147.731000", "162147.741000", "162147.744000", "162147.747000", "162147.750000", "162147.753000", "162147.756000", "162147.759000", "162147.762000", "162147.765000", "162147.767000", "162147.784000", "162147.787000", "162227.669000", "162227.673000", "162227.676000", "162227.679000", "162227.682000", "162227.685000", "162227.688000", "162227.691000", "162227.694000", "162227.697000", "162227.700000", "162227.703000", "162227.706000", "162227.709000", "162227.712000", "162227.715000", "162227.718000", "162227.721000", "162227.724000", "162227.727000", "162227.730000", "162227.733000", "162227.736000", "162227.739000", "162227.742000", "162227.745000", "162227.748000", "162307.669000", "162307.672000", "162307.675000", "162307.678000", "162307.681000", "162307.684000", "162307.687000", "162307.690000", "162307.693000", "162307.696000", "162307.699000", "162307.701000", "162307.704000", "162307.707000", "162307.710000", "162307.713000", "162307.716000", "162307.719000", "162307.722000", "162307.725000", "162307.728000", "162307.731000", "162307.733000", "162307.736000", "162307.739000", "162307.742000", "162307.745000", "162318.961000", "162318.964000", "162318.967000", "162318.970000", "162318.973000", "162318.976000", "162318.979000", "162318.982000"],
