{
  "AcquisitionMatrixPE": 104,
  "AcquisitionNumber": 1,
  "AcquisitionTime": "16:40:53.862500",
  "BandwidthPerPixelPhaseEncode": 17.17,
  "BaseResolution": 104,
  "BodyPartExamined": "BRAIN",
  "CoilString": "HC1-7;NC1_2",
  "ConsistencyInfo": "N4_VE11C_LATEST_20160120",
  "ConversionSoftware": "dcm2niix",
  "ConversionSoftwareVersion": "v1.0.20190902",
  "DerivedVendorReportedEchoSpacing": 0.000560011,
  "DeviceSerialNumber": "167006",
  "DwellTime": 2.1e-06,
  "EchoTime": 0.037,
  "EchoTrainLength": 104,
  "EffectiveEchoSpacing": 0.000560011,
  "FlipAngle": 52,
  "ImageComments": "Unaliased_MB4_PE3_LB",
  "ImageOrientationPatientDICOM": [0.999197, -0.0400781, 2.8278e-05, 0.0375121, 0.934972, -0.352731],
  "ImageType": [
    "ORIGINAL",
    "PRIMARY",
    "M",
    "MB",
    "ND",
    "MOSAIC"
],
  "ImagingFrequency": 123.259,
  "InPlanePhaseEncodingDirectionDICOM": "COL",
  "InstitutionAddress": "Chemin_Queen-Mary_4565_Montreal_District_CA_H3W_1W5",
  "InstitutionName": "IUGM",
  "InstitutionalDepartmentName": "Department",
  "MRAcquisitionType": "2D",
  "MagneticFieldStrength": 3,
  "Manufacturer": "Siemens",
  "ManufacturersModelName": "Prisma_fit",
  "Modality": "MR",
  "MultibandAccelerationFactor": 4,
  "PartialFourier": 1,
  "PatientPosition": "HFS",
  "PercentPhaseFOV": 100,
  "PhaseEncodingDirection": "j",
  "PhaseEncodingSteps": 104,
  "PhaseResolution": 1,
  "PixelBandwidth": 2290,
  "ProcedureStepDescription": "video_friends",
  "ProtocolName": "func_task-friends-s03e23a",
  "PulseSequenceDetails": "%CustomerSeq%_cmrr_mbep2d_bold",
  "ReceiveCoilActiveElements": "HC1-7;NC1,2",
  "ReceiveCoilName": "HeadNeck_64",
  "ReconMatrixPE": 104,
  "RepetitionTime": 1.49,
  "SAR": 0.0320525,
  "ScanOptions": "FS",
  "ScanningSequence": "EP",
  "SequenceName": "epfid2d1_104",
  "SequenceVariant": "SK_SS",
  "SeriesDescription": "func_task-friends-s03e23a",
  "SeriesNumber": 32,
  "ShimSetting": [630, -7267, -8818, 621, 8, -222, -51, -5],
  "SliceThickness": 2,
  "SliceTiming": [0, 0.785, 0.1, 0.8825, 0.1975, 0.98, 0.295, 1.0775, 0.3925, 1.1775, 0.49, 1.275, 0.59, 1.3725, 0.6875, 0, 0.785, 0.1, 0.8825, 0.1975, 0.98, 0.295, 1.0775, 0.3925, 1.1775, 0.49, 1.275, 0.59, 1.3725, 0.6875, 0, 0.785, 0.1, 0.8825, 0.1975, 0.98, 0.295, 1.0775, 0.3925, 1.1775, 0.49, 1.275, 0.59, 1.3725, 0.6875, 0, 0.785, 0.1, 0.8825, 0.1975, 0.98, 0.295, 1.0775, 0.3925, 1.1775, 0.49, 1.275, 0.59, 1.3725, 0.6875],
  "SoftwareVersions": "syngo_MR_E11",
  "SpacingBetweenSlices": 2,
  "StationName": "MRC35049",
  "TaskName": "s03e23a",
  "TotalReadoutTime": 0.0576811,
  "TxRefAmp": 220.117,
  "WipMemBlock": "8564e690-e8f3-4e79-bca3-8931b8fa96d7||Sequence: R016 ve11c/master r/e634e98; Dec 19 2017 11:00:25 by eja",
  "dcmmeta_affine": [
    [-1.9983930587768555, 0.07502414286136627, -0.028220754116773605, 99.0252685546875],
    [0.08015628159046173, 1.8699449300765991, -0.704897940158844, -75.13886260986328],
    [5.6556087656645104e-05, 0.705462634563446, 1.8714492321014404, -62.26431655883789],
    [0.0, 0.0, 0.0, 1.0]
],
  "dcmmeta_reorient_transform": [
    [0.0, -1.0, 0.0, 103.0],
    [1.0, 0.0, 0.0, 0.0],
    [0.0, 0.0, 1.0, 0.0],
    [0.0, 0.0, 0.0, 1.0]
],
  "dcmmeta_shape": [104, 104, 60, 470],
  "dcmmeta_slice_dim": 2,
  "dcmmeta_version": 0.6,
  "global": {
    "const": {
      "AcquisitionMatrix": [104, 0, 0, 104],
      "AngioFlag": "N",
      "BitsAllocated": 16,
      "BitsStored": 16,
      "BodyPartExamined": "BRAIN",
      "Columns": 832,
      "EchoNumbers": 1,
      "EchoTime": 37.0,
      "EchoTrainLength": 104,
      "FlipAngle": 52.0,
      "HighBit": 15,
      "ImageOrientationPatient": [0.99919654809602, -0.0400781420894, 2.827804444e-05, 0.03751207182708, 0.93497243574265, -0.352731326747],
      "ImagePositionPatient": [-861.47662798558, -768.94850808424, 267.16615682691],
      "ImageType": [
        "ORIGINAL",
        "PRIMARY",
        "M",
        "MB",
        "ND",
        "MOSAIC"
],
      "ImagedNucleus": "1H",
      "ImagingFrequency": 123.259386,
      "InPlanePhaseEncodingDirection": "COL",
      "MRAcquisitionType": "2D",
      "MagneticFieldStrength": 3.0,
      "Manufacturer": "SIEMENS",
      "ManufacturerModelName": "Prisma_fit",
      "Modality": "MR",
      "NumberOfAverages": 1.0,
      "NumberOfPhaseEncodingSteps": 104,
      "PercentPhaseFieldOfView": 100.0,
      "PercentSampling": 100.0,
      "PerformedProcedureStepStartTime": "141906.254000",
      "PhotometricInterpretation": "MONOCHROME2",
      "PixelBandwidth": 2290.0,
      "PixelRepresentation": 0,
      "PixelSpacing": [2.0, 2.0],
      "ProtocolName": "func_task-friends-s03e23a",
      "RepetitionTime": 1490.0,
      "Rows": 832,
      "SAR": 0.03205246775809,
      "SamplesPerPixel": 1,
      "ScanOptions": "FS",
      "ScanningSequence": "EP",
      "SequenceName": "epfid2d1_104",
      "SequenceVariant": [
        "SK",
        "SS"
],
      "SeriesDescription": "func_task-friends-s03e23a",
      "SeriesNumber": 32,
      "SeriesTime": "164202.219000",
      "SliceLocation": -33.176923995407,
      "SliceThickness": 2.0,
      "SmallestImagePixelValue": 0,
      "SoftwareVersions": "syngo MR E11",
      "SpacingBetweenSlices": 2.0000000005364,
      "SpecificCharacterSet": "ISO_IR 100",
      "StudyID": "1",
      "StudyTime": "141906.082000",
      "TransmitCoilName": "Body",
      "VariableFlipAngleFlag": "N",
      "WindowCenterWidthExplanation": "Algo1",
      "dBdt": 0.0},
    "slices": {}
  },
  "time": {
    "samples": {
      "AcquisitionNumber": [1, 2, 3, 4, 5, 6, 7, 8, 9, 10, 11, 12, 13, 14, 15, 16, 17, 18, 19, 20, 21, 22, 23, 24, 25, 26, 27, 28, 29, 30, 31, 32, 33, 34, 35, 36, 37, 38, 39, 40, 41, 42, 43, 44, 45, 46, 47, 48, 49, 50, 51, 52, 53, 54, 55, 56, 57, 58, 59, 60, 61, 62, 63, 64, 65, 66, 67, 68, 69, 70, 71, 72, 73, 74, 75, 76, 77, 78, 79, 80, 81, 82, 83, 84, 85, 86, 87, 88, 89, 90, 91, 92, 93, 94, 95, 96, 97, 98, 99, 100, 101, 102, 103, 104, 105, 106, 107, 108, 109, 110, 111, 112, 113, 114, 115, 116, 117, 118, 119, 120, 121, 122, 123, 124, 125, 126, 127, 128, 129, 130, 131, 132, 133, 134, 135, 136, 137, 138, 139, 140, 141, 142, 143, 144, 145, 146, 147, 148, 149, 150, 151, 152, 153, 154, 155, 156, 157, 158, 159, 160, 161, 162, 163, 164, 165, 166, 167, 168, 169, 170, 171, 172, 173, 174, 175, 176, 177, 178, 179, 180, 181, 182, 183, 184, 185, 186, 187, 188, 189, 190, 191, 192, 193, 194, 195, 196, 197, 198, 199, 200, 201, 202, 203, 204, 205, 206, 207, 208, 209, 210, 211, 212, 213, 214, 215, 216, 217, 218, 219, 220, 221, 222, 223, 224, 225, 226, 227, 228, 229, 230, 231, 232, 233, 234, 235, 236, 237, 238, 239, 240, 241, 242, 243, 244, 245, 246, 247, 248, 249, 250, 251, 252, 253, 254, 255, 256, 257, 258, 259, 260, 261, 262, 263, 264, 265, 266, 267, 268, 269, 270, 271, 272, 273, 274, 275, 276, 277, 278, 279, 280, 281, 282, 283, 284, 285, 286, 287, 288, 289, 290, 291, 292, 293, 294, 295, 296, 297, 298, 299, 300, 301, 302, 303, 304, 305, 306, 307, 308, 309, 310, 311, 312, 313, 314, 315, 316, 317, 318, 319, 320, 321, 322, 323, 324, 325, 326, 327, 328, 329, 330, 331, 332, 333, 334, 335, 336, 337, 338, 339, 340, 341, 342, 343, 344, 345, 346, 347, 348, 349, 350, 351, 352, 353, 354, 355, 356, 357, 358, 359, 360, 361, 362, 363, 364, 365, 366, 367, 368, 369, 370, 371, 372, 373, 374, 375, 376, 377, 378, 379, 380, 381, 382, 383, 384, 385, 386, 387, 388, 389, 390, 391, 392, 393, 394, 395, 396, 397, 398, 399, 400, 401, 402, 403, 404, 405, 406, 407, 408, 409, 410, 411, 412, 413, 414, 415, 416, 417, 418, 419, 420, 421, 422, 423, 424, 425, 426, 427, 428, 429, 430, 431, 432, 433, 434, 435, 436, 437, 438, 439, 440, 441, 442, 443, 444, 445, 446, 447, 448, 449, 450, 451, 452, 453, 454, 455, 456, 457, 458, 459, 460, 461, 462, 463, 464, 465, 466, 467, 468, 469, 470],
      "AcquisitionTime": ["164053.862500", "164055.352500", "164056.842500", "164058.332500", "164059.822500", "164101.312500", "164102.802500", "164104.292500", "164105.782500", "164107.272500", "164108.762500", "164110.252500", "164111.742500", "164113.232500", "164114.722500", "164116.212500", "164117.702500", "164119.192500", "164120.682500", "164122.172500", "164123.662500", "164125.152500", "164126.642500", "164128.132500", "164129.622500", "164131.112500", "164132.602500", "164134.092500", "164135.582500", "164137.072500", "164138.562500", "164140.052500", "164141.542500", "164143.032500", "164144.522500", "164146.012500", "164147.502500", "164148.992500", "164150.482500", "164151.972500", "164153.462500", "164154.952500", "164156.442500", "164157.932500", "164159.422500", "164200.912500", "164202.402500", "164203.892500", "164205.382500", "164206.872500", "164208.362500", "164209.852500", "164211.342500", "164212.832500", "164214.322500", "164215.812500", "164217.302500", "164218.792500", "164220.282500", "164221.772500", "164223.262500", "164224.752500", "164226.242500", "164227.732500", "164229.222500", "164230.712500", "164232.202500", "164233.692500", "164235.182500", "164236.672500", "164238.162500", "164239.652500", "164241.142500", "164242.632500", "164244.122500", "164245.612500", "164247.102500", "164248.592500", "164250.082500", "164251.572500", "164253.062500", "164254.552500", "164256.042500", "164257.532500", "164259.022500", "164300.512500", "164302.002500", "164303.492500", "164304.982500", "164306.472500", "164307.962500", "164309.452500", "164310.942500", "164312.432500", "164313.922500", "164315.412500", "164316.902500", "164318.392500", "164319.882500", "164321.372500", "164322.862500", "164324.352500", "164325.842500", "164327.332500", "164328.822500", "164330.312500", "164331.802500", "164333.292500", "164334.782500", "164336.272500", "164337.762500", "164339.252500", "164340.742500", "164342.232500", "164343.722500", "164345.212500", "164346.702500", "164348.192500", "164349.682500", "164351.172500", "164352.662500", "164354.152500", "164355.642500", "164357.132500", "164358.622500", "164400.112500", "164401.602500", "164403.092500", "164404.582500", "164406.072500", "164407.562500", "164409.052500", "164410.542500", "164412.032500", "164413.522500", "164415.012500", "164416.502500", "164417.992500", "164419.482500", "164420.972500", "164422.462500", "164423.952500", "164425.442500", "164426.932500", "164428.422500", "164429.912500", "164431.402500", "164432.892500", "164434.382500", "164435.872500", "164437.362500", "164438.852500", "164440.342500", "164441.832500", "164443.322500", "164444.812500", "164446.302500", "164447.792500", "164449.282500", "164450.772500", "164452.262500", "164453.752500", "164455.242500", "164456.732500", "164458.222500", "164459.712500", "164501.202500", "164502.692500", "164504.182500", "164505.672500", "164507.162500", "164508.652500", "164510.142500", "164511.632500", "164513.122500", "164514.612500", "164516.102500", "164517.592500", "164519.082500", "164520.572500", "164522.062500", "164523.552500", "164525.042500", "164526.532500", "164528.022500", "164529.512500", "164531.002500", "164532.492500", "164533.982500", "164535.472500", "164536.962500", "164538.452500", "164539.942500", "164541.432500", "164542.922500", "164544.412500", "164545.902500", "164547.392500", "164548.882500", "164550.372500", "164551.862500", "164553.352500", "164554.842500", "164556.332500", "164557.822500", "164559.312500", "164600.802500", "164602.292500", "164603.782500", "164605.272500", "164606.762500", "164608.252500", "164609.742500", "164611.232500", "164612.722500", "164614.212500", "164615.702500", "164617.192500", "164618.682500", "164620.172500", "164621.662500", "164623.152500", "164624.642500", "164626.132500", "164627.622500", "164629.112500", "164630.602500", "164632.092500", "164633.582500", "164635.072500", "164636.562500", "164638.052500", "164639.542500", "164641.032500", "164642.522500", "164644.012500", "164645.502500", "164646.992500", "164648.482500", "164649.972500", "164651.462500", "164652.952500", "164654.442500", "164655.932500", "164657.422500", "164658.912500", "164700.402500", "164701.892500", "164703.382500", "164704.872500", "164706.362500", "164707.852500", "164709.342500", "164710.832500", "164712.322500", "164713.812500", "164715.302500", "164716.792500", "164718.282500", "164719.772500", "164721.262500", "164722.752500", "164724.242500", "164725.732500", "164727.222500", "164728.712500", "164730.202500", "164731.692500", "164733.182500", "164734.672500", "164736.162500", "164737.652500", "164739.142500", "164740.632500", "164742.122500", "164743.612500", "164745.102500", "164746.592500", "164748.082500", "164749.572500", "164751.062500", "164752.552500", "164754.042500", "164755.532500", "164757.022500", "164758.512500", "164800.002500", "164801.492500", "164802.982500", "164804.472500", "164805.962500", "164807.452500", "164808.942500", "164810.432500", "164811.922500", "164813.412500", "164814.902500", "164816.392500", "164817.882500", "164819.372500", "164820.862500", "164822.352500", "164823.842500", "164825.332500", "164826.822500", "164828.312500", "164829.802500", "164831.292500", "164832.782500", "164834.272500", "164835.762500", "164837.252500", "164838.742500", "164840.232500", "164841.722500", "164843.212500", "164844.702500", "164846.192500", "164847.682500", "164849.172500", "164850.662500", "164852.152500", "164853.642500", "164855.132500", "164856.622500", "164858.112500", "164859.602500", "164901.092500", "164902.582500", "164904.072500", "164905.562500", "164907.052500", "164908.542500", "164910.032500", "164911.522500", "164913.012500", "164914.502500", "164915.992500", "164917.482500", "164918.972500", "164920.462500", "164921.952500", "164923.442500", "164924.932500", "164926.422500", "164927.912500", "164929.402500", "164930.892500", "164932.382500", "164933.872500", "164935.362500", "164936.852500", "164938.342500", "164939.832500", "164941.322500", "164942.812500", "164944.302500", "164945.792500", "164947.282500", "164948.772500", "164950.262500", "164951.752500", "164953.242500", "164954.732500", "164956.222500", "164957.712500", "164959.202500", "165000.692500", "165002.182500", "165003.672500", "165005.162500", "165006.652500", "165008.142500", "165009.632500", "165011.122500", "165012.612500", "165014.102500", "165015.592500", "165017.082500", "165018.572500", "165020.062500", "165021.552500", "165023.042500", "165024.532500", "165026.022500", "165027.512500", "165029.002500", "165030.492500", "165031.982500", "165033.472500", "165034.962500", "165036.452500", "165037.942500", "165039.432500", "165040.922500", "165042.412500", "165043.902500", "165045.392500", "165046.882500", "165048.372500", "165049.862500", "165051.352500", "165052.842500", "165054.332500", "165055.822500", "165057.312500", "165058.802500", "165100.292500", "165101.782500", "165103.272500", "165104.762500", "165106.252500", "165107.742500", "165109.232500", "165110.722500", "165112.212500", "165113.702500", "165115.192500", "165116.682500", "165118.172500", "165119.662500", "165121.152500", "165122.642500", "165124.132500", "165125.622500", "165127.112500", "165128.602500", "165130.092500", "165131.582500", "165133.072500", "165134.562500", "165136.052500", "165137.542500", "165139.032500", "165140.522500", "165142.012500", "165143.502500", "165144.992500", "165146.482500", "165147.972500", "165149.462500", "165150.952500", "165152.442500", "165153.932500", "165155.422500", "165156.912500", "165158.402500", "165159.892500", "165201.382500", "165202.872500", "165204.362500", "165205.852500", "165207.342500", "165208.832500", "165210.322500", "165211.812500", "165213.302500", "165214.792500", "165216.282500", "165217.772500", "165219.262500", "165220.752500", "165222.242500", "165223.732500", "165225.222500", "165226.712500", "165228.202500", "165229.692500", "165231.182500", "165232.672500"],
      "ContentTime": ["164202.222000", "164202.226000", "164202.229000", "164202.231000", "164202.237000", "164202.240000", "164202.243000", "164202.246000", "164202.249000", "164202.252000", "164202.255000", "164202.258000", "164202.261000", "164202.264000", "164222.181000", "164222.184000", "164222.187000", "164222.190000", "164222.217000", "164222.220000", "164222.223000", "164222.226000", "164222.229000", "164222.232000", "164222.235000", "164222.238000", "164222.240000", "164222.243000", "164222.246000", "164222.249000", "164222.252000", "164222.255000", "164222.258000", "164222.261000", "164242.181000", "164242.184000", "164242.187000", "164242.190000", "164242.193000", "164242.196000", "164242.199000", "164242.201000", "164242.204000", "164242.207000", "164242.210000", "164242.213000", "164242.216000", "164242.219000", "164242.222000", "164242.226000", "164242.229000", "164242.232000", "164242.235000", "164242.238000", "164242.240000", "164302.182000", "164302.190000", "164302.193000", "164302.196000", "164302.199000", "164302.202000", "164302.205000", "164302.208000", "164302.211000", "164302.214000", "164302.216000", "164302.219000", "164302.222000", "164302.225000", "164302.228000", "164302.231000", "164302.234000", "164302.237000", "164302.240000", "164302.242000", "164322.182000", "164322.185000", "164322.188000", "164322.191000", "164322.194000", "164322.196000", "164322.199000", "164322.202000", "164322.205000", "164322.208000", "164322.211000", "164322.214000", "164322.217000", "164322.220000", "164322.223000", "164322.225000", "164322.228000", "164322.231000", "164322.234000", "164322.237000", "164402.181000", "164402.184000", "164402.187000", "164402.190000", "164402.193000", "164402.195000", "164402.198000", "164402.201000", "164402.204000", "164402.207000", "164402.217000", "164402.219000", "164402.222000", "164402.225000", "164402.228000", "164402.231000", "164402.234000", "164402.237000", "164402.240000", "164402.243000", "164402.245000", "164402.248000", "164402.251000", "164402.254000", "164402.257000", "164402.260000", "164402.263000", "164402.266000", "164402.269000", "164402.271000", "164402.274000", "164442.181000", "164442.184000", "164442.187000", "164442.190000", "164442.193000", "164442.196000", "164442.199000", "164442.202000", "164442.204000", "164442.207000", "164442.210000", "164442.213000", "164442.216000", "164442.219000", "164442.222000", "164442.225000", "164442.228000", "164442.231000", "164442.234000", "164442.238000", "164442.241000", "164442.244000", "164442.247000", "164442.250000", "164442.253000", "164442.256000", "164522.182000", "164522.185000", "164522.188000", "164522.191000", "164522.202000", "164522.205000", "164522.208000", "164522.211000", "164522.214000", "164522.217000", "164522.220000", "164522.223000", "164522.226000", "164522.228000", "164522.231000", "164522.234000", "164522.237000", "164522.240000", "164522.243000", "164522.246000", "164522.249000", "164522.252000", "164522.254000", "164522.257000", "164522.260000", "164522.270000", "164522.273000", "164602.181000", "164602.184000", "164602.187000", "164602.190000", "164602.193000", "164602.196000", "164602.199000", "164602.202000", "164602.204000", "164602.207000", "164602.210000", "164602.213000", "164602.216000", "164602.219000", "164602.222000", "164602.225000", "164602.228000", "164602.231000", "164602.234000", "164602.237000", "164602.240000", "164602.242000", "164602.245000", "164602.248000", "164602.251000", "164602.254000", "164602.257000", "164642.181000", "164642.184000", "164642.187000", "164642.190000", "164642.193000", "164642.196000", "164642.199000", "164642.201000", "164642.204000", "164642.207000", "164642.210000", "164642.213000", "164642.216000", "164642.219000", "164642.222000", "164642.225000", "164642.228000", "164642.231000", "164642.234000", "164642.236000", "164642.239000", "164642.242000", "164642.245000", "164642.248000", "164642.251000", "164642.254000", "164642.257000", "164722.181000", "164722.184000", "164722.187000", "164722.190000", "164722.193000", "164722.196000", "164722.198000", "164722.201000", "164722.204000", "164722.207000", "164722.210000", "164722.213000", "164722.216000", "164722.219000", "164722.222000", "164722.225000", "164722.228000", "164722.231000", "164722.233000", "164722.236000", "164722.239000", "164722.243000", "164722.246000", "164722.249000", "164722.252000", "164722.255000", "164722.258000", "164802.182000", "164802.185000", "164802.188000", "164802.191000", "164802.194000", "164802.197000", "164802.200000", "164802.203000", "164802.206000", "164802.209000", "164802.212000", "164802.215000", "164802.218000", "164802.221000", "164802.224000", "164802.227000", "164802.230000", "164802.233000", "164802.237000", "164802.240000", "164802.243000", "164802.245000", "164802.248000", "164802.251000", "164802.254000", "164802.257000", "164802.260000", "164842.181000", "164842.184000", "164842.195000", "164842.198000", "164842.200000", "164842.203000", "164842.206000", "164842.209000", "164842.212000", "164842.215000", "164842.218000", "164842.221000", "164842.224000", "164842.227000", "164842.230000", "164842.232000", "164842.235000", "164842.238000", "164842.241000", "164842.244000", "164842.247000", "164842.250000", "164842.253000", "164842.255000", "164842.258000", "164842.261000", "164842.264000", "164922.181000", "164922.184000", "164922.187000", "164922.190000", "164922.193000", "164922.195000", "164922.198000", "164922.201000", "164922.204000", "164922.207000", "164922.210000", "164922.213000", "164922.216000", "164922.219000", "164922.222000", "164922.225000", "164922.228000", "164922.231000", "164922.234000", "164922.237000", "164922.240000", "164922.243000", "164922.246000", "164922.249000", "164922.252000", "164922.266000", "165002.182000", "165002.185000", "165002.188000", "165002.191000", "165002.194000", "165002.197000", "165002.200000", "165002.203000", "165002.206000", "165002.208000", "165002.211000", "165002.214000", "165002.217000", "165002.220000", "165002.223000", "165002.226000", "165002.229000", "165002.232000", "165002.235000", "165002.238000", "165002.241000", "165002.243000", "165002.246000", "165002.249000", "165002.252000", "165002.255000", "165002.258000", "165042.181000", "165042.184000", "165042.187000", "165042.190000", "165042.193000", "165042.196000", "165042.199000", "165042.202000", "165042.204000", "165042.207000", "165042.210000", "165042.213000", "165042.216000", "165042.219000", "165042.222000", "165042.225000", "165042.228000", "165042.231000", "165042.234000", "165042.237000", "165042.240000", "165042.242000", "165042.245000", "165042.248000", "165042.251000", "165042.254000", "165042.257000", "165122.181000", "165122.184000", "165122.187000", "165122.190000", "165122.193000", "165122.196000", "165122.199000", "165122.201000", "165122.204000", "165122.207000", "165122.210000", "165122.213000", "165122.216000", "165122.219000", "165122.222000", "165122.225000", "165122.228000", "165122.231000", "165122.234000", "165122.237000", "165122.240000", "165122.243000", "165122.245000", "165122.248000", "165122.251000", "165122.254000", "165122.257000", "165142.181000", "165142.184000", "165142.187000", "165142.190000", "165142.193000", "165142.196000", "165142.199000", "165142.201000", "165142.204000", "165142.207000", "165142.210000", "165142.213000", "165142.216000", "165222.182000", "165222.185000", "165222.188000", "165222.191000", "165222.194000", "165222.197000", "165222.200000", "165222.203000", "165222.206000", "165222.209000", "165222.212000", "165222.215000", "165222.217000", "165222.220000", "165222.223000", "165222.226000", "165222.229000", "165222.232000", "165222.235000", "165222.238000", "165222.241000", "165222.244000", "165222.246000", "165222.249000", "165222.252000", "165222.255000", "165222.258000", "165234.606000", "165234.609000", "165234.612000", "165234.615000", "165234.618000", "165234.621000", "165234.624000", "165234.627000", "165234.630000"],
