{
  "AcquisitionMatrixPE": 104,
  "AcquisitionNumber": 1,
  "AcquisitionTime": "15:23:34.470000",
  "BandwidthPerPixelPhaseEncode": 17.17,
  "BaseResolution": 104,
  "BodyPartExamined": "BRAIN",
  "CoilString": "HC1-7;NC1_2",
  "ConsistencyInfo": "N4_VE11C_LATEST_20160120",
  "ConversionSoftware": "dcm2niix",
  "ConversionSoftwareVersion": "v1.0.20190902",
  "DerivedVendorReportedEchoSpacing": 0.000560011,
  "DeviceSerialNumber": "167006",
  "DwellTime": 2.1e-06,
  "EchoTime": 0.037,
  "EchoTrainLength": 104,
  "EffectiveEchoSpacing": 0.000560011,
  "FlipAngle": 52,
  "ImageComments": "Unaliased_MB4_PE3_LB",
  "ImageOrientationPatientDICOM": [0.99825, -0.0590027, 0.00384694, 0.05651, 0.932886, -0.355712],
  "ImageType": [
    "ORIGINAL",
    "PRIMARY",
    "M",
    "MB",
    "ND",
    "MOSAIC"
],
  "ImagingFrequency": 123.259,
  "InPlanePhaseEncodingDirectionDICOM": "COL",
  "InstitutionAddress": "Chemin_Queen-Mary_4565_Montreal_District_CA_H3W_1W5",
  "InstitutionName": "IUGM",
  "InstitutionalDepartmentName": "Department",
  "MRAcquisitionType": "2D",
  "MagneticFieldStrength": 3,
  "Manufacturer": "Siemens",
  "ManufacturersModelName": "Prisma_fit",
  "Modality": "MR",
  "MultibandAccelerationFactor": 4,
  "PartialFourier": 1,
  "PatientPosition": "HFS",
  "PercentPhaseFOV": 100,
  "PhaseEncodingDirection": "j",
  "PhaseEncodingSteps": 104,
  "PhaseResolution": 1,
  "PixelBandwidth": 2290,
  "ProcedureStepDescription": "video_friends",
  "ProtocolName": "func_task-friends-s03e20b",
  "PulseSequenceDetails": "%CustomerSeq%_cmrr_mbep2d_bold",
  "ReceiveCoilActiveElements": "HC1-7;NC1,2",
  "ReceiveCoilName": "HeadNeck_64",
  "ReconMatrixPE": 104,
  "RepetitionTime": 1.49,
  "SAR": 0.0308741,
  "ScanOptions": "FS",
  "ScanningSequence": "EP",
  "SequenceName": "epfid2d1_104",
  "SequenceVariant": "SK_SS",
  "SeriesDescription": "func_task-friends-s03e20b",
  "SeriesNumber": 15,
  "ShimSetting": [640, -7261, -8811, 620, 23, -222, -82, -12],
  "SliceThickness": 2,
  "SliceTiming": [0, 0.785, 0.0975, 0.8825, 0.1975, 0.98, 0.295, 1.0775, 0.3925, 1.1775, 0.49, 1.275, 0.5875, 1.3725, 0.6875, 0, 0.785, 0.0975, 0.8825, 0.1975, 0.98, 0.295, 1.0775, 0.3925, 1.1775, 0.49, 1.275, 0.5875, 1.3725, 0.6875, 0, 0.785, 0.0975, 0.8825, 0.1975, 0.98, 0.295, 1.0775, 0.3925, 1.1775, 0.49, 1.275, 0.5875, 1.3725, 0.6875, 0, 0.785, 0.0975, 0.8825, 0.1975, 0.98, 0.295, 1.0775, 0.3925, 1.1775, 0.49, 1.275, 0.5875, 1.3725, 0.6875],
  "SoftwareVersions": "syngo_MR_E11",
  "SpacingBetweenSlices": 2,
  "StationName": "MRC35049",
  "TaskName": "s03e20b",
  "TotalReadoutTime": 0.0576811,
  "TxRefAmp": 218.181,
  "WipMemBlock": "77870a63-6876-4763-9bf0-07241c71da35||Sequence: R016 ve11c/master r/e634e98; Dec 19 2017 11:00:25 by eja",
  "dcmmeta_affine": [
    [-1.996500849723816, 0.11302001029253006, -0.03479837253689766, 97.04191589355469],
    [0.11800531297922134, 1.8657714128494263, -0.7106137871742249, -77.63736724853516],
    [0.007693886291235685, 0.7114236950874329, 1.8691755533218384, -62.712059020996094],
    [0.0, 0.0, 0.0, 1.0]
],
  "dcmmeta_reorient_transform": [
    [0.0, -1.0, 0.0, 103.0],
    [1.0, 0.0, 0.0, 0.0],
    [0.0, 0.0, 1.0, 0.0],
    [0.0, 0.0, 0.0, 1.0]
],
  "dcmmeta_shape": [104, 104, 60, 464],
  "dcmmeta_slice_dim": 2,
  "dcmmeta_version": 0.6,
  "global": {
    "const": {
      "AcquisitionMatrix": [104, 0, 0, 104],
      "AngioFlag": "N",
      "BitsAllocated": 16,
      "BitsStored": 16,
      "BodyPartExamined": "BRAIN",
      "Columns": 832,
      "EchoNumbers": 1,
      "EchoTime": 37.0,
      "EchoTrainLength": 104,
      "FlipAngle": 52.0,
      "HighBit": 15,
      "ImageOrientationPatient": [0.99825041331916, -0.0590026553349, 0.00384694314485, 0.05651000495084, 0.9328856851791, -0.355711846483],
      "ImagePositionPatient": [-876.54856468147, -750.72392866363, 266.72223213047],
      "ImageType": [
        "ORIGINAL",
        "PRIMARY",
        "M",
        "MB",
        "ND",
        "MOSAIC"
],
      "ImagedNucleus": "1H",
      "ImagingFrequency": 123.259381,
      "InPlanePhaseEncodingDirection": "COL",
      "MRAcquisitionType": "2D",
      "MagneticFieldStrength": 3.0,
      "Manufacturer": "SIEMENS",
      "ManufacturerModelName": "Prisma_fit",
      "Modality": "MR",
      "NumberOfAverages": 1.0,
      "NumberOfPhaseEncodingSteps": 104,
      "PercentPhaseFieldOfView": 100.0,
      "PercentSampling": 100.0,
      "PerformedProcedureStepStartTime": "141906.254000",
      "PhotometricInterpretation": "MONOCHROME2",
      "PixelBandwidth": 2290.0,
      "PixelRepresentation": 0,
      "PixelSpacing": [2.0, 2.0],
      "ProtocolName": "func_task-friends-s03e20b",
      "RepetitionTime": 1490.0,
      "Rows": 832,
      "SAR": 0.03087406081713,
      "SamplesPerPixel": 1,
      "ScanOptions": "FS",
      "ScanningSequence": "EP",
      "SequenceName": "epfid2d1_104",
      "SequenceVariant": [
        "SK",
        "SS"
],
      "SeriesDescription": "func_task-friends-s03e20b",
      "SeriesNumber": 15,
      "SeriesTime": "152502.210000",
      "SliceLocation": -32.713280365035,
      "SliceThickness": 2.0,
      "SmallestImagePixelValue": 0,
      "SoftwareVersions": "syngo MR E11",
      "SpacingBetweenSlices": 2.000000042334,
      "SpecificCharacterSet": "ISO_IR 100",
      "StudyID": "1",
      "StudyTime": "141906.082000",
      "TransmitCoilName": "Body",
      "VariableFlipAngleFlag": "N",
      "WindowCenterWidthExplanation": "Algo1",
      "dBdt": 0.0},
    "slices": {}
  },
  "time": {
    "samples": {
      "AcquisitionNumber": [1, 2, 3, 4, 5, 6, 7, 8, 9, 10, 11, 12, 13, 14, 15, 16, 17, 18, 19, 20, 21, 22, 23, 24, 25, 26, 27, 28, 29, 30, 31, 32, 33, 34, 35, 36, 37, 38, 39, 40, 41, 42, 43, 44, 45, 46, 47, 48, 49, 50, 51, 52, 53, 54, 55, 56, 57, 58, 59, 60, 61, 62, 63, 64, 65, 66, 67, 68, 69, 70, 71, 72, 73, 74, 75, 76, 77, 78, 79, 80, 81, 82, 83, 84, 85, 86, 87, 88, 89, 90, 91, 92, 93, 94, 95, 96, 97, 98, 99, 100, 101, 102, 103, 104, 105, 106, 107, 108, 109, 110, 111, 112, 113, 114, 115, 116, 117, 118, 119, 120, 121, 122, 123, 124, 125, 126, 127, 128, 129, 130, 131, 132, 133, 134, 135, 136, 137, 138, 139, 140, 141, 142, 143, 144, 145, 146, 147, 148, 149, 150, 151, 152, 153, 154, 155, 156, 157, 158, 159, 160, 161, 162, 163, 164, 165, 166, 167, 168, 169, 170, 171, 172, 173, 174, 175, 176, 177, 178, 179, 180, 181, 182, 183, 184, 185, 186, 187, 188, 189, 190, 191, 192, 193, 194, 195, 196, 197, 198, 199, 200, 201, 202, 203, 204, 205, 206, 207, 208, 209, 210, 211, 212, 213, 214, 215, 216, 217, 218, 219, 220, 221, 222, 223, 224, 225, 226, 227, 228, 229, 230, 231, 232, 233, 234, 235, 236, 237, 238, 239, 240, 241, 242, 243, 244, 245, 246, 247, 248, 249, 250, 251, 252, 253, 254, 255, 256, 257, 258, 259, 260, 261, 262, 263, 264, 265, 266, 267, 268, 269, 270, 271, 272, 273, 274, 275, 276, 277, 278, 279, 280, 281, 282, 283, 284, 285, 286, 287, 288, 289, 290, 291, 292, 293, 294, 295, 296, 297, 298, 299, 300, 301, 302, 303, 304, 305, 306, 307, 308, 309, 310, 311, 312, 313, 314, 315, 316, 317, 318, 319, 320, 321, 322, 323, 324, 325, 326, 327, 328, 329, 330, 331, 332, 333, 334, 335, 336, 337, 338, 339, 340, 341, 342, 343, 344, 345, 346, 347, 348, 349, 350, 351, 352, 353, 354, 355, 356, 357, 358, 359, 360, 361, 362, 363, 364, 365, 366, 367, 368, 369, 370, 371, 372, 373, 374, 375, 376, 377, 378, 379, 380, 381, 382, 383, 384, 385, 386, 387, 388, 389, 390, 391, 392, 393, 394, 395, 396, 397, 398, 399, 400, 401, 402, 403, 404, 405, 406, 407, 408, 409, 410, 411, 412, 413, 414, 415, 416, 417, 418, 419, 420, 421, 422, 423, 424, 425, 426, 427, 428, 429, 430, 431, 432, 433, 434, 435, 436, 437, 438, 439, 440, 441, 442, 443, 444, 445, 446, 447, 448, 449, 450, 451, 452, 453, 454, 455, 456, 457, 458, 459, 460, 461, 462, 463, 464],
      "AcquisitionTime": ["152334.470000", "152335.960000", "152337.450000", "152338.940000", "152340.430000", "152341.920000", "152343.410000", "152344.900000", "152346.390000", "152347.880000", "152349.370000", "152350.860000", "152352.350000", "152353.840000", "152355.330000", "152356.820000", "152358.310000", "152359.800000", "152401.290000", "152402.780000", "152404.270000", "152405.760000", "152407.250000", "152408.740000", "152410.230000", "152411.720000", "152413.210000", "152414.700000", "152416.190000", "152417.680000", "152419.170000", "152420.660000", "152422.150000", "152423.640000", "152425.130000", "152426.620000", "152428.110000", "152429.600000", "152431.090000", "152432.580000", "152434.070000", "152435.560000", "152437.050000", "152438.540000", "152440.030000", "152441.520000", "152443.010000", "152444.500000", "152445.990000", "152447.480000", "152448.970000", "152450.460000", "152451.950000", "152453.440000", "152454.930000", "152456.420000", "152457.910000", "152459.400000", "152500.890000", "152502.380000", "152503.870000", "152505.360000", "152506.850000", "152508.340000", "152509.830000", "152511.320000", "152512.810000", "152514.300000", "152515.790000", "152517.280000", "152518.770000", "152520.260000", "152521.750000", "152523.240000", "152524.730000", "152526.220000", "152527.710000", "152529.200000", "152530.690000", "152532.180000", "152533.670000", "152535.160000", "152536.650000", "152538.140000", "152539.630000", "152541.120000", "152542.610000", "152544.100000", "152545.590000", "152547.080000", "152548.570000", "152550.060000", "152551.550000", "152553.040000", "152554.530000", "152556.020000", "152557.510000", "152559.000000", "152600.490000", "152601.980000", "152603.470000", "152604.960000", "152606.450000", "152607.940000", "152609.430000", "152610.920000", "152612.410000", "152613.900000", "152615.390000", "152616.880000", "152618.370000", "152619.860000", "152621.350000", "152622.840000", "152624.330000", "152625.820000", "152627.310000", "152628.800000", "152630.290000", "152631.780000", "152633.270000", "152634.760000", "152636.250000", "152637.740000", "152639.230000", "152640.720000", "152642.210000", "152643.700000", "152645.190000", "152646.680000", "152648.170000", "152649.660000", "152651.150000", "152652.640000", "152654.130000", "152655.620000", "152657.110000", "152658.600000", "152700.090000", "152701.580000", "152703.070000", "152704.560000", "152706.050000", "152707.540000", "152709.030000", "152710.520000", "152712.010000", "152713.500000", "152714.990000", "152716.480000", "152717.970000", "152719.460000", "152720.950000", "152722.440000", "152723.930000", "152725.420000", "152726.910000", "152728.400000", "152729.890000", "152731.380000", "152732.870000", "152734.360000", "152735.850000", "152737.340000", "152738.830000", "152740.320000", "152741.810000", "152743.300000", "152744.790000", "152746.280000", "152747.770000", "152749.260000", "152750.750000", "152752.240000", "152753.730000", "152755.220000", "152756.710000", "152758.200000", "152759.690000", "152801.180000", "152802.670000", "152804.160000", "152805.650000", "152807.140000", "152808.630000", "152810.120000", "152811.610000", "152813.100000", "152814.590000", "152816.080000", "152817.570000", "152819.060000", "152820.550000", "152822.040000", "152823.530000", "152825.020000", "152826.510000", "152828.000000", "152829.490000", "152830.980000", "152832.470000", "152833.960000", "152835.450000", "152836.940000", "152838.430000", "152839.920000", "152841.410000", "152842.900000", "152844.390000", "152845.880000", "152847.370000", "152848.860000", "152850.350000", "152851.840000", "152853.330000", "152854.820000", "152856.310000", "152857.800000", "152859.290000", "152900.780000", "152902.270000", "152903.760000", "152905.250000", "152906.740000", "152908.230000", "152909.720000", "152911.210000", "152912.700000", "152914.190000", "152915.680000", "152917.170000", "152918.660000", "152920.150000", "152921.640000", "152923.130000", "152924.620000", "152926.110000", "152927.600000", "152929.090000", "152930.580000", "152932.070000", "152933.560000", "152935.050000", "152936.540000", "152938.030000", "152939.520000", "152941.010000", "152942.500000", "152943.990000", "152945.480000", "152946.970000", "152948.460000", "152949.950000", "152951.440000", "152952.930000", "152954.420000", "152955.910000", "152957.400000", "152958.890000", "153000.380000", "153001.870000", "153003.360000", "153004.850000", "153006.340000", "153007.830000", "153009.320000", "153010.810000", "153012.300000", "153013.790000", "153015.280000", "153016.770000", "153018.260000", "153019.750000", "153021.240000", "153022.730000", "153024.220000", "153025.710000", "153027.200000", "153028.690000", "153030.180000", "153031.670000", "153033.160000", "153034.650000", "153036.140000", "153037.630000", "153039.120000", "153040.610000", "153042.100000", "153043.590000", "153045.080000", "153046.570000", "153048.060000", "153049.550000", "153051.040000", "153052.530000", "153054.020000", "153055.510000", "153057.000000", "153058.490000", "153059.980000", "153101.470000", "153102.960000", "153104.450000", "153105.940000", "153107.430000", "153108.920000", "153110.410000", "153111.900000", "153113.390000", "153114.880000", "153116.370000", "153117.860000", "153119.350000", "153120.840000", "153122.330000", "153123.820000", "153125.310000", "153126.800000", "153128.290000", "153129.780000", "153131.270000", "153132.760000", "153134.250000", "153135.740000", "153137.230000", "153138.720000", "153140.210000", "153141.700000", "153143.190000", "153144.680000", "153146.170000", "153147.660000", "153149.150000", "153150.640000", "153152.130000", "153153.620000", "153155.110000", "153156.600000", "153158.090000", "153159.580000", "153201.070000", "153202.560000", "153204.050000", "153205.540000", "153207.030000", "153208.520000", "153210.010000", "153211.500000", "153212.990000", "153214.480000", "153215.970000", "153217.460000", "153218.950000", "153220.440000", "153221.930000", "153223.420000", "153224.910000", "153226.400000", "153227.890000", "153229.380000", "153230.870000", "153232.360000", "153233.850000", "153235.340000", "153236.830000", "153238.320000", "153239.810000", "153241.300000", "153242.790000", "153244.280000", "153245.770000", "153247.260000", "153248.750000", "153250.240000", "153251.730000", "153253.220000", "153254.710000", "153256.200000", "153257.690000", "153259.180000", "153300.670000", "153302.160000", "153303.650000", "153305.140000", "153306.630000", "153308.120000", "153309.610000", "153311.100000", "153312.590000", "153314.080000", "153315.570000", "153317.060000", "153318.550000", "153320.040000", "153321.530000", "153323.020000", "153324.510000", "153326.000000", "153327.490000", "153328.980000", "153330.470000", "153331.960000", "153333.450000", "153334.940000", "153336.430000", "153337.920000", "153339.410000", "153340.900000", "153342.390000", "153343.880000", "153345.370000", "153346.860000", "153348.350000", "153349.840000", "153351.330000", "153352.820000", "153354.310000", "153355.800000", "153357.290000", "153358.780000", "153400.270000", "153401.760000", "153403.250000", "153404.740000", "153406.230000", "153407.720000", "153409.210000", "153410.700000", "153412.190000", "153413.680000", "153415.170000", "153416.660000", "153418.150000", "153419.640000", "153421.130000", "153422.620000", "153424.110000", "153425.600000", "153427.090000", "153428.580000", "153430.070000", "153431.560000", "153433.050000", "153434.540000", "153436.030000", "153437.520000", "153439.010000", "153440.500000", "153441.990000", "153443.480000", "153444.970000", "153446.460000", "153447.950000", "153449.440000", "153450.930000", "153452.420000", "153453.910000", "153455.400000", "153456.890000", "153458.380000", "153459.870000", "153501.360000", "153502.850000", "153504.340000"],
      "ContentTime": ["152502.213000", "152502.216000", "152502.219000", "152502.222000", "152502.224000", "152502.227000", "152502.230000", "152502.233000", "152502.236000", "152502.239000", "152502.242000", "152502.245000", "152502.247000", "152502.251000", "152502.261000", "152502.264000", "152502.267000", "152502.270000", "152502.272000", "152502.275000", "152502.278000", "152502.281000", "152502.284000", "152502.287000", "152502.290000", "152502.293000", "152502.296000", "152502.299000", "152502.302000", "152502.305000", "152502.307000", "152502.310000", "152522.181000", "152522.184000", "152522.187000", "152522.189000", "152522.192000", "152522.195000", "152522.198000", "152522.201000", "152522.204000", "152522.207000", "152522.210000", "152522.212000", "152522.215000", "152522.218000", "152522.222000", "152522.224000", "152522.227000", "152522.230000", "152522.233000", "152522.236000", "152542.181000", "152542.184000", "152542.187000", "152542.189000", "152542.192000", "152542.195000", "152542.198000", "152542.201000", "152542.204000", "152542.206000", "152542.209000", "152542.212000", "152542.215000", "152542.218000", "152542.232000", "152542.235000", "152542.238000", "152542.241000", "152542.244000", "152542.247000", "152542.250000", "152602.181000", "152602.184000", "152602.187000", "152602.190000", "152602.192000", "152602.195000", "152602.198000", "152602.201000", "152602.204000", "152602.207000", "152602.210000", "152602.212000", "152602.215000", "152602.218000", "152602.221000", "152602.224000", "152602.227000", "152602.230000", "152602.232000", "152602.235000", "152642.183000", "152642.186000", "152642.189000", "152642.192000", "152642.195000", "152642.198000", "152642.201000", "152642.204000", "152642.206000", "152642.210000", "152642.212000", "152642.215000", "152642.218000", "152642.221000", "152642.224000", "152642.227000", "152642.230000", "152642.233000", "152642.236000", "152642.239000", "152642.242000", "152642.245000", "152642.249000", "152642.252000", "152642.254000", "152642.257000", "152642.260000", "152642.263000", "152642.266000", "152642.269000", "152642.272000", "152642.275000", "152722.181000", "152722.184000", "152722.187000", "152722.190000", "152722.192000", "152722.195000", "152722.198000", "152722.201000", "152722.204000", "152722.207000", "152722.210000", "152722.213000", "152722.215000", "152722.218000", "152722.221000", "152722.224000", "152722.227000", "152722.230000", "152722.233000", "152722.236000", "152722.238000", "152722.241000", "152722.244000", "152722.247000", "152722.250000", "152722.253000", "152722.255000", "152802.181000", "152802.184000", "152802.187000", "152802.190000", "152802.192000", "152802.195000", "152802.198000", "152802.201000", "152802.204000", "152802.207000", "152802.210000", "152802.213000", "152802.216000", "152802.218000", "152802.222000", "152802.224000", "152802.227000", "152802.230000", "152802.233000", "152802.236000", "152802.239000", "152802.242000", "152802.245000", "152802.248000", "152802.251000", "152802.254000", "152802.257000", "152842.182000", "152842.185000", "152842.188000", "152842.191000", "152842.194000", "152842.197000", "152842.199000", "152842.202000", "152842.205000", "152842.208000", "152842.211000", "152842.214000", "152842.217000", "152842.220000", "152842.222000", "152842.225000", "152842.228000", "152842.231000", "152842.234000", "152842.237000", "152842.240000", "152842.243000", "152842.246000", "152842.248000", "152842.251000", "152842.254000", "152842.257000", "152922.182000", "152922.185000", "152922.188000", "152922.191000", "152922.193000", "152922.196000", "152922.199000", "152922.202000", "152922.205000", "152922.208000", "152922.211000", "152922.214000", "152922.217000", "152922.220000", "152922.223000", "152922.226000", "152922.229000", "152922.232000", "152922.235000", "152922.237000", "152922.240000", "152922.243000", "152922.246000", "152922.249000", "152922.252000", "152922.255000", "153002.181000", "153002.184000", "153002.187000", "153002.190000", "153002.193000", "153002.195000", "153002.198000", "153002.201000", "153002.204000", "153002.207000", "153002.210000", "153002.213000", "153002.216000", "153002.218000", "153002.221000", "153002.224000", "153002.227000", "153002.230000", "153002.233000", "153002.236000", "153002.239000", "153002.241000", "153002.260000", "153002.262000", "153002.265000", "153002.268000", "153002.271000", "153042.181000", "153042.184000", "153042.187000", "153042.191000", "153042.194000", "153042.197000", "153042.200000", "153042.203000", "153042.205000", "153042.208000", "153042.211000", "153042.214000", "153042.217000", "153042.220000", "153042.223000", "153042.226000", "153042.228000", "153042.231000", "153042.234000", "153042.237000", "153042.240000", "153042.243000", "153042.246000", "153042.249000", "153042.251000", "153042.254000", "153042.257000", "153122.182000", "153122.185000", "153122.188000", "153122.191000", "153122.194000", "153122.197000", "153122.200000", "153122.202000", "153122.206000", "153122.208000", "153122.211000", "153122.214000", "153122.217000", "153122.220000", "153122.223000", "153122.226000", "153122.229000", "153122.232000", "153122.234000", "153122.237000", "153122.240000", "153122.243000", "153122.246000", "153122.249000", "153122.252000", "153122.255000", "153122.257000", "153142.181000", "153142.184000", "153142.187000", "153142.190000", "153142.193000", "153142.195000", "153142.198000", "153142.201000", "153142.204000", "153142.207000", "153142.210000", "153142.213000", "153142.216000", "153222.181000", "153222.184000", "153222.187000", "153222.189000", "153222.192000", "153222.195000", "153222.198000", "153222.201000", "153222.204000", "153222.207000", "153222.210000", "153222.213000", "153222.216000", "153222.219000", "153222.222000", "153222.224000", "153222.227000", "153222.230000", "153222.233000", "153222.236000", "153222.239000", "153222.242000", "153222.245000", "153222.248000", "153222.251000", "153222.253000", "153222.256000", "153302.181000", "153302.184000", "153302.187000", "153302.190000", "153302.193000", "153302.195000", "153302.198000", "153302.201000", "153302.204000", "153302.207000", "153302.210000", "153302.213000", "153302.216000", "153302.218000", "153302.221000", "153302.224000", "153302.227000", "153302.230000", "153302.233000", "153302.236000", "153302.239000", "153302.242000", "153302.245000", "153302.248000", "153302.251000", "153302.254000", "153302.256000", "153342.182000", "153342.185000", "153342.188000", "153342.191000", "153342.194000", "153342.196000", "153342.199000", "153342.202000", "153342.205000", "153342.208000", "153342.211000", "153342.214000", "153342.217000", "153342.220000", "153342.223000", "153342.225000", "153342.228000", "153342.231000", "153342.246000", "153342.249000", "153342.252000", "153342.255000", "153342.258000", "153342.261000", "153342.264000", "153342.267000", "153342.270000", "153422.181000", "153422.189000", "153422.192000", "153422.195000", "153422.198000", "153422.201000", "153422.203000", "153422.206000", "153422.209000", "153422.212000", "153422.215000", "153422.218000", "153422.221000", "153422.225000", "153422.227000", "153422.230000", "153422.233000", "153422.236000", "153422.239000", "153422.242000", "153422.245000", "153422.248000", "153422.251000", "153422.254000", "153422.257000", "153422.261000", "153422.263000", "153502.181000", "153502.184000", "153502.187000", "153502.190000", "153502.205000", "153502.208000", "153502.211000", "153502.214000", "153502.217000", "153502.220000", "153502.223000", "153502.225000", "153502.228000", "153502.231000", "153502.234000", "153502.237000", "153502.240000", "153502.243000", "153502.246000", "153502.248000", "153502.252000", "153502.254000", "153502.257000", "153502.260000", "153502.263000", "153502.266000", "153502.269000", "153506.531000", "153506.534000", "153506.537000"],
