{
  "AcquisitionMatrixPE": 104,
  "AcquisitionNumber": 1,
  "AcquisitionTime": "10:29:6.635000",
  "BandwidthPerPixelPhaseEncode": 17.17,
  "BaseResolution": 104,
  "BodyPartExamined": "BRAIN",
  "CoilString": "HC1-7;NC1_2",
  "ConsistencyInfo": "N4_VE11C_LATEST_20160120",
  "ConversionSoftware": "dcm2niix",
  "ConversionSoftwareVersion": "v1.0.20190902",
  "DerivedVendorReportedEchoSpacing": 0.000560011,
  "DeviceSerialNumber": "167006",
  "DwellTime": 2.1e-06,
  "EchoTime": 0.037,
  "EchoTrainLength": 104,
  "EffectiveEchoSpacing": 0.000560011,
  "FlipAngle": 52,
  "ImageComments": "Unaliased_MB4_PE3_LB",
  "ImageOrientationPatientDICOM": [0.999554, -0.0104614, -0.0279641, 0.00314027, 0.968247, -0.249975],
  "ImageType": [
    "ORIGINAL",
    "PRIMARY",
    "M",
    "MB",
    "ND",
    "MOSAIC"
],
  "ImagingFrequency": 123.259,
  "InPlanePhaseEncodingDirectionDICOM": "COL",
  "InstitutionAddress": "Chemin_Queen-Mary_4565_Montreal_District_CA_H3W_1W5",
  "InstitutionName": "IUGM",
  "InstitutionalDepartmentName": "Department",
  "MRAcquisitionType": "2D",
  "MagneticFieldStrength": 3,
  "Manufacturer": "Siemens",
  "ManufacturersModelName": "Prisma_fit",
  "Modality": "MR",
  "MultibandAccelerationFactor": 4,
  "PartialFourier": 1,
  "PatientPosition": "HFS",
  "PercentPhaseFOV": 100,
  "PhaseEncodingDirection": "j",
  "PhaseEncodingSteps": 104,
  "PhaseResolution": 1,
  "PixelBandwidth": 2290,
  "ProcedureStepDescription": "video_friends",
  "ProtocolName": "func_task-friends-s03e14b",
  "PulseSequenceDetails": "%CustomerSeq%_cmrr_mbep2d_bold",
  "ReceiveCoilActiveElements": "HC1-7;NC1,2",
  "ReceiveCoilName": "HeadNeck_64",
  "ReconMatrixPE": 104,
  "RepetitionTime": 1.49,
  "SAR": 0.0280156,
  "ScanOptions": "FS",
  "ScanningSequence": "EP",
  "SequenceName": "epfid2d1_104",
  "SequenceVariant": "SK_SS",
  "SeriesDescription": "func_task-friends-s03e14b",
  "SeriesNumber": 11,
  "ShimSetting": [624, -7232, -8819, 718, 6, -45, 138, -3],
  "SliceThickness": 2,
  "SliceTiming": [0, 0.785, 0.0975, 0.8825, 0.195, 0.98, 0.295, 1.0775, 0.3925, 1.175, 0.49, 1.275, 0.5875, 1.3725, 0.685, 0, 0.785, 0.0975, 0.8825, 0.195, 0.98, 0.295, 1.0775, 0.3925, 1.175, 0.49, 1.275, 0.5875, 1.3725, 0.685, 0, 0.785, 0.0975, 0.8825, 0.195, 0.98, 0.295, 1.0775, 0.3925, 1.175, 0.49, 1.275, 0.5875, 1.3725, 0.685, 0, 0.785, 0.0975, 0.8825, 0.195, 0.98, 0.295, 1.0775, 0.3925, 1.175, 0.49, 1.275, 0.5875, 1.3725, 0.685],
  "SoftwareVersions": "syngo_MR_E11",
  "SpacingBetweenSlices": 2,
  "StationName": "MRC35049",
  "TaskName": "s03e14b",
  "TotalReadoutTime": 0.0576811,
  "TxRefAmp": 206.72,
  "WipMemBlock": "e0b754a9-178c-4eef-b43a-4599577a8b8b||Sequence: R016 ve11c/master r/e634e98; Dec 19 2017 11:00:25 by eja",
  "dcmmeta_affine": [
    [-1.9991083145141602, 0.006280537694692612, -0.059382446110248566, 105.6681900024414],
    [0.02092275395989418, 1.93649423122406, -0.4995521306991577, -85.47428131103516],
    [-0.05592815577983856, 0.499950647354126, 1.9356966018676758, -62.64717483520508],
    [0.0, 0.0, 0.0, 1.0]
],
  "dcmmeta_reorient_transform": [
    [0.0, -1.0, 0.0, 103.0],
    [1.0, 0.0, 0.0, 0.0],
    [0.0, 0.0, 1.0, 0.0],
    [0.0, 0.0, 0.0, 1.0]
],
  "dcmmeta_shape": [104, 104, 60, 458],
  "dcmmeta_slice_dim": 2,
  "dcmmeta_version": 0.6,
  "global": {
    "const": {
      "AcquisitionMatrix": [104, 0, 0, 104],
      "AngioFlag": "N",
      "BitsAllocated": 16,
      "BitsStored": 16,
      "BodyPartExamined": "BRAIN",
      "Columns": 832,
      "EchoNumbers": 1,
      "EchoTime": 37.0,
      "EchoTrainLength": 104,
      "FlipAngle": 52.0,
      "HighBit": 15,
      "ImageOrientationPatient": [0.99955418561783, -0.0104613769883, -0.0279640770522, 0.0031402688478, 0.9682471152238, -0.2499753239269],
      "ImagePositionPatient": [-836.27664887213, -811.25263884448, 191.18762491905],
      "ImageType": [
        "ORIGINAL",
        "PRIMARY",
        "M",
        "MB",
        "ND",
        "MOSAIC"
],
      "ImagedNucleus": "1H",
      "ImagingFrequency": 123.258868,
      "InPlanePhaseEncodingDirection": "COL",
      "MRAcquisitionType": "2D",
      "MagneticFieldStrength": 3.0,
      "Manufacturer": "SIEMENS",
      "ManufacturerModelName": "Prisma_fit",
      "Modality": "MR",
      "NumberOfAverages": 1.0,
      "NumberOfPhaseEncodingSteps": 104,
      "PercentPhaseFieldOfView": 100.0,
      "PercentSampling": 100.0,
      "PerformedProcedureStepStartTime": "094853.194000",
      "PhotometricInterpretation": "MONOCHROME2",
      "PixelBandwidth": 2290.0,
      "PixelRepresentation": 0,
      "PixelSpacing": [2.0, 2.0],
      "ProtocolName": "func_task-friends-s03e14b",
      "RepetitionTime": 1490.0,
      "Rows": 832,
      "SAR": 0.02801561407621,
      "SamplesPerPixel": 1,
      "ScanOptions": "FS",
      "ScanningSequence": "EP",
      "SequenceName": "epfid2d1_104",
      "SequenceVariant": [
        "SK",
        "SS"
],
      "SeriesDescription": "func_task-friends-s03e14b",
      "SeriesNumber": 11,
      "SeriesTime": "103040.635000",
      "SliceLocation": -42.420950321581,
      "SliceThickness": 2.0,
      "SmallestImagePixelValue": 0,
      "SoftwareVersions": "syngo MR E11",
      "SpacingBetweenSlices": 1.9999999410673,
      "SpecificCharacterSet": "ISO_IR 100",
      "StudyID": "1",
      "StudyTime": "094853.144000",
      "TransmitCoilName": "Body",
      "VariableFlipAngleFlag": "N",
      "WindowCenterWidthExplanation": "Algo1",
      "dBdt": 0.0},
    "slices": {}
  },
  "time": {
    "samples": {
      "AcquisitionNumber": [1, 2, 3, 4, 5, 6, 7, 8, 9, 10, 11, 12, 13, 14, 15, 16, 17, 18, 19, 20, 21, 22, 23, 24, 25, 26, 27, 28, 29, 30, 31, 32, 33, 34, 35, 36, 37, 38, 39, 40, 41, 42, 43, 44, 45, 46, 47, 48, 49, 50, 51, 52, 53, 54, 55, 56, 57, 58, 59, 60, 61, 62, 63, 64, 65, 66, 67, 68, 69, 70, 71, 72, 73, 74, 75, 76, 77, 78, 79, 80, 81, 82, 83, 84, 85, 86, 87, 88, 89, 90, 91, 92, 93, 94, 95, 96, 97, 98, 99, 100, 101, 102, 103, 104, 105, 106, 107, 108, 109, 110, 111, 112, 113, 114, 115, 116, 117, 118, 119, 120, 121, 122, 123, 124, 125, 126, 127, 128, 129, 130, 131, 132, 133, 134, 135, 136, 137, 138, 139, 140, 141, 142, 143, 144, 145, 146, 147, 148, 149, 150, 151, 152, 153, 154, 155, 156, 157, 158, 159, 160, 161, 162, 163, 164, 165, 166, 167, 168, 169, 170, 171, 172, 173, 174, 175, 176, 177, 178, 179, 180, 181, 182, 183, 184, 185, 186, 187, 188, 189, 190, 191, 192, 193, 194, 195, 196, 197, 198, 199, 200, 201, 202, 203, 204, 205, 206, 207, 208, 209, 210, 211, 212, 213, 214, 215, 216, 217, 218, 219, 220, 221, 222, 223, 224, 225, 226, 227, 228, 229, 230, 231, 232, 233, 234, 235, 236, 237, 238, 239, 240, 241, 242, 243, 244, 245, 246, 247, 248, 249, 250, 251, 252, 253, 254, 255, 256, 257, 258, 259, 260, 261, 262, 263, 264, 265, 266, 267, 268, 269, 270, 271, 272, 273, 274, 275, 276, 277, 278, 279, 280, 281, 282, 283, 284, 285, 286, 287, 288, 289, 290, 291, 292, 293, 294, 295, 296, 297, 298, 299, 300, 301, 302, 303, 304, 305, 306, 307, 308, 309, 310, 311, 312, 313, 314, 315, 316, 317, 318, 319, 320, 321, 322, 323, 324, 325, 326, 327, 328, 329, 330, 331, 332, 333, 334, 335, 336, 337, 338, 339, 340, 341, 342, 343, 344, 345, 346, 347, 348, 349, 350, 351, 352, 353, 354, 355, 356, 357, 358, 359, 360, 361, 362, 363, 364, 365, 366, 367, 368, 369, 370, 371, 372, 373, 374, 375, 376, 377, 378, 379, 380, 381, 382, 383, 384, 385, 386, 387, 388, 389, 390, 391, 392, 393, 394, 395, 396, 397, 398, 399, 400, 401, 402, 403, 404, 405, 406, 407, 408, 409, 410, 411, 412, 413, 414, 415, 416, 417, 418, 419, 420, 421, 422, 423, 424, 425, 426, 427, 428, 429, 430, 431, 432, 433, 434, 435, 436, 437, 438, 439, 440, 441, 442, 443, 444, 445, 446, 447, 448, 449, 450, 451, 452, 453, 454, 455, 456, 457, 458],
      "AcquisitionTime": ["102906.635000", "102908.125000", "102909.615000", "102911.105000", "102912.595000", "102914.085000", "102915.575000", "102917.065000", "102918.555000", "102920.045000", "102921.535000", "102923.025000", "102924.515000", "102926.005000", "102927.495000", "102928.985000", "102930.475000", "102931.965000", "102933.455000", "102934.945000", "102936.435000", "102937.925000", "102939.415000", "102940.905000", "102942.395000", "102943.885000", "102945.375000", "102946.865000", "102948.355000", "102949.845000", "102951.335000", "102952.825000", "102954.315000", "102955.805000", "102957.295000", "102958.785000", "103000.275000", "103001.765000", "103003.255000", "103004.745000", "103006.235000", "103007.725000", "103009.215000", "103010.705000", "103012.195000", "103013.685000", "103015.175000", "103016.665000", "103018.155000", "103019.645000", "103021.135000", "103022.625000", "103024.115000", "103025.605000", "103027.095000", "103028.585000", "103030.075000", "103031.565000", "103033.055000", "103034.545000", "103036.035000", "103037.525000", "103039.015000", "103040.505000", "103041.995000", "103043.485000", "103044.975000", "103046.465000", "103047.955000", "103049.445000", "103050.935000", "103052.425000", "103053.915000", "103055.405000", "103056.895000", "103058.385000", "103059.875000", "103101.365000", "103102.855000", "103104.345000", "103105.835000", "103107.325000", "103108.815000", "103110.305000", "103111.795000", "103113.285000", "103114.775000", "103116.265000", "103117.755000", "103119.245000", "103120.735000", "103122.225000", "103123.715000", "103125.205000", "103126.695000", "103128.185000", "103129.675000", "103131.165000", "103132.655000", "103134.145000", "103135.635000", "103137.125000", "103138.615000", "103140.105000", "103141.595000", "103143.085000", "103144.575000", "103146.065000", "103147.555000", "103149.045000", "103150.535000", "103152.025000", "103153.515000", "103155.005000", "103156.495000", "103157.985000", "103159.475000", "103200.965000", "103202.455000", "103203.945000", "103205.435000", "103206.925000", "103208.415000", "103209.905000", "103211.395000", "103212.885000", "103214.375000", "103215.865000", "103217.355000", "103218.845000", "103220.335000", "103221.825000", "103223.315000", "103224.805000", "103226.295000", "103227.785000", "103229.275000", "103230.765000", "103232.255000", "103233.745000", "103235.235000", "103236.725000", "103238.215000", "103239.705000", "103241.195000", "103242.685000", "103244.175000", "103245.665000", "103247.155000", "103248.645000", "103250.135000", "103251.625000", "103253.115000", "103254.605000", "103256.095000", "103257.585000", "103259.075000", "103300.565000", "103302.055000", "103303.545000", "103305.035000", "103306.525000", "103308.015000", "103309.505000", "103310.995000", "103312.485000", "103313.975000", "103315.465000", "103316.955000", "103318.445000", "103319.935000", "103321.425000", "103322.915000", "103324.405000", "103325.895000", "103327.385000", "103328.875000", "103330.365000", "103331.855000", "103333.345000", "103334.835000", "103336.325000", "103337.815000", "103339.305000", "103340.795000", "103342.285000", "103343.775000", "103345.265000", "103346.755000", "103348.245000", "103349.735000", "103351.225000", "103352.715000", "103354.205000", "103355.695000", "103357.185000", "103358.675000", "103400.165000", "103401.655000", "103403.145000", "103404.635000", "103406.125000", "103407.615000", "103409.105000", "103410.595000", "103412.085000", "103413.575000", "103415.065000", "103416.555000", "103418.045000", "103419.535000", "103421.025000", "103422.515000", "103424.005000", "103425.495000", "103426.985000", "103428.475000", "103429.965000", "103431.455000", "103432.945000", "103434.435000", "103435.925000", "103437.415000", "103438.905000", "103440.395000", "103441.885000", "103443.375000", "103444.865000", "103446.355000", "103447.845000", "103449.335000", "103450.825000", "103452.315000", "103453.805000", "103455.295000", "103456.785000", "103458.275000", "103459.765000", "103501.255000", "103502.745000", "103504.235000", "103505.725000", "103507.215000", "103508.705000", "103510.195000", "103511.685000", "103513.175000", "103514.665000", "103516.155000", "103517.645000", "103519.135000", "103520.625000", "103522.115000", "103523.605000", "103525.095000", "103526.585000", "103528.075000", "103529.565000", "103531.055000", "103532.545000", "103534.035000", "103535.525000", "103537.015000", "103538.505000", "103539.995000", "103541.485000", "103542.975000", "103544.465000", "103545.955000", "103547.445000", "103548.935000", "103550.425000", "103551.915000", "103553.405000", "103554.895000", "103556.385000", "103557.875000", "103559.365000", "103600.855000", "103602.345000", "103603.835000", "103605.325000", "103606.815000", "103608.305000", "103609.795000", "103611.285000", "103612.775000", "103614.265000", "103615.755000", "103617.245000", "103618.735000", "103620.225000", "103621.715000", "103623.205000", "103624.695000", "103626.185000", "103627.675000", "103629.165000", "103630.655000", "103632.145000", "103633.635000", "103635.125000", "103636.615000", "103638.105000", "103639.595000", "103641.085000", "103642.575000", "103644.065000", "103645.555000", "103647.045000", "103648.535000", "103650.025000", "103651.515000", "103653.005000", "103654.495000", "103655.985000", "103657.475000", "103658.965000", "103700.455000", "103701.945000", "103703.435000", "103704.925000", "103706.415000", "103707.905000", "103709.395000", "103710.885000", "103712.375000", "103713.865000", "103715.355000", "103716.845000", "103718.335000", "103719.825000", "103721.315000", "103722.805000", "103724.295000", "103725.785000", "103727.275000", "103728.765000", "103730.255000", "103731.745000", "103733.235000", "103734.725000", "103736.215000", "103737.705000", "103739.195000", "103740.685000", "103742.175000", "103743.665000", "103745.155000", "103746.645000", "103748.135000", "103749.625000", "103751.115000", "103752.605000", "103754.095000", "103755.585000", "103757.075000", "103758.565000", "103800.055000", "103801.545000", "103803.035000", "103804.525000", "103806.015000", "103807.505000", "103808.995000", "103810.485000", "103811.975000", "103813.465000", "103814.955000", "103816.445000", "103817.935000", "103819.425000", "103820.915000", "103822.405000", "103823.895000", "103825.385000", "103826.875000", "103828.365000", "103829.855000", "103831.345000", "103832.835000", "103834.325000", "103835.815000", "103837.305000", "103838.795000", "103840.285000", "103841.775000", "103843.265000", "103844.755000", "103846.245000", "103847.735000", "103849.225000", "103850.715000", "103852.205000", "103853.695000", "103855.185000", "103856.675000", "103858.165000", "103859.655000", "103901.145000", "103902.635000", "103904.125000", "103905.615000", "103907.105000", "103908.595000", "103910.085000", "103911.575000", "103913.065000", "103914.555000", "103916.045000", "103917.535000", "103919.025000", "103920.515000", "103922.005000", "103923.495000", "103924.985000", "103926.475000", "103927.965000", "103929.455000", "103930.945000", "103932.435000", "103933.925000", "103935.415000", "103936.905000", "103938.395000", "103939.885000", "103941.375000", "103942.865000", "103944.355000", "103945.845000", "103947.335000", "103948.825000", "103950.315000", "103951.805000", "103953.295000", "103954.785000", "103956.275000", "103957.765000", "103959.255000", "104000.745000", "104002.235000", "104003.725000", "104005.215000", "104006.705000", "104008.195000", "104009.685000", "104011.175000", "104012.665000", "104014.155000", "104015.645000", "104017.135000", "104018.625000", "104020.115000", "104021.605000", "104023.095000", "104024.585000", "104026.075000", "104027.565000"],
      "ContentTime": ["103040.638000", "103040.642000", "103040.646000", "103040.649000", "103040.652000", "103040.655000", "103040.659000", "103040.662000", "103040.665000", "103040.668000", "103040.671000", "103040.674000", "103040.677000", "103040.680000", "103040.683000", "103040.686000", "103040.689000", "103040.692000", "103040.695000", "103040.698000", "103040.701000", "103040.709000", "103040.712000", "103040.715000", "103040.718000", "103040.721000", "103040.725000", "103040.728000", "103040.731000", "103040.734000", "103040.737000", "103040.740000", "103040.743000", "103040.746000", "103040.749000", "103040.752000", "103040.755000", "103040.758000", "103100.590000", "103100.593000", "103100.596000", "103100.600000", "103100.603000", "103100.606000", "103100.608000", "103100.612000", "103100.615000", "103100.618000", "103100.621000", "103100.624000", "103100.627000", "103100.630000", "103100.633000", "103100.636000", "103100.639000", "103100.645000", "103100.648000", "103100.651000", "103120.589000", "103120.592000", "103120.595000", "103120.598000", "103120.601000", "103120.604000", "103120.607000", "103120.611000", "103120.614000", "103120.617000", "103120.620000", "103120.623000", "103120.626000", "103120.629000", "103120.632000", "103120.635000", "103120.638000", "103120.641000", "103120.644000", "103120.647000", "103140.590000", "103140.593000", "103140.597000", "103140.600000", "103140.603000", "103140.606000", "103140.609000", "103140.612000", "103140.615000", "103140.619000", "103140.622000", "103140.625000", "103140.628000", "103140.631000", "103140.634000", "103140.638000", "103140.640000", "103140.643000", "103140.646000", "103140.650000", "103220.590000", "103220.593000", "103220.596000", "103220.599000", "103220.602000", "103220.606000", "103220.609000", "103220.612000", "103220.615000", "103220.618000", "103220.621000", "103220.624000", "103220.627000", "103220.630000", "103220.633000", "103220.636000", "103220.639000", "103220.642000", "103220.646000", "103220.649000", "103220.652000", "103220.655000", "103220.658000", "103220.661000", "103220.664000", "103220.667000", "103220.670000", "103220.673000", "103220.676000", "103220.679000", "103220.682000", "103300.590000", "103300.593000", "103300.596000", "103300.599000", "103300.602000", "103300.605000", "103300.609000", "103300.611000", "103300.615000", "103300.618000", "103300.621000", "103300.624000", "103300.627000", "103300.630000", "103300.633000", "103300.636000", "103300.639000", "103300.642000", "103300.645000", "103300.648000", "103300.651000", "103300.654000", "103300.657000", "103300.660000", "103300.663000", "103300.666000", "103300.669000", "103340.589000", "103340.592000", "103340.595000", "103340.599000", "103340.602000", "103340.605000", "103340.608000", "103340.611000", "103340.614000", "103340.617000", "103340.620000", "103340.623000", "103340.626000", "103340.629000", "103340.632000", "103340.635000", "103340.638000", "103340.641000", "103340.644000", "103340.648000", "103340.651000", "103340.654000", "103340.657000", "103340.660000", "103340.663000", "103340.666000", "103340.669000", "103420.590000", "103420.593000", "103420.597000", "103420.600000", "103420.602000", "103420.605000", "103420.609000", "103420.612000", "103420.615000", "103420.618000", "103420.621000", "103420.624000", "103420.637000", "103420.640000", "103420.643000", "103420.646000", "103420.649000", "103420.652000", "103420.655000", "103420.658000", "103420.661000", "103420.664000", "103420.667000", "103420.670000", "103420.673000", "103420.676000", "103420.680000", "103500.590000", "103500.593000", "103500.596000", "103500.599000", "103500.602000", "103500.606000", "103500.609000", "103500.612000", "103500.615000", "103500.618000", "103500.621000", "103500.624000", "103500.627000", "103500.630000", "103500.633000", "103500.636000", "103500.639000", "103500.642000", "103500.645000", "103500.648000", "103500.651000", "103500.654000", "103500.657000", "103500.660000", "103500.663000", "103500.667000", "103500.670000", "103540.590000", "103540.593000", "103540.604000", "103540.607000", "103540.610000", "103540.613000", "103540.616000", "103540.619000", "103540.622000", "103540.626000", "103540.629000", "103540.632000", "103540.635000", "103540.638000", "103540.641000", "103540.644000", "103540.647000", "103540.650000", "103540.653000", "103540.656000", "103540.659000", "103540.662000", "103540.665000", "103540.677000", "103540.680000", "103540.683000", "103600.589000", "103600.592000", "103600.595000", "103600.598000", "103600.602000", "103600.605000", "103600.608000", "103600.611000", "103600.614000", "103600.617000", "103600.620000", "103600.623000", "103600.626000", "103600.629000", "103640.590000", "103640.593000", "103640.596000", "103640.599000", "103640.603000", "103640.606000", "103640.609000", "103640.612000", "103640.615000", "103640.618000", "103640.621000", "103640.624000", "103640.627000", "103640.630000", "103640.633000", "103640.636000", "103640.639000", "103640.642000", "103640.645000", "103640.648000", "103640.651000", "103640.654000", "103640.657000", "103640.661000", "103640.664000", "103640.667000", "103640.670000", "103720.590000", "103720.593000", "103720.596000", "103720.599000", "103720.602000", "103720.605000", "103720.608000", "103720.612000", "103720.615000", "103720.618000", "103720.621000", "103720.624000", "103720.627000", "103720.630000", "103720.633000", "103720.636000", "103720.639000", "103720.642000", "103720.645000", "103720.648000", "103720.651000", "103720.654000", "103720.657000", "103720.661000", "103720.664000", "103720.667000", "103720.670000", "103800.590000", "103800.593000", "103800.596000", "103800.599000", "103800.603000", "103800.606000", "103800.609000", "103800.612000", "103800.615000", "103800.618000", "103800.621000", "103800.626000", "103800.629000", "103800.632000", "103800.635000", "103800.638000", "103800.641000", "103800.644000", "103800.647000", "103800.650000", "103800.653000", "103800.656000", "103800.659000", "103800.662000", "103800.665000", "103800.668000", "103840.590000", "103840.593000", "103840.596000", "103840.600000", "103840.603000", "103840.606000", "103840.609000", "103840.612000", "103840.615000", "103840.618000", "103840.621000", "103840.624000", "103840.627000", "103840.630000", "103840.633000", "103840.636000", "103840.640000", "103840.642000", "103840.646000", "103840.648000", "103840.652000", "103840.655000", "103840.658000", "103840.661000", "103840.664000", "103840.667000", "103840.670000", "103920.590000", "103920.593000", "103920.596000", "103920.599000", "103920.602000", "103920.605000", "103920.608000", "103920.612000", "103920.615000", "103920.618000", "103920.621000", "103920.624000", "103920.627000", "103920.630000", "103920.633000", "103920.636000", "103920.639000", "103920.642000", "103920.645000", "103920.649000", "103920.652000", "103920.655000", "103920.658000", "103920.661000", "103920.664000", "103920.667000", "103920.678000", "104000.590000", "104000.593000", "104000.597000", "104000.600000", "104000.603000", "104000.606000", "104000.609000", "104000.612000", "104000.615000", "104000.618000", "104000.621000", "104000.625000", "104000.628000", "104000.631000", "104000.634000", "104000.637000", "104000.640000", "104000.643000", "104000.646000", "104000.649000", "104000.652000", "104000.655000", "104000.658000", "104000.661000", "104000.664000", "104000.667000", "104000.670000", "104029.811000", "104029.814000", "104029.817000", "104029.820000", "104029.823000", "104029.826000", "104029.830000", "104029.833000", "104029.836000", "104029.839000", "104029.842000", "104029.845000", "104029.848000", "104029.851000", "104029.854000", "104029.858000", "104029.861000", "104029.864000", "104029.867000", "104029.871000"],
