{
  "AcquisitionMatrixPE": 104,
  "AcquisitionNumber": 1,
  "AcquisitionTime": "17:51:31.692500",
  "BandwidthPerPixelPhaseEncode": 17.17,
  "BaseResolution": 104,
  "BodyPartExamined": "BRAIN",
  "CoilString": "HC1-7;NC1_2",
  "ConsistencyInfo": "N4_VE11C_LATEST_20160120",
  "ConversionSoftware": "dcm2niix",
  "ConversionSoftwareVersion": "v1.0.20190902",
  "DerivedVendorReportedEchoSpacing": 0.000560011,
  "DeviceSerialNumber": "167006",
  "DwellTime": 2.1e-06,
  "EchoTime": 0.037,
  "EchoTrainLength": 104,
  "EffectiveEchoSpacing": 0.000560011,
  "FlipAngle": 52,
  "HeudiconvVersion": "0.10.0",
  "ImageComments": "Unaliased_MB4_PE3_LB",
  "ImageOrientationPatientDICOM": [0.998503, 0.0373332, 0.0399687, -0.0183006, 0.916728, -0.399091],
  "ImageType": [
    "ORIGINAL",
    "PRIMARY",
    "M",
    "MB",
    "ND",
    "MOSAIC"
],
  "ImagingFrequency": 123.259,
  "InPlanePhaseEncodingDirectionDICOM": "COL",
  "InstitutionAddress": "Chemin_Queen-Mary_4565_Montreal_District_CA_H3W_1W5",
  "InstitutionName": "IUGM",
  "InstitutionalDepartmentName": "Department",
  "MRAcquisitionType": "2D",
  "MagneticFieldStrength": 3,
  "Manufacturer": "Siemens",
  "ManufacturersModelName": "Prisma_fit",
  "Modality": "MR",
  "MultibandAccelerationFactor": 4,
  "PartialFourier": 1,
  "PatientPosition": "HFS",
  "PercentPhaseFOV": 100,
  "PhaseEncodingDirection": "j",
  "PhaseEncodingSteps": 104,
  "PhaseResolution": 1,
  "PixelBandwidth": 2290,
  "ProcedureStepDescription": "video_friends",
  "ProtocolName": "func_task-friends-s05e08a",
  "PulseSequenceDetails": "%CustomerSeq%_cmrr_mbep2d_bold",
  "ReceiveCoilActiveElements": "HC1-7;NC1,2",
  "ReceiveCoilName": "HeadNeck_64",
  "ReconMatrixPE": 104,
  "RepetitionTime": 1.49,
  "SAR": 0.0394762,
  "ScanOptions": "FS",
  "ScanningSequence": "EP",
  "SequenceName": "epfid2d1_104",
  "SequenceVariant": "SK_SS",
  "SeriesDescription": "func_task-friends-s05e08a",
  "SeriesNumber": 11,
  "ShimSetting": [632, -7171, -8845, 661, 92, 2, -113, -10],
  "SliceThickness": 2,
  "SliceTiming": [0, 0.785, 0.1, 0.8825, 0.1975, 0.98, 0.295, 1.08, 0.3925, 1.1775, 0.49, 1.275, 0.59, 1.3725, 0.6875, 0, 0.785, 0.1, 0.8825, 0.1975, 0.98, 0.295, 1.08, 0.3925, 1.1775, 0.49, 1.275, 0.59, 1.3725, 0.6875, 0, 0.785, 0.1, 0.8825, 0.1975, 0.98, 0.295, 1.08, 0.3925, 1.1775, 0.49, 1.275, 0.59, 1.3725, 0.6875, 0, 0.785, 0.1, 0.8825, 0.1975, 0.98, 0.295, 1.08, 0.3925, 1.1775, 0.49, 1.275, 0.59, 1.3725, 0.6875],
  "SoftwareVersions": "syngo_MR_E11",
  "SpacingBetweenSlices": 2,
  "StationName": "MRC35049",
  "TaskName": "s05e08a",
  "TotalReadoutTime": 0.0576811,
  "TxRefAmp": 256.134,
  "WipMemBlock": "fc6eed5f-b15f-44a3-9ce2-abe9a68cd3ce||Sequence: R016 ve11c/master r/e634e98; Dec 19 2017 11:00:25 by eja",
  "dcmmeta_affine": [
    [-1.9970065355300903, -0.0366012342274189, 0.10307956486940384, 103.165283203125],
    [-0.0746663510799408, 1.8334569931030273, -0.7955251932144165, -62.004600524902344],
    [0.07993737608194351, 0.7981827855110168, 1.8320791721343994, -81.3694076538086],
    [0.0, 0.0, 0.0, 1.0]
],
  "dcmmeta_reorient_transform": [
    [0.0, -1.0, 0.0, 103.0],
    [1.0, 0.0, 0.0, 0.0],
    [0.0, 0.0, 1.0, 0.0],
    [0.0, 0.0, 0.0, 1.0]
],
  "dcmmeta_shape": [104, 104, 60, 446],
  "dcmmeta_slice_dim": 2,
  "dcmmeta_version": 0.6,
  "global": {
    "const": {
      "AcquisitionMatrix": [104, 0, 0, 104],
      "AngioFlag": "N",
      "BitsAllocated": 16,
      "BitsStored": 16,
      "BodyPartExamined": "BRAIN",
      "Columns": 832,
      "EchoNumbers": 1,
      "EchoTime": 37.0,
      "EchoTrainLength": 104,
      "FlipAngle": 52.0,
      "HighBit": 15,
      "ImageOrientationPatient": [0.9985032488974, 0.03733317497181, 0.03996868759247, -0.0183006177833, 0.91672850205024, -0.3990913941912],
      "ImagePositionPatient": [-812.98286803289, -821.39837007666, 262.28475131398],
      "ImageType": [
        "ORIGINAL",
        "PRIMARY",
        "M",
        "MB",
        "ND",
        "MOSAIC"
],
      "ImagedNucleus": "1H",
      "ImagingFrequency": 123.258902,
      "InPlanePhaseEncodingDirection": "COL",
      "MRAcquisitionType": "2D",
      "MagneticFieldStrength": 3.0,
      "Manufacturer": "SIEMENS",
      "ManufacturerModelName": "Prisma_fit",
      "Modality": "MR",
      "NumberOfAverages": 1.0,
      "NumberOfPhaseEncodingSteps": 104,
      "PercentPhaseFieldOfView": 100.0,
      "PercentSampling": 100.0,
      "PerformedProcedureStepStartTime": "165809.774000",
      "PhotometricInterpretation": "MONOCHROME2",
      "PixelBandwidth": 2290.0,
      "PixelRepresentation": 0,
      "PixelSpacing": [2.0, 2.0],
      "ProtocolName": "func_task-friends-s05e08a",
      "RepetitionTime": 1490.0,
      "Rows": 832,
      "SAR": 0.03947618830134,
      "SamplesPerPixel": 1,
      "ScanOptions": "FS",
      "ScanningSequence": "EP",
      "SequenceName": "epfid2d1_104",
      "SequenceVariant": [
        "SK",
        "SS"
],
      "SeriesDescription": "func_task-friends-s05e08a",
      "SeriesNumber": 11,
      "SeriesTime": "175257.397000",
      "SliceLocation": -44.55737087851,
      "SliceThickness": 2.0,
      "SmallestImagePixelValue": 0,
      "SoftwareVersions": "syngo MR E11",
      "SpacingBetweenSlices": 2.0000000100218,
      "SpecificCharacterSet": "ISO_IR 100",
      "StudyID": "1",
      "StudyTime": "165809.721000",
      "TransmitCoilName": "Body",
      "VariableFlipAngleFlag": "N",
      "WindowCenterWidthExplanation": "Algo1",
      "dBdt": 0.0},
    "slices": {}
  },
  "time": {
    "samples": {
      "AcquisitionNumber": [1, 2, 3, 4, 5, 6, 7, 8, 9, 10, 11, 12, 13, 14, 15, 16, 17, 18, 19, 20, 21, 22, 23, 24, 25, 26, 27, 28, 29, 30, 31, 32, 33, 34, 35, 36, 37, 38, 39, 40, 41, 42, 43, 44, 45, 46, 47, 48, 49, 50, 51, 52, 53, 54, 55, 56, 57, 58, 59, 60, 61, 62, 63, 64, 65, 66, 67, 68, 69, 70, 71, 72, 73, 74, 75, 76, 77, 78, 79, 80, 81, 82, 83, 84, 85, 86, 87, 88, 89, 90, 91, 92, 93, 94, 95, 96, 97, 98, 99, 100, 101, 102, 103, 104, 105, 106, 107, 108, 109, 110, 111, 112, 113, 114, 115, 116, 117, 118, 119, 120, 121, 122, 123, 124, 125, 126, 127, 128, 129, 130, 131, 132, 133, 134, 135, 136, 137, 138, 139, 140, 141, 142, 143, 144, 145, 146, 147, 148, 149, 150, 151, 152, 153, 154, 155, 156, 157, 158, 159, 160, 161, 162, 163, 164, 165, 166, 167, 168, 169, 170, 171, 172, 173, 174, 175, 176, 177, 178, 179, 180, 181, 182, 183, 184, 185, 186, 187, 188, 189, 190, 191, 192, 193, 194, 195, 196, 197, 198, 199, 200, 201, 202, 203, 204, 205, 206, 207, 208, 209, 210, 211, 212, 213, 214, 215, 216, 217, 218, 219, 220, 221, 222, 223, 224, 225, 226, 227, 228, 229, 230, 231, 232, 233, 234, 235, 236, 237, 238, 239, 240, 241, 242, 243, 244, 245, 246, 247, 248, 249, 250, 251, 252, 253, 254, 255, 256, 257, 258, 259, 260, 261, 262, 263, 264, 265, 266, 267, 268, 269, 270, 271, 272, 273, 274, 275, 276, 277, 278, 279, 280, 281, 282, 283, 284, 285, 286, 287, 288, 289, 290, 291, 292, 293, 294, 295, 296, 297, 298, 299, 300, 301, 302, 303, 304, 305, 306, 307, 308, 309, 310, 311, 312, 313, 314, 315, 316, 317, 318, 319, 320, 321, 322, 323, 324, 325, 326, 327, 328, 329, 330, 331, 332, 333, 334, 335, 336, 337, 338, 339, 340, 341, 342, 343, 344, 345, 346, 347, 348, 349, 350, 351, 352, 353, 354, 355, 356, 357, 358, 359, 360, 361, 362, 363, 364, 365, 366, 367, 368, 369, 370, 371, 372, 373, 374, 375, 376, 377, 378, 379, 380, 381, 382, 383, 384, 385, 386, 387, 388, 389, 390, 391, 392, 393, 394, 395, 396, 397, 398, 399, 400, 401, 402, 403, 404, 405, 406, 407, 408, 409, 410, 411, 412, 413, 414, 415, 416, 417, 418, 419, 420, 421, 422, 423, 424, 425, 426, 427, 428, 429, 430, 431, 432, 433, 434, 435, 436, 437, 438, 439, 440, 441, 442, 443, 444, 445, 446],
      "AcquisitionTime": ["175131.692500", "175133.182500", "175134.672500", "175136.162500", "175137.652500", "175139.142500", "175140.632500", "175142.122500", "175143.612500", "175145.102500", "175146.592500", "175148.082500", "175149.572500", "175151.062500", "175152.552500", "175154.042500", "175155.532500", "175157.022500", "175158.512500", "175200.002500", "175201.492500", "175202.982500", "175204.472500", "175205.962500", "175207.452500", "175208.942500", "175210.432500", "175211.922500", "175213.412500", "175214.902500", "175216.392500", "175217.882500", "175219.372500", "175220.862500", "175222.352500", "175223.842500", "175225.332500", "175226.822500", "175228.312500", "175229.802500", "175231.292500", "175232.782500", "175234.272500", "175235.762500", "175237.252500", "175238.742500", "175240.232500", "175241.722500", "175243.212500", "175244.702500", "175246.192500", "175247.682500", "175249.172500", "175250.662500", "175252.152500", "175253.642500", "175255.132500", "175256.622500", "175258.112500", "175259.602500", "175301.092500", "175302.582500", "175304.072500", "175305.562500", "175307.052500", "175308.542500", "175310.032500", "175311.522500", "175313.012500", "175314.502500", "175315.992500", "175317.482500", "175318.972500", "175320.462500", "175321.952500", "175323.442500", "175324.932500", "175326.422500", "175327.912500", "175329.402500", "175330.892500", "175332.382500", "175333.872500", "175335.362500", "175336.852500", "175338.342500", "175339.832500", "175341.322500", "175342.812500", "175344.302500", "175345.792500", "175347.282500", "175348.772500", "175350.262500", "175351.752500", "175353.242500", "175354.732500", "175356.222500", "175357.712500", "175359.202500", "175400.692500", "175402.182500", "175403.672500", "175405.162500", "175406.652500", "175408.142500", "175409.632500", "175411.122500", "175412.612500", "175414.102500", "175415.592500", "175417.082500", "175418.572500", "175420.062500", "175421.552500", "175423.042500", "175424.532500", "175426.022500", "175427.512500", "175429.002500", "175430.492500", "175431.982500", "175433.472500", "175434.962500", "175436.452500", "175437.942500", "175439.432500", "175440.922500", "175442.412500", "175443.902500", "175445.392500", "175446.882500", "175448.372500", "175449.862500", "175451.352500", "175452.842500", "175454.332500", "175455.822500", "175457.312500", "175458.802500", "175500.292500", "175501.782500", "175503.272500", "175504.762500", "175506.252500", "175507.742500", "175509.232500", "175510.722500", "175512.212500", "175513.702500", "175515.192500", "175516.682500", "175518.172500", "175519.662500", "175521.152500", "175522.642500", "175524.132500", "175525.622500", "175527.112500", "175528.602500", "175530.092500", "175531.582500", "175533.072500", "175534.562500", "175536.052500", "175537.542500", "175539.032500", "175540.522500", "175542.012500", "175543.502500", "175544.992500", "175546.482500", "175547.972500", "175549.462500", "175550.952500", "175552.442500", "175553.932500", "175555.422500", "175556.912500", "175558.402500", "175559.892500", "175601.382500", "175602.872500", "175604.362500", "175605.852500", "175607.342500", "175608.832500", "175610.322500", "175611.812500", "175613.302500", "175614.792500", "175616.282500", "175617.772500", "175619.262500", "175620.752500", "175622.242500", "175623.732500", "175625.222500", "175626.712500", "175628.202500", "175629.692500", "175631.182500", "175632.672500", "175634.162500", "175635.652500", "175637.142500", "175638.632500", "175640.122500", "175641.612500", "175643.102500", "175644.592500", "175646.082500", "175647.572500", "175649.062500", "175650.552500", "175652.042500", "175653.532500", "175655.022500", "175656.512500", "175658.002500", "175659.492500", "175700.982500", "175702.472500", "175703.962500", "175705.452500", "175706.942500", "175708.432500", "175709.922500", "175711.412500", "175712.902500", "175714.392500", "175715.882500", "175717.372500", "175718.862500", "175720.352500", "175721.842500", "175723.332500", "175724.822500", "175726.312500", "175727.802500", "175729.292500", "175730.782500", "175732.272500", "175733.762500", "175735.252500", "175736.742500", "175738.232500", "175739.722500", "175741.212500", "175742.702500", "175744.192500", "175745.682500", "175747.172500", "175748.662500", "175750.152500", "175751.642500", "175753.132500", "175754.622500", "175756.112500", "175757.602500", "175759.092500", "175800.582500", "175802.072500", "175803.562500", "175805.052500", "175806.542500", "175808.032500", "175809.522500", "175811.012500", "175812.502500", "175813.992500", "175815.482500", "175816.972500", "175818.462500", "175819.952500", "175821.442500", "175822.932500", "175824.422500", "175825.912500", "175827.402500", "175828.892500", "175830.382500", "175831.872500", "175833.362500", "175834.852500", "175836.342500", "175837.832500", "175839.322500", "175840.812500", "175842.302500", "175843.792500", "175845.282500", "175846.772500", "175848.262500", "175849.752500", "175851.242500", "175852.732500", "175854.222500", "175855.712500", "175857.202500", "175858.692500", "175900.182500", "175901.672500", "175903.162500", "175904.652500", "175906.142500", "175907.632500", "175909.122500", "175910.612500", "175912.102500", "175913.592500", "175915.082500", "175916.572500", "175918.062500", "175919.552500", "175921.042500", "175922.532500", "175924.022500", "175925.512500", "175927.002500", "175928.492500", "175929.982500", "175931.472500", "175932.962500", "175934.452500", "175935.942500", "175937.432500", "175938.922500", "175940.412500", "175941.902500", "175943.392500", "175944.882500", "175946.372500", "175947.862500", "175949.352500", "175950.842500", "175952.332500", "175953.822500", "175955.312500", "175956.802500", "175958.292500", "175959.782500", "180001.272500", "180002.762500", "180004.252500", "180005.742500", "180007.232500", "180008.722500", "180010.212500", "180011.702500", "180013.192500", "180014.682500", "180016.172500", "180017.662500", "180019.152500", "180020.642500", "180022.132500", "180023.622500", "180025.112500", "180026.602500", "180028.092500", "180029.582500", "180031.072500", "180032.562500", "180034.052500", "180035.542500", "180037.032500", "180038.522500", "180040.012500", "180041.502500", "180042.992500", "180044.482500", "180045.972500", "180047.462500", "180048.952500", "180050.442500", "180051.932500", "180053.422500", "180054.912500", "180056.402500", "180057.892500", "180059.382500", "180100.872500", "180102.362500", "180103.852500", "180105.342500", "180106.832500", "180108.322500", "180109.812500", "180111.302500", "180112.792500", "180114.282500", "180115.772500", "180117.262500", "180118.752500", "180120.242500", "180121.732500", "180123.222500", "180124.712500", "180126.202500", "180127.692500", "180129.182500", "180130.672500", "180132.162500", "180133.652500", "180135.142500", "180136.632500", "180138.122500", "180139.612500", "180141.102500", "180142.592500", "180144.082500", "180145.572500", "180147.062500", "180148.552500", "180150.042500", "180151.532500", "180153.022500", "180154.512500", "180156.002500", "180157.492500", "180158.982500", "180200.472500", "180201.962500", "180203.452500", "180204.942500", "180206.432500", "180207.922500", "180209.412500", "180210.902500", "180212.392500", "180213.882500", "180215.372500", "180216.862500", "180218.352500", "180219.842500", "180221.332500", "180222.822500", "180224.312500", "180225.802500", "180227.292500", "180228.782500", "180230.272500", "180231.762500", "180233.252500", "180234.742500"],
      "ContentTime": ["175257.400000", "175257.403000", "175257.406000", "175257.409000", "175257.412000", "175257.422000", "175257.425000", "175257.428000", "175257.431000", "175257.433000", "175257.436000", "175257.439000", "175257.442000", "175257.445000", "175257.448000", "175257.450000", "175257.453000", "175257.456000", "175257.459000", "175257.462000", "175257.465000", "175257.467000", "175257.470000", "175257.473000", "175257.476000", "175257.479000", "175257.482000", "175257.485000", "175257.487000", "175257.490000", "175257.493000", "175257.496000", "175257.499000", "175317.368000", "175317.371000", "175317.374000", "175317.376000", "175317.379000", "175317.382000", "175317.385000", "175317.388000", "175317.391000", "175317.394000", "175317.397000", "175317.400000", "175317.403000", "175317.415000", "175317.418000", "175317.421000", "175317.424000", "175317.427000", "175317.430000", "175317.433000", "175337.367000", "175337.370000", "175337.373000", "175337.376000", "175337.378000", "175337.381000", "175337.384000", "175337.387000", "175337.390000", "175337.393000", "175337.395000", "175337.398000", "175337.401000", "175337.404000", "175337.407000", "175337.410000", "175337.412000", "175337.415000", "175337.418000", "175337.421000", "175337.424000", "175357.368000", "175357.371000", "175357.374000", "175357.376000", "175357.379000", "175357.382000", "175357.385000", "175357.388000", "175357.391000", "175357.394000", "175357.396000", "175357.399000", "175357.402000", "175357.405000", "175357.408000", "175357.411000", "175357.414000", "175357.416000", "175357.419000", "175357.422000", "175437.368000", "175437.371000", "175437.374000", "175437.376000", "175437.379000", "175437.382000", "175437.385000", "175437.388000", "175437.391000", "175437.394000", "175437.397000", "175437.399000", "175437.402000", "175437.405000", "175437.408000", "175437.411000", "175437.414000", "175437.417000", "175437.419000", "175437.422000", "175437.425000", "175437.428000", "175437.431000", "175437.434000", "175437.437000", "175437.439000", "175437.442000", "175437.445000", "175437.448000", "175437.451000", "175517.368000", "175517.371000", "175517.374000", "175517.376000", "175517.379000", "175517.382000", "175517.385000", "175517.388000", "175517.391000", "175517.394000", "175517.397000", "175517.399000", "175517.402000", "175517.405000", "175517.408000", "175517.411000", "175517.414000", "175517.417000", "175517.419000", "175517.422000", "175517.427000", "175517.429000", "175517.442000", "175517.445000", "175517.448000", "175517.451000", "175517.454000", "175557.367000", "175557.370000", "175557.373000", "175557.376000", "175557.391000", "175557.394000", "175557.397000", "175557.400000", "175557.402000", "175557.405000", "175557.408000", "175557.411000", "175557.414000", "175557.417000", "175557.420000", "175557.423000", "175557.426000", "175557.429000", "175557.432000", "175557.435000", "175557.438000", "175557.440000", "175557.443000", "175557.446000", "175557.449000", "175557.452000", "175637.368000", "175637.371000", "175637.374000", "175637.377000", "175637.380000", "175637.383000", "175637.386000", "175637.388000", "175637.391000", "175637.394000", "175637.397000", "175637.400000", "175637.403000", "175637.406000", "175637.409000", "175637.412000", "175637.415000", "175637.418000", "175637.421000", "175637.423000", "175637.426000", "175637.429000", "175637.432000", "175637.435000", "175637.438000", "175637.441000", "175637.444000", "175717.368000", "175717.371000", "175717.374000", "175717.377000", "175717.380000", "175717.383000", "175717.386000", "175717.388000", "175717.391000", "175717.394000", "175717.401000", "175717.404000", "175717.407000", "175717.410000", "175717.413000", "175717.416000", "175717.419000", "175717.422000", "175717.425000", "175717.427000", "175717.430000", "175717.433000", "175717.436000", "175717.439000", "175717.442000", "175717.445000", "175717.447000", "175757.368000", "175757.371000", "175757.374000", "175757.377000", "175757.380000", "175757.383000", "175757.385000", "175757.388000", "175757.391000", "175757.394000", "175757.397000", "175757.407000", "175757.410000", "175757.412000", "175757.415000", "175757.418000", "175757.421000", "175757.424000", "175757.427000", "175757.430000", "175757.432000", "175757.435000", "175757.438000", "175757.441000", "175757.444000", "175757.447000", "175757.450000", "175837.368000", "175837.371000", "175837.374000", "175837.377000", "175837.380000", "175837.382000", "175837.385000", "175837.388000", "175837.391000", "175837.394000", "175837.397000", "175837.400000", "175837.403000", "175837.406000", "175837.409000", "175837.411000", "175837.414000", "175837.417000", "175837.420000", "175837.423000", "175837.426000", "175837.429000", "175837.432000", "175837.435000", "175837.437000", "175837.440000", "175837.443000", "175917.368000", "175917.371000", "175917.374000", "175917.377000", "175917.380000", "175917.382000", "175917.385000", "175917.388000", "175917.391000", "175917.394000", "175917.397000", "175917.400000", "175917.403000", "175917.405000", "175917.408000", "175917.411000", "175917.414000", "175917.417000", "175917.420000", "175917.432000", "175917.435000", "175917.438000", "175917.441000", "175917.444000", "175917.446000", "175917.449000", "175917.452000", "175957.368000", "175957.371000", "175957.374000", "175957.377000", "175957.379000", "175957.382000", "175957.385000", "175957.388000", "175957.391000", "175957.402000", "175957.405000", "175957.408000", "175957.411000", "175957.414000", "175957.417000", "175957.419000", "175957.422000", "175957.425000", "175957.428000", "175957.431000", "175957.434000", "175957.437000", "175957.440000", "175957.443000", "175957.446000", "175957.448000", "175957.451000", "180037.367000", "180037.371000", "180037.374000", "180037.376000", "180037.379000", "180037.382000", "180037.385000", "180037.388000", "180037.391000", "180037.394000", "180037.397000", "180037.400000", "180037.402000", "180037.405000", "180037.408000", "180037.411000", "180037.414000", "180037.417000", "180037.420000", "180037.423000", "180037.426000", "180037.429000", "180037.431000", "180037.434000", "180037.437000", "180037.440000", "180117.368000", "180117.371000", "180117.374000", "180117.377000", "180117.380000", "180117.383000", "180117.385000", "180117.388000", "180117.391000", "180117.394000", "180117.397000", "180117.400000", "180117.403000", "180117.406000", "180117.409000", "180117.411000", "180117.414000", "180117.417000", "180117.420000", "180117.423000", "180117.426000", "180117.429000", "180117.432000", "180117.435000", "180117.438000", "180117.440000", "180117.443000", "180157.368000", "180157.371000", "180157.374000", "180157.377000", "180157.392000", "180157.395000", "180157.398000", "180157.401000", "180157.404000", "180157.407000", "180157.410000", "180157.413000", "180157.416000", "180157.419000", "180157.421000", "180157.424000", "180157.427000", "180157.430000", "180157.433000", "180157.438000", "180157.441000", "180157.444000", "180157.447000", "180157.450000", "180157.453000", "180157.456000", "180157.459000", "180236.749000", "180236.753000", "180236.755000", "180236.758000", "180236.761000", "180236.764000", "180236.768000", "180236.771000", "180236.819000", "180236.822000", "180236.825000", "180236.828000", "180236.831000", "180236.834000", "180236.837000", "180236.840000", "180236.843000", "180236.846000", "180236.849000", "180236.852000", "180236.854000", "180236.857000", "180236.860000", "180236.863000", "180236.866000", "180236.869000", "180236.872000"],
