{
  "AcquisitionMatrixPE": 104,
  "AcquisitionNumber": 1,
  "AcquisitionTime": "11:41:12.255000",
  "BandwidthPerPixelPhaseEncode": 17.17,
  "BaseResolution": 104,
  "BodyPartExamined": "BRAIN",
  "CoilString": "HC1-7;NC1_2",
  "ConsistencyInfo": "N4_VE11C_LATEST_20160120",
  "ConversionSoftware": "dcm2niix",
  "ConversionSoftwareVersion": "v1.0.20190720  (JP2:OpenJPEG) GCC7.3.0",
  "DerivedVendorReportedEchoSpacing": 0.000560011,
  "DeviceSerialNumber": "167006",
  "DwellTime": 2.1e-06,
  "EchoTime": 0.037,
  "EchoTrainLength": 104,
  "EffectiveEchoSpacing": 0.000560011,
  "FlipAngle": 52,
  "ImageComments": "Unaliased_MB4_PE3_LB",
  "ImageOrientationPatientDICOM": [0.999768, -0.00395671, 0.021158, 0.0141349, 0.862002, -0.506708],
  "ImageType": [
    "ORIGINAL",
    "PRIMARY",
    "M",
    "MB",
    "ND",
    "MOSAIC"
],
  "ImagingFrequency": 123.259,
  "InPlanePhaseEncodingDirectionDICOM": "COL",
  "InstitutionAddress": "Chemin_Queen-Mary_4565_Montreal_District_CA_H3W_1W5",
  "InstitutionName": "IUGM",
  "InstitutionalDepartmentName": "Department",
  "MRAcquisitionType": "2D",
  "MagneticFieldStrength": 3,
  "Manufacturer": "Siemens",
  "ManufacturersModelName": "Prisma_fit",
  "Modality": "MR",
  "MultibandAccelerationFactor": 4,
  "PartialFourier": 1,
  "PatientPosition": "HFS",
  "PercentPhaseFOV": 100,
  "PhaseEncodingDirection": "j",
  "PhaseEncodingSteps": 104,
  "PhaseResolution": 1,
  "PixelBandwidth": 2290,
  "ProcedureStepDescription": "video_friends",
  "ProtocolName": "func_task-friends-s01e24b",
  "PulseSequenceDetails": "%CustomerSeq%_cmrr_mbep2d_bold",
  "ReceiveCoilActiveElements": "HC1-7;NC1,2",
  "ReceiveCoilName": "HeadNeck_64",
  "ReconMatrixPE": 104,
  "RepetitionTime": 1.49,
  "SAR": 0.0351012,
  "ScanOptions": "FS",
  "ScanningSequence": "EP",
  "SequenceName": "epfid2d1_104",
  "SequenceVariant": "SK_SS",
  "SeriesDescription": "func_task-friends-s01e24b",
  "SeriesNumber": 18,
  "ShimSetting": [626, -7201, -8871, 399, -5, -159, 42, -5],
  "SliceThickness": 2,
  "SliceTiming": [0, 0.7825, 0.0975, 0.8825, 0.195, 0.98, 0.2925, 1.0775, 0.3925, 1.175, 0.49, 1.2725, 0.5875, 1.3725, 0.685, 0, 0.7825, 0.0975, 0.8825, 0.195, 0.98, 0.2925, 1.0775, 0.3925, 1.175, 0.49, 1.2725, 0.5875, 1.3725, 0.685, 0, 0.7825, 0.0975, 0.8825, 0.195, 0.98, 0.2925, 1.0775, 0.3925, 1.175, 0.49, 1.2725, 0.5875, 1.3725, 0.685, 0, 0.7825, 0.0975, 0.8825, 0.195, 0.98, 0.2925, 1.0775, 0.3925, 1.175, 0.49, 1.2725, 0.5875, 1.3725, 0.685],
  "SoftwareVersions": "syngo_MR_E11",
  "SpacingBetweenSlices": 2,
  "StationName": "MRC35049",
  "TaskName": "friends",
  "TotalReadoutTime": 0.0576811,
  "TxRefAmp": 247.64,
  "WipMemBlock": "f60b936d-377a-408c-912e-18b5ad9fe896||Sequence: R016 ve11c/master r/e634e98; Dec 19 2017 11:00:25 by eja",
  "dcmmeta_affine": [
    [-1.9995366334915161, 0.028269760310649872, 0.03246663883328438, 101.31327819824219],
    [0.00791342556476593, 1.7240039110183716, -1.0137789249420166, -60.61500549316406],
    [0.042315948754549026, 1.0134155750274658, 1.723716378211975, -99.21287536621094],
    [0.0, 0.0, 0.0, 1.0]
],
  "dcmmeta_reorient_transform": [
    [0.0, -1.0, 0.0, 103.0],
    [1.0, 0.0, 0.0, 0.0],
    [0.0, 0.0, 1.0, 0.0],
    [0.0, 0.0, 0.0, 1.0]
],
  "dcmmeta_shape": [104, 104, 60, 515],
  "dcmmeta_slice_dim": 2,
  "dcmmeta_version": 0.6,
  "global": {
    "const": {
      "AcquisitionMatrix": [104, 0, 0, 104],
      "AngioFlag": "N",
      "BitsAllocated": 16,
      "BitsStored": 16,
      "BodyPartExamined": "BRAIN",
      "Columns": 832,
      "EchoNumbers": 1,
      "EchoTime": 37.0,
      "EchoTrainLength": 104,
      "FlipAngle": 52.0,
      "HighBit": 15,
      "ImageOrientationPatient": [0.99976831542243, -0.0039567125553, 0.02115797493043, 0.01413487972835, 0.86200198095396, -0.5067077954862],
      "ImagePositionPatient": [-842.34658894349, -741.61435880326, 358.64919981743],
      "ImageType": [
        "ORIGINAL",
        "PRIMARY",
        "M",
        "MB",
        "ND",
        "MOSAIC"
],
      "ImagedNucleus": "1H",
      "ImagingFrequency": 123.259163,
      "InPlanePhaseEncodingDirection": "COL",
      "MRAcquisitionType": "2D",
      "MagneticFieldStrength": 3.0,
      "Manufacturer": "SIEMENS",
      "ManufacturerModelName": "Prisma_fit",
      "Modality": "MR",
      "NumberOfAverages": 1.0,
      "NumberOfPhaseEncodingSteps": 104,
      "PercentPhaseFieldOfView": 100.0,
      "PercentSampling": 100.0,
      "PerformedProcedureStepStartTime": "102420.784000",
      "PhotometricInterpretation": "MONOCHROME2",
      "PixelBandwidth": 2290.0,
      "PixelRepresentation": 0,
      "PixelSpacing": [2.0, 2.0],
      "ProtocolName": "func_task-friends-s01e24b",
      "RepetitionTime": 1490.0,
      "Rows": 832,
      "SAR": 0.03510116893811,
      "SamplesPerPixel": 1,
      "ScanOptions": "FS",
      "ScanningSequence": "EP",
      "SequenceName": "epfid2d1_104",
      "SequenceVariant": [
        "SK",
        "SS"
],
      "SeriesDescription": "func_task-friends-s01e24b",
      "SeriesNumber": 18,
      "SeriesTime": "114229.801000",
      "SliceLocation": -53.137671796999,
      "SliceThickness": 2.0,
      "SmallestImagePixelValue": 0,
      "SoftwareVersions": "syngo MR E11",
      "SpacingBetweenSlices": 1.9999999705829,
      "SpecificCharacterSet": "ISO_IR 100",
      "StudyID": "1",
      "StudyTime": "102420.723000",
      "TransmitCoilName": "Body",
      "VariableFlipAngleFlag": "N",
      "WindowCenterWidthExplanation": "Algo1",
      "dBdt": 0.0},
    "slices": {}
  },
  "time": {
    "samples": {
      "AcquisitionNumber": [1, 2, 3, 4, 5, 6, 7, 8, 9, 10, 11, 12, 13, 14, 15, 16, 17, 18, 19, 20, 21, 22, 23, 24, 25, 26, 27, 28, 29, 30, 31, 32, 33, 34, 35, 36, 37, 38, 39, 40, 41, 42, 43, 44, 45, 46, 47, 48, 49, 50, 51, 52, 53, 54, 55, 56, 57, 58, 59, 60, 61, 62, 63, 64, 65, 66, 67, 68, 69, 70, 71, 72, 73, 74, 75, 76, 77, 78, 79, 80, 81, 82, 83, 84, 85, 86, 87, 88, 89, 90, 91, 92, 93, 94, 95, 96, 97, 98, 99, 100, 101, 102, 103, 104, 105, 106, 107, 108, 109, 110, 111, 112, 113, 114, 115, 116, 117, 118, 119, 120, 121, 122, 123, 124, 125, 126, 127, 128, 129, 130, 131, 132, 133, 134, 135, 136, 137, 138, 139, 140, 141, 142, 143, 144, 145, 146, 147, 148, 149, 150, 151, 152, 153, 154, 155, 156, 157, 158, 159, 160, 161, 162, 163, 164, 165, 166, 167, 168, 169, 170, 171, 172, 173, 174, 175, 176, 177, 178, 179, 180, 181, 182, 183, 184, 185, 186, 187, 188, 189, 190, 191, 192, 193, 194, 195, 196, 197, 198, 199, 200, 201, 202, 203, 204, 205, 206, 207, 208, 209, 210, 211, 212, 213, 214, 215, 216, 217, 218, 219, 220, 221, 222, 223, 224, 225, 226, 227, 228, 229, 230, 231, 232, 233, 234, 235, 236, 237, 238, 239, 240, 241, 242, 243, 244, 245, 246, 247, 248, 249, 250, 251, 252, 253, 254, 255, 256, 257, 258, 259, 260, 261, 262, 263, 264, 265, 266, 267, 268, 269, 270, 271, 272, 273, 274, 275, 276, 277, 278, 279, 280, 281, 282, 283, 284, 285, 286, 287, 288, 289, 290, 291, 292, 293, 294, 295, 296, 297, 298, 299, 300, 301, 302, 303, 304, 305, 306, 307, 308, 309, 310, 311, 312, 313, 314, 315, 316, 317, 318, 319, 320, 321, 322, 323, 324, 325, 326, 327, 328, 329, 330, 331, 332, 333, 334, 335, 336, 337, 338, 339, 340, 341, 342, 343, 344, 345, 346, 347, 348, 349, 350, 351, 352, 353, 354, 355, 356, 357, 358, 359, 360, 361, 362, 363, 364, 365, 366, 367, 368, 369, 370, 371, 372, 373, 374, 375, 376, 377, 378, 379, 380, 381, 382, 383, 384, 385, 386, 387, 388, 389, 390, 391, 392, 393, 394, 395, 396, 397, 398, 399, 400, 401, 402, 403, 404, 405, 406, 407, 408, 409, 410, 411, 412, 413, 414, 415, 416, 417, 418, 419, 420, 421, 422, 423, 424, 425, 426, 427, 428, 429, 430, 431, 432, 433, 434, 435, 436, 437, 438, 439, 440, 441, 442, 443, 444, 445, 446, 447, 448, 449, 450, 451, 452, 453, 454, 455, 456, 457, 458, 459, 460, 461, 462, 463, 464, 465, 466, 467, 468, 469, 470, 471, 472, 473, 474, 475, 476, 477, 478, 479, 480, 481, 482, 483, 484, 485, 486, 487, 488, 489, 490, 491, 492, 493, 494, 495, 496, 497, 498, 499, 500, 501, 502, 503, 504, 505, 506, 507, 508, 509, 510, 511, 512, 513, 514, 515],
      "AcquisitionTime": ["114112.255000", "114113.745000", "114115.235000", "114116.725000", "114118.215000", "114119.705000", "114121.195000", "114122.685000", "114124.175000", "114125.665000", "114127.155000", "114128.645000", "114130.135000", "114131.625000", "114133.115000", "114134.605000", "114136.095000", "114137.585000", "114139.075000", "114140.565000", "114142.055000", "114143.545000", "114145.035000", "114146.525000", "114148.015000", "114149.505000", "114150.995000", "114152.485000", "114153.975000", "114155.465000", "114156.955000", "114158.445000", "114159.935000", "114201.425000", "114202.915000", "114204.405000", "114205.895000", "114207.385000", "114208.875000", "114210.365000", "114211.855000", "114213.345000", "114214.835000", "114216.325000", "114217.815000", "114219.305000", "114220.795000", "114222.285000", "114223.775000", "114225.265000", "114226.755000", "114228.245000", "114229.735000", "114231.225000", "114232.715000", "114234.205000", "114235.695000", "114237.185000", "114238.675000", "114240.165000", "114241.655000", "114243.145000", "114244.635000", "114246.125000", "114247.615000", "114249.105000", "114250.595000", "114252.085000", "114253.575000", "114255.065000", "114256.555000", "114258.045000", "114259.535000", "114301.025000", "114302.515000", "114304.005000", "114305.495000", "114306.985000", "114308.475000", "114309.965000", "114311.455000", "114312.945000", "114314.435000", "114315.925000", "114317.415000", "114318.905000", "114320.395000", "114321.885000", "114323.375000", "114324.865000", "114326.355000", "114327.845000", "114329.335000", "114330.825000", "114332.315000", "114333.805000", "114335.295000", "114336.785000", "114338.275000", "114339.765000", "114341.255000", "114342.745000", "114344.235000", "114345.725000", "114347.215000", "114348.705000", "114350.195000", "114351.685000", "114353.175000", "114354.665000", "114356.155000", "114357.645000", "114359.135000", "114400.625000", "114402.115000", "114403.605000", "114405.095000", "114406.585000", "114408.075000", "114409.565000", "114411.055000", "114412.545000", "114414.035000", "114415.525000", "114417.015000", "114418.505000", "114419.995000", "114421.485000", "114422.975000", "114424.465000", "114425.955000", "114427.445000", "114428.935000", "114430.425000", "114431.915000", "114433.405000", "114434.895000", "114436.385000", "114437.875000", "114439.365000", "114440.855000", "114442.345000", "114443.835000", "114445.325000", "114446.815000", "114448.305000", "114449.795000", "114451.285000", "114452.775000", "114454.265000", "114455.755000", "114457.245000", "114458.735000", "114500.225000", "114501.715000", "114503.205000", "114504.695000", "114506.185000", "114507.675000", "114509.165000", "114510.655000", "114512.145000", "114513.635000", "114515.125000", "114516.615000", "114518.105000", "114519.595000", "114521.085000", "114522.575000", "114524.065000", "114525.555000", "114527.045000", "114528.535000", "114530.025000", "114531.515000", "114533.005000", "114534.495000", "114535.985000", "114537.475000", "114538.965000", "114540.455000", "114541.945000", "114543.435000", "114544.925000", "114546.415000", "114547.905000", "114549.395000", "114550.885000", "114552.375000", "114553.865000", "114555.355000", "114556.845000", "114558.335000", "114559.825000", "114601.315000", "114602.805000", "114604.295000", "114605.785000", "114607.275000", "114608.765000", "114610.255000", "114611.745000", "114613.235000", "114614.725000", "114616.215000", "114617.705000", "114619.195000", "114620.685000", "114622.175000", "114623.665000", "114625.155000", "114626.645000", "114628.135000", "114629.625000", "114631.115000", "114632.605000", "114634.095000", "114635.585000", "114637.075000", "114638.565000", "114640.055000", "114641.545000", "114643.035000", "114644.525000", "114646.015000", "114647.505000", "114648.995000", "114650.485000", "114651.975000", "114653.465000", "114654.955000", "114656.445000", "114657.935000", "114659.425000", "114700.915000", "114702.405000", "114703.895000", "114705.385000", "114706.875000", "114708.365000", "114709.855000", "114711.345000", "114712.835000", "114714.325000", "114715.815000", "114717.305000", "114718.795000", "114720.285000", "114721.775000", "114723.265000", "114724.755000", "114726.245000", "114727.735000", "114729.225000", "114730.715000", "114732.205000", "114733.695000", "114735.185000", "114736.675000", "114738.165000", "114739.655000", "114741.145000", "114742.635000", "114744.125000", "114745.615000", "114747.105000", "114748.595000", "114750.085000", "114751.575000", "114753.065000", "114754.555000", "114756.045000", "114757.535000", "114759.025000", "114800.515000", "114802.005000", "114803.495000", "114804.985000", "114806.475000", "114807.965000", "114809.455000", "114810.945000", "114812.435000", "114813.925000", "114815.415000", "114816.905000", "114818.395000", "114819.885000", "114821.375000", "114822.865000", "114824.355000", "114825.845000", "114827.335000", "114828.825000", "114830.315000", "114831.805000", "114833.295000", "114834.785000", "114836.275000", "114837.765000", "114839.255000", "114840.745000", "114842.235000", "114843.725000", "114845.215000", "114846.705000", "114848.195000", "114849.685000", "114851.175000", "114852.665000", "114854.155000", "114855.645000", "114857.135000", "114858.625000", "114900.115000", "114901.605000", "114903.095000", "114904.585000", "114906.075000", "114907.565000", "114909.055000", "114910.545000", "114912.035000", "114913.525000", "114915.015000", "114916.505000", "114917.995000", "114919.485000", "114920.975000", "114922.465000", "114923.955000", "114925.445000", "114926.935000", "114928.425000", "114929.915000", "114931.405000", "114932.895000", "114934.385000", "114935.875000", "114937.365000", "114938.855000", "114940.345000", "114941.835000", "114943.325000", "114944.815000", "114946.305000", "114947.795000", "114949.285000", "114950.775000", "114952.265000", "114953.755000", "114955.245000", "114956.735000", "114958.225000", "114959.715000", "115001.205000", "115002.695000", "115004.185000", "115005.675000", "115007.165000", "115008.655000", "115010.145000", "115011.635000", "115013.125000", "115014.615000", "115016.105000", "115017.595000", "115019.085000", "115020.575000", "115022.065000", "115023.555000", "115025.045000", "115026.535000", "115028.025000", "115029.515000", "115031.005000", "115032.495000", "115033.985000", "115035.475000", "115036.965000", "115038.455000", "115039.945000", "115041.435000", "115042.925000", "115044.415000", "115045.905000", "115047.395000", "115048.885000", "115050.375000", "115051.865000", "115053.355000", "115054.845000", "115056.335000", "115057.825000", "115059.315000", "115100.805000", "115102.295000", "115103.785000", "115105.275000", "115106.765000", "115108.255000", "115109.745000", "115111.235000", "115112.725000", "115114.215000", "115115.705000", "115117.195000", "115118.685000", "115120.175000", "115121.665000", "115123.155000", "115124.645000", "115126.135000", "115127.625000", "115129.115000", "115130.605000", "115132.095000", "115133.585000", "115135.075000", "115136.565000", "115138.055000", "115139.545000", "115141.035000", "115142.525000", "115144.015000", "115145.505000", "115146.995000", "115148.485000", "115149.975000", "115151.465000", "115152.955000", "115154.445000", "115155.935000", "115157.425000", "115158.915000", "115200.405000", "115201.895000", "115203.385000", "115204.875000", "115206.365000", "115207.855000", "115209.345000", "115210.835000", "115212.325000", "115213.815000", "115215.305000", "115216.795000", "115218.285000", "115219.775000", "115221.265000", "115222.755000", "115224.245000", "115225.735000", "115227.225000", "115228.715000", "115230.205000", "115231.695000", "115233.185000", "115234.675000", "115236.165000", "115237.655000", "115239.145000", "115240.635000", "115242.125000", "115243.615000", "115245.105000", "115246.595000", "115248.085000", "115249.575000", "115251.065000", "115252.555000", "115254.045000", "115255.535000", "115257.025000", "115258.515000", "115300.005000", "115301.495000", "115302.985000", "115304.475000", "115305.965000", "115307.455000", "115308.945000", "115310.435000", "115311.925000", "115313.415000", "115314.905000", "115316.395000", "115317.885000", "115319.375000", "115320.865000", "115322.355000", "115323.845000", "115325.335000", "115326.825000", "115328.315000", "115329.805000", "115331.295000", "115332.785000", "115334.275000", "115335.765000", "115337.255000", "115338.745000", "115340.235000", "115341.725000", "115343.215000", "115344.705000", "115346.195000", "115347.685000", "115349.175000", "115350.665000", "115352.155000", "115353.645000", "115355.135000", "115356.625000", "115358.115000"],
      "ContentTime": ["114229.803000", "114229.807000", "114229.809000", "114229.812000", "114229.815000", "114229.818000", "114229.821000", "114229.825000", "114229.828000", "114229.836000", "114229.839000", "114229.842000", "114229.845000", "114229.848000", "114229.851000", "114229.860000", "114229.863000", "114229.866000", "114229.869000", "114229.871000", "114229.874000", "114229.877000", "114229.880000", "114249.766000", "114249.769000", "114249.794000", "114249.798000", "114249.801000", "114249.804000", "114249.807000", "114249.810000", "114249.813000", "114249.816000", "114249.819000", "114249.830000", "114249.833000", "114249.836000", "114249.839000", "114249.842000", "114249.845000", "114249.848000", "114249.851000", "114249.854000", "114249.857000", "114309.766000", "114309.769000", "114309.772000", "114309.775000", "114309.778000", "114309.781000", "114309.783000", "114309.786000", "114309.789000", "114309.792000", "114309.795000", "114309.798000", "114309.801000", "114309.804000", "114309.814000", "114309.817000", "114309.819000", "114309.822000", "114309.825000", "114309.828000", "114329.766000", "114329.769000", "114329.772000", "114329.775000", "114329.777000", "114329.780000", "114329.783000", "114329.786000", "114329.789000", "114329.792000", "114329.795000", "114329.797000", "114329.800000", "114329.803000", "114329.806000", "114329.809000", "114329.812000", "114329.815000", "114329.818000", "114329.821000", "114349.766000", "114349.769000", "114349.772000", "114349.775000", "114349.778000", "114349.780000", "114349.783000", "114349.786000", "114349.789000", "114349.792000", "114349.795000", "114349.798000", "114349.801000", "114349.803000", "114349.806000", "114349.809000", "114349.812000", "114349.815000", "114349.818000", "114349.821000", "114429.766000", "114429.769000", "114429.772000", "114429.775000", "114429.778000", "114429.781000", "114429.784000", "114429.786000", "114429.789000", "114429.792000", "114429.795000", "114429.798000", "114429.801000", "114429.804000", "114429.807000", "114429.809000", "114429.812000", "114429.815000", "114429.818000", "114429.821000", "114429.824000", "114429.827000", "114429.830000", "114429.832000", "114429.835000", "114429.838000", "114429.841000", "114429.844000", "114509.766000", "114509.770000", "114509.772000", "114509.775000", "114509.778000", "114509.781000", "114509.784000", "114509.787000", "114509.790000", "114509.793000", "114509.795000", "114509.798000", "114509.802000", "114509.805000", "114509.808000", "114509.811000", "114509.814000", "114509.817000", "114509.819000", "114509.822000", "114509.825000", "114509.828000", "114509.831000", "114509.834000", "114509.837000", "114509.840000", "114549.766000", "114549.769000", "114549.772000", "114549.775000", "114549.778000", "114549.781000", "114549.784000", "114549.786000", "114549.789000", "114549.792000", "114549.795000", "114549.798000", "114549.801000", "114549.804000", "114549.807000", "114549.810000", "114549.812000", "114549.815000", "114549.818000", "114549.821000", "114549.824000", "114549.827000", "114549.830000", "114549.832000", "114549.835000", "114549.838000", "114549.841000", "114629.766000", "114629.769000", "114629.780000", "114629.783000", "114629.785000", "114629.789000", "114629.791000", "114629.794000", "114629.797000", "114629.800000", "114629.803000", "114629.806000", "114629.809000", "114629.812000", "114629.814000", "114629.817000", "114629.821000", "114629.824000", "114629.826000", "114629.829000", "114629.832000", "114629.835000", "114629.838000", "114629.841000", "114629.844000", "114629.847000", "114629.850000", "114709.766000", "114709.769000", "114709.831000", "114709.834000", "114709.837000", "114709.840000", "114709.843000", "114709.846000", "114709.849000", "114709.852000", "114709.855000", "114709.857000", "114709.860000", "114709.863000", "114709.866000", "114709.869000", "114709.872000", "114709.875000", "114709.878000", "114709.881000", "114709.883000", "114709.886000", "114709.889000", "114709.892000", "114709.895000", "114709.898000", "114709.900000", "114749.766000", "114749.786000", "114749.830000", "114749.833000", "114749.836000", "114749.839000", "114749.842000", "114749.844000", "114749.847000", "114749.850000", "114749.853000", "114749.856000", "114749.859000", "114749.862000", "114749.865000", "114749.868000", "114749.871000", "114749.873000", "114749.877000", "114749.879000", "114749.882000", "114749.885000", "114749.888000", "114749.891000", "114749.894000", "114749.897000", "114749.900000", "114829.766000", "114829.769000", "114829.772000", "114829.775000", "114829.778000", "114829.780000", "114829.784000", "114829.786000", "114829.789000", "114829.792000", "114829.795000", "114829.798000", "114829.801000", "114829.803000", "114829.807000", "114829.809000", "114829.812000", "114829.815000", "114829.818000", "114829.821000", "114829.824000", "114829.827000", "114829.830000", "114829.832000", "114829.835000", "114829.838000", "114829.841000", "114909.766000", "114909.769000", "114909.772000", "114909.775000", "114909.778000", "114909.781000", "114909.784000", "114909.786000", "114909.789000", "114909.792000", "114909.795000", "114909.798000", "114909.801000", "114909.805000", "114909.810000", "114909.813000", "114909.816000", "114909.819000", "114909.823000", "114909.825000", "114909.828000", "114909.831000", "114909.834000", "114909.837000", "114909.840000", "114909.843000", "114949.766000", "114949.769000", "114949.772000", "114949.775000", "114949.778000", "114949.781000", "114949.784000", "114949.787000", "114949.790000", "114949.792000", "114949.795000", "114949.798000", "114949.801000", "114949.804000", "114949.807000", "114949.810000", "114949.813000", "114949.816000", "114949.819000", "114949.822000", "114949.824000", "114949.827000", "114949.830000", "114949.833000", "114949.836000", "114949.839000", "114949.842000", "115029.766000", "115029.769000", "115029.772000", "115029.775000", "115029.778000", "115029.781000", "115029.784000", "115029.787000", "115029.789000", "115029.792000", "115029.795000", "115029.798000", "115029.801000", "115029.804000", "115029.807000", "115029.810000", "115029.813000", "115029.816000", "115029.819000", "115029.821000", "115029.824000", "115029.827000", "115029.830000", "115029.833000", "115029.836000", "115029.839000", "115029.842000", "115109.766000", "115109.769000", "115109.857000", "115109.859000", "115109.862000", "115109.865000", "115109.868000", "115109.871000", "115109.874000", "115109.877000", "115109.880000", "115109.883000", "115109.885000", "115109.888000", "115109.895000", "115109.898000", "115109.901000", "115109.904000", "115109.907000", "115109.910000", "115109.912000", "115109.915000", "115109.918000", "115109.921000", "115109.924000", "115109.927000", "115109.930000", "115149.766000", "115149.805000", "115149.807000", "115149.810000", "115149.813000", "115149.816000", "115149.819000", "115149.822000", "115149.825000", "115149.828000", "115149.831000", "115149.834000", "115149.837000", "115149.839000", "115149.842000", "115149.845000", "115149.848000", "115149.851000", "115149.854000", "115149.857000", "115149.860000", "115149.863000", "115149.866000", "115149.869000", "115149.872000", "115149.874000", "115149.877000", "115209.766000", "115209.769000", "115209.782000", "115209.785000", "115209.788000", "115209.791000", "115209.794000", "115209.797000", "115209.800000", "115209.803000", "115209.806000", "115209.809000", "115209.811000", "115249.766000", "115249.771000", "115249.793000", "115249.796000", "115249.798000", "115249.802000", "115249.804000", "115249.807000", "115249.810000", "115249.813000", "115249.816000", "115249.819000", "115249.822000", "115249.825000", "115249.828000", "115249.830000", "115249.834000", "115249.836000", "115249.839000", "115249.842000", "115249.845000", "115249.848000", "115249.851000", "115249.854000", "115249.857000", "115249.860000", "115249.862000", "115329.766000", "115329.769000", "115329.854000", "115329.857000", "115329.860000", "115329.863000", "115329.866000", "115329.869000", "115329.872000", "115329.875000", "115329.878000", "115329.881000", "115329.883000", "115329.886000", "115329.889000", "115329.892000", "115329.895000", "115329.898000", "115329.901000", "115329.904000", "115329.907000", "115329.909000", "115329.912000", "115329.915000", "115329.918000", "115329.921000", "115329.923000", "115400.427000", "115400.430000", "115400.433000", "115400.436000", "115400.439000", "115400.442000", "115400.445000", "115400.447000", "115400.450000", "115400.453000", "115400.456000", "115400.459000", "115400.462000", "115400.465000", "115400.468000", "115400.471000", "115400.474000", "115400.477000", "115400.479000", "115400.482000", "115400.485000"],
