{
  "AcquisitionMatrixPE": 104,
  "AcquisitionNumber": 1,
  "AcquisitionTime": "11:15:57.412500",
  "BandwidthPerPixelPhaseEncode": 17.17,
  "BaseResolution": 104,
  "BodyPartExamined": "BRAIN",
  "CoilString": "HC1-7;NC1_2",
  "ConsistencyInfo": "N4_VE11C_LATEST_20160120",
  "ConversionSoftware": "dcm2niix",
  "ConversionSoftwareVersion": "v1.0.20190720  (JP2:OpenJPEG) GCC7.3.0",
  "DerivedVendorReportedEchoSpacing": 0.000560011,
  "DeviceSerialNumber": "167006",
  "DwellTime": 2.1e-06,
  "EchoTime": 0.037,
  "EchoTrainLength": 104,
  "EffectiveEchoSpacing": 0.000560011,
  "FlipAngle": 52,
  "ImageComments": "Unaliased_MB4_PE3_LB",
  "ImageOrientationPatientDICOM": [0.999768, -0.00395671, 0.021158, 0.0141349, 0.862002, -0.506708],
  "ImageType": [
    "ORIGINAL",
    "PRIMARY",
    "M",
    "MB",
    "ND",
    "MOSAIC"
],
  "ImagingFrequency": 123.259,
  "InPlanePhaseEncodingDirectionDICOM": "COL",
  "InstitutionAddress": "Chemin_Queen-Mary_4565_Montreal_District_CA_H3W_1W5",
  "InstitutionName": "IUGM",
  "InstitutionalDepartmentName": "Department",
  "MRAcquisitionType": "2D",
  "MagneticFieldStrength": 3,
  "Manufacturer": "Siemens",
  "ManufacturersModelName": "Prisma_fit",
  "Modality": "MR",
  "MultibandAccelerationFactor": 4,
  "PartialFourier": 1,
  "PatientPosition": "HFS",
  "PercentPhaseFOV": 100,
  "PhaseEncodingDirection": "j",
  "PhaseEncodingSteps": 104,
  "PhaseResolution": 1,
  "PixelBandwidth": 2290,
  "ProcedureStepDescription": "video_friends",
  "ProtocolName": "func_task-s01e23b",
  "PulseSequenceDetails": "%CustomerSeq%_cmrr_mbep2d_bold",
  "ReceiveCoilActiveElements": "HC1-7;NC1,2",
  "ReceiveCoilName": "HeadNeck_64",
  "ReconMatrixPE": 104,
  "RepetitionTime": 1.49,
  "SAR": 0.0350857,
  "ScanOptions": "FS",
  "ScanningSequence": "EP",
  "SequenceName": "epfid2d1_104",
  "SequenceVariant": "SK_SS",
  "SeriesDescription": "func_task-s01e23b",
  "SeriesNumber": 14,
  "ShimSetting": [626, -7201, -8871, 399, -5, -159, 42, -5],
  "SliceThickness": 2,
  "SliceTiming": [0, 0.785, 0.0975, 0.8825, 0.1975, 0.98, 0.295, 1.0775, 0.3925, 1.1775, 0.49, 1.275, 0.5875, 1.3725, 0.6875, 0, 0.785, 0.0975, 0.8825, 0.1975, 0.98, 0.295, 1.0775, 0.3925, 1.1775, 0.49, 1.275, 0.5875, 1.3725, 0.6875, 0, 0.785, 0.0975, 0.8825, 0.1975, 0.98, 0.295, 1.0775, 0.3925, 1.1775, 0.49, 1.275, 0.5875, 1.3725, 0.6875, 0, 0.785, 0.0975, 0.8825, 0.1975, 0.98, 0.295, 1.0775, 0.3925, 1.1775, 0.49, 1.275, 0.5875, 1.3725, 0.6875],
  "SoftwareVersions": "syngo_MR_E11",
  "SpacingBetweenSlices": 2,
  "StationName": "MRC35049",
  "TaskName": "friends",
  "TotalReadoutTime": 0.0576811,
  "TxRefAmp": 247.64,
  "WipMemBlock": "cfb0629a-a8fe-4c5f-95bb-108969084e1f||Sequence: R016 ve11c/master r/e634e98; Dec 19 2017 11:00:25 by eja",
  "dcmmeta_affine": [
    [-1.9995366334915161, 0.028269760310649872, 0.03246663883328438, 101.31327819824219],
    [0.00791342556476593, 1.7240039110183716, -1.0137789249420166, -60.61500549316406],
    [0.042315948754549026, 1.0134155750274658, 1.723716378211975, -99.21287536621094],
    [0.0, 0.0, 0.0, 1.0]
],
  "dcmmeta_reorient_transform": [
    [0.0, -1.0, 0.0, 103.0],
    [1.0, 0.0, 0.0, 0.0],
    [0.0, 0.0, 1.0, 0.0],
    [0.0, 0.0, 0.0, 1.0]
],
  "dcmmeta_shape": [104, 104, 60, 462],
  "dcmmeta_slice_dim": 2,
  "dcmmeta_version": 0.6,
  "global": {
    "const": {
      "AcquisitionMatrix": [104, 0, 0, 104],
      "AngioFlag": "N",
      "BitsAllocated": 16,
      "BitsStored": 16,
      "BodyPartExamined": "BRAIN",
      "Columns": 832,
      "EchoNumbers": 1,
      "EchoTime": 37.0,
      "EchoTrainLength": 104,
      "FlipAngle": 52.0,
      "HighBit": 15,
      "ImageOrientationPatient": [0.99976831542243, -0.0039567125553, 0.02115797493043, 0.01413487972835, 0.86200198095396, -0.5067077954862],
      "ImagePositionPatient": [-842.34658894349, -741.61435880326, 358.64919981743],
      "ImageType": [
        "ORIGINAL",
        "PRIMARY",
        "M",
        "MB",
        "ND",
        "MOSAIC"
],
      "ImagedNucleus": "1H",
      "ImagingFrequency": 123.259152,
      "InPlanePhaseEncodingDirection": "COL",
      "MRAcquisitionType": "2D",
      "MagneticFieldStrength": 3.0,
      "Manufacturer": "SIEMENS",
      "ManufacturerModelName": "Prisma_fit",
      "Modality": "MR",
      "NumberOfAverages": 1.0,
      "NumberOfPhaseEncodingSteps": 104,
      "PercentPhaseFieldOfView": 100.0,
      "PercentSampling": 100.0,
      "PerformedProcedureStepStartTime": "102420.784000",
      "PhotometricInterpretation": "MONOCHROME2",
      "PixelBandwidth": 2290.0,
      "PixelRepresentation": 0,
      "PixelSpacing": [2.0, 2.0],
      "ProtocolName": "func_task-s01e23b",
      "RepetitionTime": 1490.0,
      "Rows": 832,
      "SAR": 0.0350857109177,
      "SamplesPerPixel": 1,
      "ScanOptions": "FS",
      "ScanningSequence": "EP",
      "SequenceName": "epfid2d1_104",
      "SequenceVariant": [
        "SK",
        "SS"
],
      "SeriesDescription": "func_task-s01e23b",
      "SeriesNumber": 14,
      "SeriesTime": "111729.010000",
      "SliceLocation": -53.137671796999,
      "SliceThickness": 2.0,
      "SmallestImagePixelValue": 0,
      "SoftwareVersions": "syngo MR E11",
      "SpacingBetweenSlices": 1.9999999705829,
      "SpecificCharacterSet": "ISO_IR 100",
      "StudyID": "1",
      "StudyTime": "102420.723000",
      "TransmitCoilName": "Body",
      "VariableFlipAngleFlag": "N",
      "WindowCenterWidthExplanation": "Algo1",
      "dBdt": 0.0},
    "slices": {}
  },
  "time": {
    "samples": {
      "AcquisitionNumber": [1, 2, 3, 4, 5, 6, 7, 8, 9, 10, 11, 12, 13, 14, 15, 16, 17, 18, 19, 20, 21, 22, 23, 24, 25, 26, 27, 28, 29, 30, 31, 32, 33, 34, 35, 36, 37, 38, 39, 40, 41, 42, 43, 44, 45, 46, 47, 48, 49, 50, 51, 52, 53, 54, 55, 56, 57, 58, 59, 60, 61, 62, 63, 64, 65, 66, 67, 68, 69, 70, 71, 72, 73, 74, 75, 76, 77, 78, 79, 80, 81, 82, 83, 84, 85, 86, 87, 88, 89, 90, 91, 92, 93, 94, 95, 96, 97, 98, 99, 100, 101, 102, 103, 104, 105, 106, 107, 108, 109, 110, 111, 112, 113, 114, 115, 116, 117, 118, 119, 120, 121, 122, 123, 124, 125, 126, 127, 128, 129, 130, 131, 132, 133, 134, 135, 136, 137, 138, 139, 140, 141, 142, 143, 144, 145, 146, 147, 148, 149, 150, 151, 152, 153, 154, 155, 156, 157, 158, 159, 160, 161, 162, 163, 164, 165, 166, 167, 168, 169, 170, 171, 172, 173, 174, 175, 176, 177, 178, 179, 180, 181, 182, 183, 184, 185, 186, 187, 188, 189, 190, 191, 192, 193, 194, 195, 196, 197, 198, 199, 200, 201, 202, 203, 204, 205, 206, 207, 208, 209, 210, 211, 212, 213, 214, 215, 216, 217, 218, 219, 220, 221, 222, 223, 224, 225, 226, 227, 228, 229, 230, 231, 232, 233, 234, 235, 236, 237, 238, 239, 240, 241, 242, 243, 244, 245, 246, 247, 248, 249, 250, 251, 252, 253, 254, 255, 256, 257, 258, 259, 260, 261, 262, 263, 264, 265, 266, 267, 268, 269, 270, 271, 272, 273, 274, 275, 276, 277, 278, 279, 280, 281, 282, 283, 284, 285, 286, 287, 288, 289, 290, 291, 292, 293, 294, 295, 296, 297, 298, 299, 300, 301, 302, 303, 304, 305, 306, 307, 308, 309, 310, 311, 312, 313, 314, 315, 316, 317, 318, 319, 320, 321, 322, 323, 324, 325, 326, 327, 328, 329, 330, 331, 332, 333, 334, 335, 336, 337, 338, 339, 340, 341, 342, 343, 344, 345, 346, 347, 348, 349, 350, 351, 352, 353, 354, 355, 356, 357, 358, 359, 360, 361, 362, 363, 364, 365, 366, 367, 368, 369, 370, 371, 372, 373, 374, 375, 376, 377, 378, 379, 380, 381, 382, 383, 384, 385, 386, 387, 388, 389, 390, 391, 392, 393, 394, 395, 396, 397, 398, 399, 400, 401, 402, 403, 404, 405, 406, 407, 408, 409, 410, 411, 412, 413, 414, 415, 416, 417, 418, 419, 420, 421, 422, 423, 424, 425, 426, 427, 428, 429, 430, 431, 432, 433, 434, 435, 436, 437, 438, 439, 440, 441, 442, 443, 444, 445, 446, 447, 448, 449, 450, 451, 452, 453, 454, 455, 456, 457, 458, 459, 460, 461, 462],
      "AcquisitionTime": ["111557.412500", "111558.902500", "111600.392500", "111601.882500", "111603.372500", "111604.862500", "111606.352500", "111607.842500", "111609.332500", "111610.822500", "111612.312500", "111613.802500", "111615.292500", "111616.782500", "111618.272500", "111619.762500", "111621.252500", "111622.742500", "111624.232500", "111625.722500", "111627.212500", "111628.702500", "111630.192500", "111631.682500", "111633.172500", "111634.662500", "111636.152500", "111637.642500", "111639.132500", "111640.622500", "111642.112500", "111643.602500", "111645.092500", "111646.582500", "111648.072500", "111649.562500", "111651.052500", "111652.542500", "111654.032500", "111655.522500", "111657.012500", "111658.502500", "111659.992500", "111701.482500", "111702.972500", "111704.462500", "111705.952500", "111707.442500", "111708.932500", "111710.422500", "111711.912500", "111713.402500", "111714.892500", "111716.382500", "111717.872500", "111719.362500", "111720.852500", "111722.342500", "111723.832500", "111725.322500", "111726.812500", "111728.302500", "111729.792500", "111731.282500", "111732.772500", "111734.262500", "111735.752500", "111737.242500", "111738.732500", "111740.222500", "111741.712500", "111743.202500", "111744.692500", "111746.182500", "111747.672500", "111749.162500", "111750.652500", "111752.142500", "111753.632500", "111755.122500", "111756.612500", "111758.102500", "111759.592500", "111801.082500", "111802.572500", "111804.062500", "111805.552500", "111807.042500", "111808.532500", "111810.022500", "111811.512500", "111813.002500", "111814.492500", "111815.982500", "111817.472500", "111818.962500", "111820.452500", "111821.942500", "111823.432500", "111824.922500", "111826.412500", "111827.902500", "111829.392500", "111830.882500", "111832.372500", "111833.862500", "111835.352500", "111836.842500", "111838.332500", "111839.822500", "111841.312500", "111842.802500", "111844.292500", "111845.782500", "111847.272500", "111848.762500", "111850.252500", "111851.742500", "111853.232500", "111854.722500", "111856.212500", "111857.702500", "111859.192500", "111900.682500", "111902.172500", "111903.662500", "111905.152500", "111906.642500", "111908.132500", "111909.622500", "111911.112500", "111912.602500", "111914.092500", "111915.582500", "111917.072500", "111918.562500", "111920.052500", "111921.542500", "111923.032500", "111924.522500", "111926.012500", "111927.502500", "111928.992500", "111930.482500", "111931.972500", "111933.462500", "111934.952500", "111936.442500", "111937.932500", "111939.422500", "111940.912500", "111942.402500", "111943.892500", "111945.382500", "111946.872500", "111948.362500", "111949.852500", "111951.342500", "111952.832500", "111954.322500", "111955.812500", "111957.302500", "111958.792500", "112000.282500", "112001.772500", "112003.262500", "112004.752500", "112006.242500", "112007.732500", "112009.222500", "112010.712500", "112012.202500", "112013.692500", "112015.182500", "112016.672500", "112018.162500", "112019.652500", "112021.142500", "112022.632500", "112024.122500", "112025.612500", "112027.102500", "112028.592500", "112030.082500", "112031.572500", "112033.062500", "112034.552500", "112036.042500", "112037.532500", "112039.022500", "112040.512500", "112042.002500", "112043.492500", "112044.982500", "112046.472500", "112047.962500", "112049.452500", "112050.942500", "112052.432500", "112053.922500", "112055.412500", "112056.902500", "112058.392500", "112059.882500", "112101.372500", "112102.862500", "112104.352500", "112105.842500", "112107.332500", "112108.822500", "112110.312500", "112111.802500", "112113.292500", "112114.782500", "112116.272500", "112117.762500", "112119.252500", "112120.742500", "112122.232500", "112123.722500", "112125.212500", "112126.702500", "112128.192500", "112129.682500", "112131.172500", "112132.662500", "112134.152500", "112135.642500", "112137.132500", "112138.622500", "112140.112500", "112141.602500", "112143.092500", "112144.582500", "112146.072500", "112147.562500", "112149.052500", "112150.542500", "112152.032500", "112153.522500", "112155.012500", "112156.502500", "112157.992500", "112159.482500", "112200.972500", "112202.462500", "112203.952500", "112205.442500", "112206.932500", "112208.422500", "112209.912500", "112211.402500", "112212.892500", "112214.382500", "112215.872500", "112217.362500", "112218.852500", "112220.342500", "112221.832500", "112223.322500", "112224.812500", "112226.302500", "112227.792500", "112229.282500", "112230.772500", "112232.262500", "112233.752500", "112235.242500", "112236.732500", "112238.222500", "112239.712500", "112241.202500", "112242.692500", "112244.182500", "112245.672500", "112247.162500", "112248.652500", "112250.142500", "112251.632500", "112253.122500", "112254.612500", "112256.102500", "112257.592500", "112259.082500", "112300.572500", "112302.062500", "112303.552500", "112305.042500", "112306.532500", "112308.022500", "112309.512500", "112311.002500", "112312.492500", "112313.982500", "112315.472500", "112316.962500", "112318.452500", "112319.942500", "112321.432500", "112322.922500", "112324.412500", "112325.902500", "112327.392500", "112328.882500", "112330.372500", "112331.862500", "112333.352500", "112334.842500", "112336.332500", "112337.822500", "112339.312500", "112340.802500", "112342.292500", "112343.782500", "112345.272500", "112346.762500", "112348.252500", "112349.742500", "112351.232500", "112352.722500", "112354.212500", "112355.702500", "112357.192500", "112358.682500", "112400.172500", "112401.662500", "112403.152500", "112404.642500", "112406.132500", "112407.622500", "112409.112500", "112410.602500", "112412.092500", "112413.582500", "112415.072500", "112416.562500", "112418.052500", "112419.542500", "112421.032500", "112422.522500", "112424.012500", "112425.502500", "112426.992500", "112428.482500", "112429.972500", "112431.462500", "112432.952500", "112434.442500", "112435.932500", "112437.422500", "112438.912500", "112440.402500", "112441.892500", "112443.382500", "112444.872500", "112446.362500", "112447.852500", "112449.342500", "112450.832500", "112452.322500", "112453.812500", "112455.302500", "112456.792500", "112458.282500", "112459.772500", "112501.262500", "112502.752500", "112504.242500", "112505.732500", "112507.222500", "112508.712500", "112510.202500", "112511.692500", "112513.182500", "112514.672500", "112516.162500", "112517.652500", "112519.142500", "112520.632500", "112522.122500", "112523.612500", "112525.102500", "112526.592500", "112528.082500", "112529.572500", "112531.062500", "112532.552500", "112534.042500", "112535.532500", "112537.022500", "112538.512500", "112540.002500", "112541.492500", "112542.982500", "112544.472500", "112545.962500", "112547.452500", "112548.942500", "112550.432500", "112551.922500", "112553.412500", "112554.902500", "112556.392500", "112557.882500", "112559.372500", "112600.862500", "112602.352500", "112603.842500", "112605.332500", "112606.822500", "112608.312500", "112609.802500", "112611.292500", "112612.782500", "112614.272500", "112615.762500", "112617.252500", "112618.742500", "112620.232500", "112621.722500", "112623.212500", "112624.702500", "112626.192500", "112627.682500", "112629.172500", "112630.662500", "112632.152500", "112633.642500", "112635.132500", "112636.622500", "112638.112500", "112639.602500", "112641.092500", "112642.582500", "112644.072500", "112645.562500", "112647.052500", "112648.542500", "112650.032500", "112651.522500", "112653.012500", "112654.502500", "112655.992500", "112657.482500", "112658.972500", "112700.462500", "112701.952500", "112703.442500", "112704.932500", "112706.422500", "112707.912500", "112709.402500", "112710.892500", "112712.382500", "112713.872500", "112715.362500", "112716.852500", "112718.342500", "112719.832500", "112721.322500", "112722.812500", "112724.302500"],
      "ContentTime": ["111729.012000", "111729.016000", "111729.027000", "111729.030000", "111729.033000", "111729.036000", "111729.039000", "111729.041000", "111729.044000", "111729.047000", "111729.050000", "111729.053000", "111729.064000", "111729.067000", "111729.070000", "111729.072000", "111729.075000", "111729.078000", "111729.081000", "111729.084000", "111729.087000", "111729.089000", "111729.092000", "111729.095000", "111729.098000", "111729.101000", "111729.104000", "111729.107000", "111729.109000", "111729.112000", "111729.122000", "111729.125000", "111729.128000", "111729.131000", "111729.134000", "111748.981000", "111748.984000", "111748.987000", "111748.989000", "111748.992000", "111748.995000", "111748.998000", "111749.002000", "111749.005000", "111749.007000", "111749.010000", "111749.013000", "111749.016000", "111749.019000", "111749.021000", "111749.024000", "111749.027000", "111749.030000", "111749.033000", "111749.036000", "111808.981000", "111808.984000", "111808.998000", "111809.002000", "111809.005000", "111809.008000", "111809.010000", "111809.013000", "111809.016000", "111809.019000", "111809.022000", "111809.025000", "111809.027000", "111809.030000", "111809.033000", "111809.036000", "111809.039000", "111809.041000", "111809.046000", "111809.048000", "111809.051000", "111828.981000", "111828.984000", "111828.987000", "111828.989000", "111828.992000", "111828.995000", "111828.998000", "111829.002000", "111829.004000", "111829.007000", "111829.010000", "111829.013000", "111829.016000", "111829.019000", "111829.022000", "111829.024000", "111829.027000", "111829.030000", "111829.033000", "111829.036000", "111908.980000", "111908.983000", "111908.986000", "111908.988000", "111908.991000", "111908.994000", "111908.997000", "111909.001000", "111909.004000", "111909.006000", "111909.009000", "111909.012000", "111909.015000", "111909.018000", "111909.021000", "111909.023000", "111909.026000", "111909.029000", "111909.032000", "111909.035000", "111909.037000", "111909.040000", "111909.043000", "111909.046000", "111909.049000", "111909.052000", "111909.054000", "111909.057000", "111909.060000", "111909.063000", "111909.066000", "111909.068000", "111948.980000", "111948.983000", "111948.986000", "111948.989000", "111948.992000", "111948.995000", "111949.000000", "111949.003000", "111949.007000", "111949.010000", "111949.013000", "111949.015000", "111949.018000", "111949.021000", "111949.024000", "111949.027000", "111949.030000", "111949.033000", "111949.036000", "111949.038000", "111949.041000", "111949.044000", "111949.047000", "111949.050000", "111949.052000", "111949.055000", "112028.981000", "112028.984000", "112028.987000", "112028.990000", "112028.992000", "112028.995000", "112028.998000", "112029.002000", "112029.005000", "112029.008000", "112029.010000", "112029.013000", "112029.016000", "112029.019000", "112029.022000", "112029.025000", "112029.027000", "112029.030000", "112029.033000", "112029.036000", "112029.039000", "112029.041000", "112029.044000", "112029.047000", "112029.050000", "112029.053000", "112029.056000", "112108.980000", "112108.983000", "112108.986000", "112108.989000", "112108.991000", "112108.994000", "112108.997000", "112109.001000", "112109.004000", "112109.007000", "112109.010000", "112109.013000", "112109.015000", "112109.018000", "112109.021000", "112109.024000", "112109.027000", "112109.030000", "112109.033000", "112109.035000", "112109.038000", "112109.041000", "112109.044000", "112109.047000", "112109.050000", "112109.052000", "112109.055000", "112148.980000", "112148.983000", "112148.986000", "112148.989000", "112148.991000", "112148.994000", "112148.997000", "112149.001000", "112149.004000", "112149.007000", "112149.009000", "112149.012000", "112149.015000", "112149.018000", "112149.021000", "112149.023000", "112149.026000", "112149.029000", "112149.032000", "112149.035000", "112149.038000", "112149.041000", "112149.043000", "112149.046000", "112149.049000", "112149.052000", "112149.055000", "112228.981000", "112228.984000", "112228.987000", "112228.990000", "112228.992000", "112228.995000", "112228.998000", "112229.003000", "112229.006000", "112229.009000", "112229.011000", "112229.014000", "112229.017000", "112229.020000", "112229.023000", "112229.026000", "112229.028000", "112229.031000", "112229.034000", "112229.037000", "112229.040000", "112229.043000", "112229.046000", "112229.048000", "112229.051000", "112229.054000", "112229.057000", "112308.981000", "112308.984000", "112308.987000", "112308.990000", "112308.993000", "112308.995000", "112308.998000", "112309.002000", "112309.005000", "112309.008000", "112309.011000", "112309.013000", "112309.016000", "112309.019000", "112309.022000", "112309.025000", "112309.028000", "112309.031000", "112309.033000", "112309.036000", "112309.039000", "112309.042000", "112309.045000", "112309.048000", "112309.050000", "112309.053000", "112309.056000", "112348.980000", "112348.983000", "112348.986000", "112348.989000", "112348.991000", "112348.994000", "112348.997000", "112349.001000", "112349.004000", "112349.007000", "112349.010000", "112349.013000", "112349.015000", "112349.018000", "112349.021000", "112349.024000", "112349.027000", "112349.030000", "112349.032000", "112349.035000", "112349.038000", "112349.041000", "112349.044000", "112349.047000", "112349.049000", "112349.052000", "112349.055000", "112428.980000", "112428.983000", "112428.986000", "112428.989000", "112428.992000", "112428.995000", "112428.998000", "112429.002000", "112429.005000", "112429.008000", "112429.010000", "112429.013000", "112429.016000", "112429.019000", "112429.022000", "112429.025000", "112429.027000", "112429.030000", "112429.033000", "112429.036000", "112429.039000", "112429.042000", "112429.045000", "112429.047000", "112429.050000", "112429.053000", "112508.981000", "112508.984000", "112508.987000", "112508.990000", "112508.993000", "112508.995000", "112508.998000", "112509.002000", "112509.005000", "112509.008000", "112509.011000", "112509.014000", "112509.017000", "112509.019000", "112509.022000", "112509.025000", "112509.028000", "112509.031000", "112509.033000", "112509.036000", "112509.039000", "112509.042000", "112509.045000", "112509.048000", "112509.051000", "112509.053000", "112509.056000", "112548.980000", "112548.983000", "112548.987000", "112548.990000", "112548.993000", "112548.997000", "112549.001000", "112549.005000", "112549.008000", "112549.011000", "112549.015000", "112549.018000", "112549.021000", "112549.025000", "112549.028000", "112549.031000", "112549.035000", "112549.038000", "112549.041000", "112549.045000", "112549.048000", "112549.051000", "112549.054000", "112549.058000", "112549.061000", "112549.064000", "112549.068000", "112628.980000", "112628.983000", "112628.986000", "112628.989000", "112628.991000", "112628.994000", "112629.011000", "112629.014000", "112629.017000", "112629.020000", "112629.023000", "112629.025000", "112629.028000", "112629.031000", "112629.034000", "112629.037000", "112629.040000", "112629.042000", "112629.045000", "112629.048000", "112629.051000", "112629.054000", "112629.057000", "112629.059000", "112629.062000", "112629.065000", "112629.068000", "112708.981000", "112708.984000", "112708.987000", "112708.989000", "112708.992000", "112708.995000", "112708.998000", "112709.002000", "112709.005000", "112709.008000", "112709.010000", "112709.013000", "112709.016000", "112709.019000", "112709.022000", "112709.025000", "112709.027000", "112709.030000", "112709.033000", "112709.036000", "112709.039000", "112709.042000", "112709.045000", "112709.047000", "112709.050000", "112709.053000", "112709.056000", "112726.485000", "112726.489000", "112726.491000", "112726.494000", "112726.497000", "112726.500000", "112726.503000", "112726.506000", "112726.509000", "112726.512000", "112726.514000", "112726.517000"],
