{
  "AcquisitionMatrixPE": 104,
  "AcquisitionNumber": 1,
  "AcquisitionTime": "14:43:13.702500",
  "BandwidthPerPixelPhaseEncode": 17.17,
  "BaseResolution": 104,
  "BodyPartExamined": "BRAIN",
  "CoilString": "HC1-7;NC1_2",
  "ConsistencyInfo": "N4_VE11C_LATEST_20160120",
  "ConversionSoftware": "dcm2niix",
  "ConversionSoftwareVersion": "v1.0.20190720  (JP2:OpenJPEG) GCC7.3.0",
  "DerivedVendorReportedEchoSpacing": 0.000560011,
  "DeviceSerialNumber": "167006",
  "DwellTime": 2.1e-06,
  "EchoTime": 0.037,
  "EchoTrainLength": 104,
  "EffectiveEchoSpacing": 0.000560011,
  "FlipAngle": 52,
  "ImageComments": "Unaliased_MB4_PE3_LB",
  "ImageOrientationPatientDICOM": [0.999993, -0.00291782, 0.00220715, 0.00349062, 0.9416, -0.336715],
  "ImageType": [
    "ORIGINAL",
    "PRIMARY",
    "M",
    "MB",
    "ND",
    "MOSAIC"
],
  "ImagingFrequency": 123.259,
  "InPlanePhaseEncodingDirectionDICOM": "COL",
  "InstitutionAddress": "Chemin_Queen-Mary_4565_Montreal_District_CA_H3W_1W5",
  "InstitutionName": "IUGM",
  "InstitutionalDepartmentName": "Department",
  "MRAcquisitionType": "2D",
  "MagneticFieldStrength": 3,
  "Manufacturer": "Siemens",
  "ManufacturersModelName": "Prisma_fit",
  "Modality": "MR",
  "MultibandAccelerationFactor": 4,
  "PartialFourier": 1,
  "PatientPosition": "HFS",
  "PercentPhaseFOV": 100,
  "PhaseEncodingDirection": "j",
  "PhaseEncodingSteps": 104,
  "PhaseResolution": 1,
  "PixelBandwidth": 2290,
  "ProcedureStepDescription": "video_friends",
  "ProtocolName": "func_task-friends-s01e21a",
  "PulseSequenceDetails": "%CustomerSeq%_cmrr_mbep2d_bold",
  "ReceiveCoilActiveElements": "HC1-7;NC1,2",
  "ReceiveCoilName": "HeadNeck_64",
  "ReconMatrixPE": 104,
  "RepetitionTime": 1.49,
  "SAR": 0.0286652,
  "ScanOptions": "FS",
  "ScanningSequence": "EP",
  "SequenceName": "epfid2d1_104",
  "SequenceVariant": "SK_SS",
  "SeriesDescription": "func_task-friends-s01e21a",
  "SeriesNumber": 8,
  "ShimSetting": [630, -7165, -8851, 719, 38, 180, 17, 10],
  "SliceThickness": 2,
  "SliceTiming": [0, 0.785, 0.0975, 0.8825, 0.1975, 0.98, 0.295, 1.0775, 0.3925, 1.1775, 0.49, 1.275, 0.5875, 1.3725, 0.6875, 0, 0.785, 0.0975, 0.8825, 0.1975, 0.98, 0.295, 1.0775, 0.3925, 1.1775, 0.49, 1.275, 0.5875, 1.3725, 0.6875, 0, 0.785, 0.0975, 0.8825, 0.1975, 0.98, 0.295, 1.0775, 0.3925, 1.1775, 0.49, 1.275, 0.5875, 1.3725, 0.6875, 0, 0.785, 0.0975, 0.8825, 0.1975, 0.98, 0.295, 1.0775, 0.3925, 1.1775, 0.49, 1.275, 0.5875, 1.3725, 0.6875],
  "SoftwareVersions": "syngo_MR_E11",
  "SpacingBetweenSlices": 2,
  "StationName": "MRC35049",
  "TaskName": "friends",
  "TotalReadoutTime": 0.0576811,
  "TxRefAmp": 207.757,
  "WipMemBlock": "92b546c5-7765-4125-888c-bb878966c0f4||Sequence: R016 ve11c/master r/e634e98; Dec 19 2017 11:00:25 by eja",
  "dcmmeta_affine": [
    [-1.9999866485595703, 0.006981239654123783, 0.002191557316109538, 104.4333267211914],
    [0.00583563232794404, 1.8832001686096191, -0.6734411716461182, -77.27698516845703],
    [0.004414297640323639, 0.6734302639961243, 1.88320791721344, -80.09784698486328],
    [0.0, 0.0, 0.0, 1.0]
],
  "dcmmeta_reorient_transform": [
    [0.0, -1.0, 0.0, 103.0],
    [1.0, 0.0, 0.0, 0.0],
    [0.0, 0.0, 1.0, 0.0],
    [0.0, 0.0, 0.0, 1.0]
],
  "dcmmeta_shape": [104, 104, 60, 477],
  "dcmmeta_slice_dim": 2,
  "dcmmeta_version": 0.6,
  "global": {
    "const": {
      "AcquisitionMatrix": [104, 0, 0, 104],
      "AngioFlag": "N",
      "BitsAllocated": 16,
      "BitsStored": 16,
      "BodyPartExamined": "BRAIN",
      "Columns": 832,
      "EchoNumbers": 1,
      "EchoTime": 37.0,
      "EchoTrainLength": 104,
      "FlipAngle": 52.0,
      "HighBit": 15,
      "ImageOrientationPatient": [0.99999330739856, -0.0029178162708, 0.00220714890872, 0.00349061988298, 0.94160008914763, -0.3367151432443],
      "ImagePositionPatient": [-835.6886917139, -800.05333029379, 232.78729008112],
      "ImageType": [
        "ORIGINAL",
        "PRIMARY",
        "M",
        "MB",
        "ND",
        "MOSAIC"
],
      "ImagedNucleus": "1H",
      "ImagingFrequency": 123.259181,
      "InPlanePhaseEncodingDirection": "COL",
      "MRAcquisitionType": "2D",
      "MagneticFieldStrength": 3.0,
      "Manufacturer": "SIEMENS",
      "ManufacturerModelName": "Prisma_fit",
      "Modality": "MR",
      "NumberOfAverages": 1.0,
      "NumberOfPhaseEncodingSteps": 104,
      "PercentPhaseFieldOfView": 100.0,
      "PercentSampling": 100.0,
      "PerformedProcedureStepStartTime": "142300.746000",
      "PhotometricInterpretation": "MONOCHROME2",
      "PixelBandwidth": 2290.0,
      "PixelRepresentation": 0,
      "PixelSpacing": [2.0, 2.0],
      "ProtocolName": "func_task-friends-s01e21a",
      "RepetitionTime": 1490.0,
      "Rows": 832,
      "SAR": 0.02866521175164,
      "SamplesPerPixel": 1,
      "ScanOptions": "FS",
      "ScanningSequence": "EP",
      "SequenceName": "epfid2d1_104",
      "SequenceVariant": [
        "SK",
        "SS"
],
      "SeriesDescription": "func_task-friends-s01e21a",
      "SeriesNumber": 8,
      "SeriesTime": "144424.523000",
      "SliceLocation": -49.285265741311,
      "SliceThickness": 2.0,
      "SmallestImagePixelValue": 0,
      "SoftwareVersions": "syngo MR E11",
      "SpacingBetweenSlices": 1.9999999924415,
      "SpecificCharacterSet": "ISO_IR 100",
      "StudyID": "1",
      "StudyTime": "142300.692000",
      "TransmitCoilName": "Body",
      "VariableFlipAngleFlag": "N",
      "WindowCenterWidthExplanation": "Algo1",
      "dBdt": 0.0},
    "slices": {}
  },
  "time": {
    "samples": {
      "AcquisitionNumber": [1, 2, 3, 4, 5, 6, 7, 8, 9, 10, 11, 12, 13, 14, 15, 16, 17, 18, 19, 20, 21, 22, 23, 24, 25, 26, 27, 28, 29, 30, 31, 32, 33, 34, 35, 36, 37, 38, 39, 40, 41, 42, 43, 44, 45, 46, 47, 48, 49, 50, 51, 52, 53, 54, 55, 56, 57, 58, 59, 60, 61, 62, 63, 64, 65, 66, 67, 68, 69, 70, 71, 72, 73, 74, 75, 76, 77, 78, 79, 80, 81, 82, 83, 84, 85, 86, 87, 88, 89, 90, 91, 92, 93, 94, 95, 96, 97, 98, 99, 100, 101, 102, 103, 104, 105, 106, 107, 108, 109, 110, 111, 112, 113, 114, 115, 116, 117, 118, 119, 120, 121, 122, 123, 124, 125, 126, 127, 128, 129, 130, 131, 132, 133, 134, 135, 136, 137, 138, 139, 140, 141, 142, 143, 144, 145, 146, 147, 148, 149, 150, 151, 152, 153, 154, 155, 156, 157, 158, 159, 160, 161, 162, 163, 164, 165, 166, 167, 168, 169, 170, 171, 172, 173, 174, 175, 176, 177, 178, 179, 180, 181, 182, 183, 184, 185, 186, 187, 188, 189, 190, 191, 192, 193, 194, 195, 196, 197, 198, 199, 200, 201, 202, 203, 204, 205, 206, 207, 208, 209, 210, 211, 212, 213, 214, 215, 216, 217, 218, 219, 220, 221, 222, 223, 224, 225, 226, 227, 228, 229, 230, 231, 232, 233, 234, 235, 236, 237, 238, 239, 240, 241, 242, 243, 244, 245, 246, 247, 248, 249, 250, 251, 252, 253, 254, 255, 256, 257, 258, 259, 260, 261, 262, 263, 264, 265, 266, 267, 268, 269, 270, 271, 272, 273, 274, 275, 276, 277, 278, 279, 280, 281, 282, 283, 284, 285, 286, 287, 288, 289, 290, 291, 292, 293, 294, 295, 296, 297, 298, 299, 300, 301, 302, 303, 304, 305, 306, 307, 308, 309, 310, 311, 312, 313, 314, 315, 316, 317, 318, 319, 320, 321, 322, 323, 324, 325, 326, 327, 328, 329, 330, 331, 332, 333, 334, 335, 336, 337, 338, 339, 340, 341, 342, 343, 344, 345, 346, 347, 348, 349, 350, 351, 352, 353, 354, 355, 356, 357, 358, 359, 360, 361, 362, 363, 364, 365, 366, 367, 368, 369, 370, 371, 372, 373, 374, 375, 376, 377, 378, 379, 380, 381, 382, 383, 384, 385, 386, 387, 388, 389, 390, 391, 392, 393, 394, 395, 396, 397, 398, 399, 400, 401, 402, 403, 404, 405, 406, 407, 408, 409, 410, 411, 412, 413, 414, 415, 416, 417, 418, 419, 420, 421, 422, 423, 424, 425, 426, 427, 428, 429, 430, 431, 432, 433, 434, 435, 436, 437, 438, 439, 440, 441, 442, 443, 444, 445, 446, 447, 448, 449, 450, 451, 452, 453, 454, 455, 456, 457, 458, 459, 460, 461, 462, 463, 464, 465, 466, 467, 468, 469, 470, 471, 472, 473, 474, 475, 476, 477],
      "AcquisitionTime": ["144313.702500", "144315.192500", "144316.682500", "144318.172500", "144319.662500", "144321.152500", "144322.642500", "144324.132500", "144325.622500", "144327.112500", "144328.602500", "144330.092500", "144331.582500", "144333.072500", "144334.562500", "144336.052500", "144337.542500", "144339.032500", "144340.522500", "144342.012500", "144343.502500", "144344.992500", "144346.482500", "144347.972500", "144349.462500", "144350.952500", "144352.442500", "144353.932500", "144355.422500", "144356.912500", "144358.402500", "144359.892500", "144401.382500", "144402.872500", "144404.362500", "144405.852500", "144407.342500", "144408.832500", "144410.322500", "144411.812500", "144413.302500", "144414.792500", "144416.282500", "144417.772500", "144419.262500", "144420.752500", "144422.242500", "144423.732500", "144425.222500", "144426.712500", "144428.202500", "144429.692500", "144431.182500", "144432.672500", "144434.162500", "144435.652500", "144437.142500", "144438.632500", "144440.122500", "144441.612500", "144443.102500", "144444.592500", "144446.082500", "144447.572500", "144449.062500", "144450.552500", "144452.042500", "144453.532500", "144455.022500", "144456.512500", "144458.002500", "144459.492500", "144500.982500", "144502.472500", "144503.962500", "144505.452500", "144506.942500", "144508.432500", "144509.922500", "144511.412500", "144512.902500", "144514.392500", "144515.882500", "144517.372500", "144518.862500", "144520.352500", "144521.842500", "144523.332500", "144524.822500", "144526.312500", "144527.802500", "144529.292500", "144530.782500", "144532.272500", "144533.762500", "144535.252500", "144536.742500", "144538.232500", "144539.722500", "144541.212500", "144542.702500", "144544.192500", "144545.682500", "144547.172500", "144548.662500", "144550.152500", "144551.642500", "144553.132500", "144554.622500", "144556.112500", "144557.602500", "144559.092500", "144600.582500", "144602.072500", "144603.562500", "144605.052500", "144606.542500", "144608.032500", "144609.522500", "144611.012500", "144612.502500", "144613.992500", "144615.482500", "144616.972500", "144618.462500", "144619.952500", "144621.442500", "144622.932500", "144624.422500", "144625.912500", "144627.402500", "144628.892500", "144630.382500", "144631.872500", "144633.362500", "144634.852500", "144636.342500", "144637.832500", "144639.322500", "144640.812500", "144642.302500", "144643.792500", "144645.282500", "144646.772500", "144648.262500", "144649.752500", "144651.242500", "144652.732500", "144654.222500", "144655.712500", "144657.202500", "144658.692500", "144700.182500", "144701.672500", "144703.162500", "144704.652500", "144706.142500", "144707.632500", "144709.122500", "144710.612500", "144712.102500", "144713.592500", "144715.082500", "144716.572500", "144718.062500", "144719.552500", "144721.042500", "144722.532500", "144724.022500", "144725.512500", "144727.002500", "144728.492500", "144729.982500", "144731.472500", "144732.962500", "144734.452500", "144735.942500", "144737.432500", "144738.922500", "144740.412500", "144741.902500", "144743.392500", "144744.882500", "144746.372500", "144747.862500", "144749.352500", "144750.842500", "144752.332500", "144753.822500", "144755.312500", "144756.802500", "144758.292500", "144759.782500", "144801.272500", "144802.762500", "144804.252500", "144805.742500", "144807.232500", "144808.722500", "144810.212500", "144811.702500", "144813.192500", "144814.682500", "144816.172500", "144817.662500", "144819.152500", "144820.642500", "144822.132500", "144823.622500", "144825.112500", "144826.602500", "144828.092500", "144829.582500", "144831.072500", "144832.562500", "144834.052500", "144835.542500", "144837.032500", "144838.522500", "144840.012500", "144841.502500", "144842.992500", "144844.482500", "144845.972500", "144847.462500", "144848.952500", "144850.442500", "144851.932500", "144853.422500", "144854.912500", "144856.402500", "144857.892500", "144859.382500", "144900.872500", "144902.362500", "144903.852500", "144905.342500", "144906.832500", "144908.322500", "144909.812500", "144911.302500", "144912.792500", "144914.282500", "144915.772500", "144917.262500", "144918.752500", "144920.242500", "144921.732500", "144923.222500", "144924.712500", "144926.202500", "144927.692500", "144929.182500", "144930.672500", "144932.162500", "144933.652500", "144935.142500", "144936.632500", "144938.122500", "144939.612500", "144941.102500", "144942.592500", "144944.082500", "144945.572500", "144947.062500", "144948.552500", "144950.042500", "144951.532500", "144953.022500", "144954.512500", "144956.002500", "144957.492500", "144958.982500", "145000.472500", "145001.962500", "145003.452500", "145004.942500", "145006.432500", "145007.922500", "145009.412500", "145010.902500", "145012.392500", "145013.882500", "145015.372500", "145016.862500", "145018.352500", "145019.842500", "145021.332500", "145022.822500", "145024.312500", "145025.802500", "145027.292500", "145028.782500", "145030.272500", "145031.762500", "145033.252500", "145034.742500", "145036.232500", "145037.722500", "145039.212500", "145040.702500", "145042.192500", "145043.682500", "145045.172500", "145046.662500", "145048.152500", "145049.642500", "145051.132500", "145052.622500", "145054.112500", "145055.602500", "145057.092500", "145058.582500", "145100.072500", "145101.562500", "145103.052500", "145104.542500", "145106.032500", "145107.522500", "145109.012500", "145110.502500", "145111.992500", "145113.482500", "145114.972500", "145116.462500", "145117.952500", "145119.442500", "145120.932500", "145122.422500", "145123.912500", "145125.402500", "145126.892500", "145128.382500", "145129.872500", "145131.362500", "145132.852500", "145134.342500", "145135.832500", "145137.322500", "145138.812500", "145140.302500", "145141.792500", "145143.282500", "145144.772500", "145146.262500", "145147.752500", "145149.242500", "145150.732500", "145152.222500", "145153.712500", "145155.202500", "145156.692500", "145158.182500", "145159.672500", "145201.162500", "145202.652500", "145204.142500", "145205.632500", "145207.122500", "145208.612500", "145210.102500", "145211.592500", "145213.082500", "145214.572500", "145216.062500", "145217.552500", "145219.042500", "145220.532500", "145222.022500", "145223.512500", "145225.002500", "145226.492500", "145227.982500", "145229.472500", "145230.962500", "145232.452500", "145233.942500", "145235.432500", "145236.922500", "145238.412500", "145239.902500", "145241.392500", "145242.882500", "145244.372500", "145245.862500", "145247.352500", "145248.842500", "145250.332500", "145251.822500", "145253.312500", "145254.802500", "145256.292500", "145257.782500", "145259.272500", "145300.762500", "145302.252500", "145303.742500", "145305.232500", "145306.722500", "145308.212500", "145309.702500", "145311.192500", "145312.682500", "145314.172500", "145315.662500", "145317.152500", "145318.642500", "145320.132500", "145321.622500", "145323.112500", "145324.602500", "145326.092500", "145327.582500", "145329.072500", "145330.562500", "145332.052500", "145333.542500", "145335.032500", "145336.522500", "145338.012500", "145339.502500", "145340.992500", "145342.482500", "145343.972500", "145345.462500", "145346.952500", "145348.442500", "145349.932500", "145351.422500", "145352.912500", "145354.402500", "145355.892500", "145357.382500", "145358.872500", "145400.362500", "145401.852500", "145403.342500", "145404.832500", "145406.322500", "145407.812500", "145409.302500", "145410.792500", "145412.282500", "145413.772500", "145415.262500", "145416.752500", "145418.242500", "145419.732500", "145421.222500", "145422.712500", "145424.202500", "145425.692500", "145427.182500", "145428.672500", "145430.162500", "145431.652500", "145433.142500", "145434.632500", "145436.122500", "145437.612500", "145439.102500", "145440.592500", "145442.082500", "145443.572500", "145445.062500", "145446.552500", "145448.042500", "145449.532500", "145451.022500", "145452.512500", "145454.002500", "145455.492500", "145456.982500", "145458.472500", "145459.962500", "145501.452500", "145502.942500"],
      "ContentTime": ["144424.526000", "144424.530000", "144424.533000", "144424.535000", "144424.538000", "144424.541000", "144424.544000", "144424.547000", "144424.555000", "144424.558000", "144424.561000", "144424.578000", "144424.581000", "144424.584000", "144424.587000", "144424.590000", "144444.465000", "144444.468000", "144444.478000", "144444.481000", "144444.484000", "144444.487000", "144444.490000", "144444.493000", "144444.496000", "144444.499000", "144444.501000", "144444.504000", "144444.507000", "144444.510000", "144444.513000", "144444.516000", "144444.519000", "144444.521000", "144444.524000", "144444.527000", "144504.465000", "144504.468000", "144504.471000", "144504.473000", "144504.476000", "144504.479000", "144504.482000", "144504.485000", "144504.488000", "144504.491000", "144504.493000", "144504.501000", "144504.504000", "144504.507000", "144504.510000", "144504.513000", "144504.516000", "144504.519000", "144504.522000", "144504.524000", "144524.465000", "144524.468000", "144524.470000", "144524.473000", "144524.476000", "144524.479000", "144524.482000", "144524.485000", "144524.488000", "144524.491000", "144524.494000", "144524.496000", "144524.499000", "144524.502000", "144524.505000", "144524.508000", "144524.511000", "144524.514000", "144524.516000", "144524.519000", "144544.465000", "144544.468000", "144544.471000", "144544.484000", "144544.487000", "144544.490000", "144544.492000", "144544.495000", "144544.498000", "144544.501000", "144544.504000", "144544.507000", "144544.510000", "144544.512000", "144544.515000", "144544.518000", "144544.521000", "144544.524000", "144544.527000", "144544.530000", "144624.465000", "144624.468000", "144624.471000", "144624.474000", "144624.476000", "144624.479000", "144624.482000", "144624.485000", "144624.488000", "144624.491000", "144624.493000", "144624.496000", "144624.499000", "144624.502000", "144624.505000", "144624.508000", "144624.511000", "144624.513000", "144624.521000", "144624.523000", "144624.526000", "144624.529000", "144624.532000", "144624.535000", "144624.538000", "144624.541000", "144624.544000", "144624.546000", "144624.549000", "144624.552000", "144624.555000", "144704.465000", "144704.468000", "144704.471000", "144704.474000", "144704.476000", "144704.479000", "144704.482000", "144704.485000", "144704.488000", "144704.491000", "144704.494000", "144704.497000", "144704.499000", "144704.502000", "144704.505000", "144704.508000", "144704.511000", "144704.514000", "144704.517000", "144704.519000", "144704.522000", "144704.525000", "144704.528000", "144704.531000", "144704.534000", "144704.537000", "144704.539000", "144744.465000", "144744.468000", "144744.471000", "144744.473000", "144744.476000", "144744.479000", "144744.482000", "144744.485000", "144744.488000", "144744.491000", "144744.494000", "144744.497000", "144744.500000", "144744.503000", "144744.506000", "144744.508000", "144744.511000", "144744.514000", "144744.517000", "144744.520000", "144744.523000", "144744.526000", "144744.529000", "144744.531000", "144744.534000", "144744.537000", "144744.548000", "144824.465000", "144824.468000", "144824.471000", "144824.474000", "144824.477000", "144824.480000", "144824.482000", "144824.485000", "144824.488000", "144824.491000", "144824.494000", "144824.497000", "144824.500000", "144824.504000", "144824.507000", "144824.510000", "144824.512000", "144824.516000", "144824.518000", "144824.521000", "144824.524000", "144824.527000", "144824.530000", "144824.533000", "144824.536000", "144824.539000", "144904.466000", "144904.469000", "144904.472000", "144904.475000", "144904.478000", "144904.481000", "144904.484000", "144904.486000", "144904.489000", "144904.492000", "144904.495000", "144904.498000", "144904.501000", "144904.504000", "144904.506000", "144904.515000", "144904.518000", "144904.521000", "144904.524000", "144904.527000", "144904.530000", "144904.533000", "144904.535000", "144904.538000", "144904.541000", "144904.544000", "144904.547000", "144944.465000", "144944.468000", "144944.471000", "144944.474000", "144944.477000", "144944.479000", "144944.482000", "144944.485000", "144944.488000", "144944.491000", "144944.494000", "144944.497000", "144944.500000", "144944.503000", "144944.505000", "144944.508000", "144944.511000", "144944.514000", "144944.517000", "144944.520000", "144944.523000", "144944.526000", "144944.539000", "144944.542000", "144944.545000", "144944.548000", "144944.551000", "145024.465000", "145024.468000", "145024.471000", "145024.474000", "145024.477000", "145024.479000", "145024.494000", "145024.497000", "145024.499000", "145024.502000", "145024.505000", "145024.508000", "145024.511000", "145024.514000", "145024.516000", "145024.519000", "145024.522000", "145024.525000", "145024.528000", "145024.531000", "145024.534000", "145024.537000", "145024.539000", "145024.542000", "145024.545000", "145024.548000", "145024.551000", "145104.465000", "145104.468000", "145104.471000", "145104.474000", "145104.477000", "145104.479000", "145104.483000", "145104.485000", "145104.488000", "145104.491000", "145104.494000", "145104.497000", "145104.500000", "145104.503000", "145104.506000", "145104.508000", "145104.511000", "145104.514000", "145104.517000", "145104.520000", "145104.523000", "145104.526000", "145104.529000", "145104.531000", "145104.534000", "145104.537000", "145104.540000", "145144.465000", "145144.468000", "145144.471000", "145144.474000", "145144.476000", "145144.480000", "145144.482000", "145144.485000", "145144.488000", "145144.491000", "145144.494000", "145144.497000", "145144.500000", "145144.503000", "145144.505000", "145144.508000", "145144.511000", "145144.514000", "145144.517000", "145144.520000", "145144.523000", "145144.526000", "145144.528000", "145144.547000", "145144.549000", "145144.552000", "145144.555000", "145224.465000", "145224.468000", "145224.471000", "145224.474000", "145224.477000", "145224.480000", "145224.483000", "145224.485000", "145224.488000", "145224.491000", "145224.494000", "145224.497000", "145224.500000", "145224.503000", "145224.506000", "145224.509000", "145224.512000", "145224.514000", "145224.518000", "145224.522000", "145224.525000", "145224.528000", "145224.531000", "145224.533000", "145224.536000", "145224.539000", "145304.465000", "145304.468000", "145304.471000", "145304.474000", "145304.477000", "145304.479000", "145304.482000", "145304.485000", "145304.488000", "145304.491000", "145304.494000", "145304.497000", "145304.500000", "145304.502000", "145304.505000", "145304.508000", "145304.511000", "145304.514000", "145304.517000", "145304.520000", "145304.523000", "145304.525000", "145304.529000", "145304.531000", "145304.534000", "145304.537000", "145304.540000", "145344.466000", "145344.469000", "145344.472000", "145344.475000", "145344.478000", "145344.481000", "145344.484000", "145344.486000", "145344.489000", "145344.492000", "145344.495000", "145344.498000", "145344.501000", "145344.504000", "145344.506000", "145344.509000", "145344.512000", "145344.515000", "145344.518000", "145344.521000", "145344.524000", "145344.527000", "145344.530000", "145344.532000", "145344.535000", "145344.538000", "145344.541000", "145424.465000", "145424.468000", "145424.471000", "145424.473000", "145424.476000", "145424.479000", "145424.482000", "145424.485000", "145424.488000", "145424.491000", "145424.494000", "145424.496000", "145424.499000", "145424.502000", "145424.505000", "145424.508000", "145424.511000", "145424.514000", "145424.517000", "145424.519000", "145424.523000", "145424.525000", "145424.528000", "145424.531000", "145424.534000", "145424.537000", "145424.540000", "145504.465000", "145504.468000", "145504.471000", "145504.474000", "145504.477000", "145504.479000", "145504.482000", "145504.506000", "145504.509000", "145504.512000", "145504.514000", "145504.517000", "145504.520000", "145504.523000", "145504.526000", "145504.529000", "145504.532000", "145504.535000", "145504.537000", "145504.541000", "145504.543000", "145504.546000", "145504.549000", "145504.552000", "145504.555000", "145504.558000", "145504.561000", "145505.490000"],
