{
  "AcquisitionMatrixPE": 104,
  "AcquisitionNumber": 1,
  "AcquisitionTime": "17:56:40.295000",
  "BandwidthPerPixelPhaseEncode": 17.17,
  "BaseResolution": 104,
  "BodyPartExamined": "BRAIN",
  "CoilString": "HC1-7;NC1_2",
  "ConsistencyInfo": "N4_VE11C_LATEST_20160120",
  "ConversionSoftware": "dcm2niix",
  "ConversionSoftwareVersion": "v1.0.20190902",
  "DerivedVendorReportedEchoSpacing": 0.000560011,
  "DeviceSerialNumber": "167006",
  "DwellTime": 2.1e-06,
  "EchoTime": 0.037,
  "EchoTrainLength": 104,
  "EffectiveEchoSpacing": 0.000560011,
  "FlipAngle": 52,
  "HeudiconvVersion": "0.10.0",
  "ImageComments": "Unaliased_MB4_PE3_LB",
  "ImageOrientationPatientDICOM": [0.998622, 0.0469679, 0.0233926, -0.0362688, 0.940042, -0.339124],
  "ImageType": [
    "ORIGINAL",
    "PRIMARY",
    "M",
    "MB",
    "ND",
    "MOSAIC"
],
  "ImagingFrequency": 123.259,
  "InPlanePhaseEncodingDirectionDICOM": "COL",
  "InstitutionAddress": "Chemin_Queen-Mary_4565_Montreal_District_CA_H3W_1W5",
  "InstitutionName": "IUGM",
  "InstitutionalDepartmentName": "Department",
  "MRAcquisitionType": "2D",
  "MagneticFieldStrength": 3,
  "Manufacturer": "Siemens",
  "ManufacturersModelName": "Prisma_fit",
  "Modality": "MR",
  "MultibandAccelerationFactor": 4,
  "PartialFourier": 1,
  "PatientPosition": "HFS",
  "PercentPhaseFOV": 100,
  "PhaseEncodingDirection": "j",
  "PhaseEncodingSteps": 104,
  "PhaseResolution": 1,
  "PixelBandwidth": 2290,
  "ProcedureStepDescription": "video_friends",
  "ProtocolName": "func_task-friends-s05e06a",
  "PulseSequenceDetails": "%CustomerSeq%_cmrr_mbep2d_bold",
  "ReceiveCoilActiveElements": "HC1-7;NC1,2",
  "ReceiveCoilName": "HeadNeck_64",
  "ReconMatrixPE": 104,
  "RepetitionTime": 1.49,
  "SAR": 0.0701788,
  "ScanOptions": "FS",
  "ScanningSequence": "EP",
  "SequenceName": "epfid2d1_104",
  "SequenceVariant": "SK_SS",
  "SeriesDescription": "func_task-friends-s05e06a",
  "SeriesNumber": 13,
  "ShimSetting": [635, -7189, -8755, 685, 72, 6, -3, -21],
  "SliceThickness": 2,
  "SliceTiming": [0, 0.7825, 0.0975, 0.88, 0.195, 0.98, 0.2925, 1.0775, 0.39, 1.175, 0.49, 1.2725, 0.5875, 1.37, 0.685, 0, 0.7825, 0.0975, 0.88, 0.195, 0.98, 0.2925, 1.0775, 0.39, 1.175, 0.49, 1.2725, 0.5875, 1.37, 0.685, 0, 0.7825, 0.0975, 0.88, 0.195, 0.98, 0.2925, 1.0775, 0.39, 1.175, 0.49, 1.2725, 0.5875, 1.37, 0.685, 0, 0.7825, 0.0975, 0.88, 0.195, 0.98, 0.2925, 1.0775, 0.39, 1.175, 0.49, 1.2725, 0.5875, 1.37, 0.685],
  "SoftwareVersions": "syngo_MR_E11",
  "SpacingBetweenSlices": 2,
  "StationName": "MRC35049",
  "TaskName": "s05e06a",
  "TotalReadoutTime": 0.0576811,
  "TxRefAmp": 319.928,
  "WipMemBlock": "3e6e5900-0448-4045-aebe-41a271fcd12a||Sequence: R016 ve11c/master r/e634e98; Dec 19 2017 11:00:25 by eja",
  "dcmmeta_affine": [
    [-1.997244954109192, -0.07253752648830414, 0.07583588361740112, 105.27518463134766],
    [-0.0939357653260231, 1.8800842761993408, -0.6756176352500916, -64.90554809570312],
    [0.04678511247038841, 0.6782487630844116, 1.8809013366699219, -49.44739532470703],
    [0.0, 0.0, 0.0, 1.0]
],
  "dcmmeta_reorient_transform": [
    [0.0, -1.0, 0.0, 103.0],
    [1.0, 0.0, 0.0, 0.0],
    [0.0, 0.0, 1.0, 0.0],
    [0.0, 0.0, 0.0, 1.0]
],
  "dcmmeta_shape": [104, 104, 60, 459],
  "dcmmeta_slice_dim": 2,
  "dcmmeta_version": 0.6,
  "global": {
    "const": {
      "AcquisitionMatrix": [104, 0, 0, 104],
      "AngioFlag": "N",
      "BitsAllocated": 16,
      "BitsStored": 16,
      "BodyPartExamined": "BRAIN",
      "Columns": 832,
      "EchoNumbers": 1,
      "EchoTime": 37.0,
      "EchoTrainLength": 104,
      "FlipAngle": 52.0,
      "HighBit": 15,
      "ImageOrientationPatient": [0.99862245431803, 0.04696788290563, 0.02339255666242, -0.0362687644926, 0.94004213962865, -0.3391243908134],
      "ImagePositionPatient": [-798.39730627544, -847.28642825658, 250.2650035292],
      "ImageType": [
        "ORIGINAL",
        "PRIMARY",
        "M",
        "MB",
        "ND",
        "MOSAIC"
],
      "ImagedNucleus": "1H",
      "ImagingFrequency": 123.258832,
      "InPlanePhaseEncodingDirection": "COL",
      "MRAcquisitionType": "2D",
      "MagneticFieldStrength": 3.0,
      "Manufacturer": "SIEMENS",
      "ManufacturerModelName": "Prisma_fit",
      "Modality": "MR",
      "NumberOfAverages": 1.0,
      "NumberOfPhaseEncodingSteps": 104,
      "PercentPhaseFieldOfView": 100.0,
      "PercentSampling": 100.0,
      "PerformedProcedureStepStartTime": "170220.908000",
      "PhotometricInterpretation": "MONOCHROME2",
      "PixelBandwidth": 2290.0,
      "PixelRepresentation": 0,
      "PixelSpacing": [2.0, 2.0],
      "ProtocolName": "func_task-friends-s05e06a",
      "RepetitionTime": 1490.0,
      "Rows": 832,
      "SAR": 0.07017882949477,
      "SamplesPerPixel": 1,
      "ScanOptions": "FS",
      "ScanningSequence": "EP",
      "SequenceName": "epfid2d1_104",
      "SequenceVariant": [
        "SK",
        "SS"
],
      "SeriesDescription": "func_task-friends-s05e06a",
      "SeriesNumber": 13,
      "SeriesTime": "175807.180000",
      "SliceLocation": -20.585351266639,
      "SliceThickness": 2.0,
      "SmallestImagePixelValue": 0,
      "SoftwareVersions": "syngo MR E11",
      "SpacingBetweenSlices": 1.999999971915,
      "SpecificCharacterSet": "ISO_IR 100",
      "StudyID": "1",
      "StudyTime": "170220.837000",
      "TransmitCoilName": "Body",
      "VariableFlipAngleFlag": "N",
      "WindowCenterWidthExplanation": "Algo1",
      "dBdt": 0.0},
    "slices": {}
  },
  "time": {
    "samples": {
      "AcquisitionNumber": [1, 2, 3, 4, 5, 6, 7, 8, 9, 10, 11, 12, 13, 14, 15, 16, 17, 18, 19, 20, 21, 22, 23, 24, 25, 26, 27, 28, 29, 30, 31, 32, 33, 34, 35, 36, 37, 38, 39, 40, 41, 42, 43, 44, 45, 46, 47, 48, 49, 50, 51, 52, 53, 54, 55, 56, 57, 58, 59, 60, 61, 62, 63, 64, 65, 66, 67, 68, 69, 70, 71, 72, 73, 74, 75, 76, 77, 78, 79, 80, 81, 82, 83, 84, 85, 86, 87, 88, 89, 90, 91, 92, 93, 94, 95, 96, 97, 98, 99, 100, 101, 102, 103, 104, 105, 106, 107, 108, 109, 110, 111, 112, 113, 114, 115, 116, 117, 118, 119, 120, 121, 122, 123, 124, 125, 126, 127, 128, 129, 130, 131, 132, 133, 134, 135, 136, 137, 138, 139, 140, 141, 142, 143, 144, 145, 146, 147, 148, 149, 150, 151, 152, 153, 154, 155, 156, 157, 158, 159, 160, 161, 162, 163, 164, 165, 166, 167, 168, 169, 170, 171, 172, 173, 174, 175, 176, 177, 178, 179, 180, 181, 182, 183, 184, 185, 186, 187, 188, 189, 190, 191, 192, 193, 194, 195, 196, 197, 198, 199, 200, 201, 202, 203, 204, 205, 206, 207, 208, 209, 210, 211, 212, 213, 214, 215, 216, 217, 218, 219, 220, 221, 222, 223, 224, 225, 226, 227, 228, 229, 230, 231, 232, 233, 234, 235, 236, 237, 238, 239, 240, 241, 242, 243, 244, 245, 246, 247, 248, 249, 250, 251, 252, 253, 254, 255, 256, 257, 258, 259, 260, 261, 262, 263, 264, 265, 266, 267, 268, 269, 270, 271, 272, 273, 274, 275, 276, 277, 278, 279, 280, 281, 282, 283, 284, 285, 286, 287, 288, 289, 290, 291, 292, 293, 294, 295, 296, 297, 298, 299, 300, 301, 302, 303, 304, 305, 306, 307, 308, 309, 310, 311, 312, 313, 314, 315, 316, 317, 318, 319, 320, 321, 322, 323, 324, 325, 326, 327, 328, 329, 330, 331, 332, 333, 334, 335, 336, 337, 338, 339, 340, 341, 342, 343, 344, 345, 346, 347, 348, 349, 350, 351, 352, 353, 354, 355, 356, 357, 358, 359, 360, 361, 362, 363, 364, 365, 366, 367, 368, 369, 370, 371, 372, 373, 374, 375, 376, 377, 378, 379, 380, 381, 382, 383, 384, 385, 386, 387, 388, 389, 390, 391, 392, 393, 394, 395, 396, 397, 398, 399, 400, 401, 402, 403, 404, 405, 406, 407, 408, 409, 410, 411, 412, 413, 414, 415, 416, 417, 418, 419, 420, 421, 422, 423, 424, 425, 426, 427, 428, 429, 430, 431, 432, 433, 434, 435, 436, 437, 438, 439, 440, 441, 442, 443, 444, 445, 446, 447, 448, 449, 450, 451, 452, 453, 454, 455, 456, 457, 458, 459],
      "AcquisitionTime": ["175640.295000", "175641.785000", "175643.275000", "175644.765000", "175646.255000", "175647.745000", "175649.235000", "175650.725000", "175652.215000", "175653.705000", "175655.195000", "175656.685000", "175658.175000", "175659.665000", "175701.155000", "175702.645000", "175704.135000", "175705.625000", "175707.115000", "175708.605000", "175710.095000", "175711.585000", "175713.075000", "175714.565000", "175716.055000", "175717.545000", "175719.035000", "175720.525000", "175722.015000", "175723.505000", "175724.995000", "175726.485000", "175727.975000", "175729.465000", "175730.955000", "175732.445000", "175733.935000", "175735.425000", "175736.915000", "175738.405000", "175739.895000", "175741.385000", "175742.875000", "175744.365000", "175745.855000", "175747.345000", "175748.835000", "175750.325000", "175751.815000", "175753.305000", "175754.795000", "175756.285000", "175757.775000", "175759.265000", "175800.755000", "175802.245000", "175803.735000", "175805.225000", "175806.715000", "175808.205000", "175809.695000", "175811.185000", "175812.675000", "175814.165000", "175815.655000", "175817.145000", "175818.635000", "175820.125000", "175821.615000", "175823.105000", "175824.595000", "175826.085000", "175827.575000", "175829.065000", "175830.555000", "175832.045000", "175833.535000", "175835.025000", "175836.515000", "175838.005000", "175839.495000", "175840.985000", "175842.475000", "175843.965000", "175845.455000", "175846.945000", "175848.435000", "175849.925000", "175851.415000", "175852.905000", "175854.395000", "175855.885000", "175857.375000", "175858.865000", "175900.355000", "175901.845000", "175903.335000", "175904.825000", "175906.315000", "175907.805000", "175909.295000", "175910.785000", "175912.275000", "175913.765000", "175915.255000", "175916.745000", "175918.235000", "175919.725000", "175921.215000", "175922.705000", "175924.195000", "175925.685000", "175927.175000", "175928.665000", "175930.155000", "175931.645000", "175933.135000", "175934.625000", "175936.115000", "175937.605000", "175939.095000", "175940.585000", "175942.075000", "175943.565000", "175945.055000", "175946.545000", "175948.035000", "175949.525000", "175951.015000", "175952.505000", "175953.995000", "175955.485000", "175956.975000", "175958.465000", "175959.955000", "180001.445000", "180002.935000", "180004.425000", "180005.915000", "180007.405000", "180008.895000", "180010.385000", "180011.875000", "180013.365000", "180014.855000", "180016.345000", "180017.835000", "180019.325000", "180020.815000", "180022.305000", "180023.795000", "180025.285000", "180026.775000", "180028.265000", "180029.755000", "180031.245000", "180032.735000", "180034.225000", "180035.715000", "180037.205000", "180038.695000", "180040.185000", "180041.675000", "180043.165000", "180044.655000", "180046.145000", "180047.635000", "180049.125000", "180050.615000", "180052.105000", "180053.595000", "180055.085000", "180056.575000", "180058.065000", "180059.555000", "180101.045000", "180102.535000", "180104.025000", "180105.515000", "180107.005000", "180108.495000", "180109.985000", "180111.475000", "180112.965000", "180114.455000", "180115.945000", "180117.435000", "180118.925000", "180120.415000", "180121.905000", "180123.395000", "180124.885000", "180126.375000", "180127.865000", "180129.355000", "180130.845000", "180132.335000", "180133.825000", "180135.315000", "180136.805000", "180138.295000", "180139.785000", "180141.275000", "180142.765000", "180144.255000", "180145.745000", "180147.235000", "180148.725000", "180150.215000", "180151.705000", "180153.195000", "180154.685000", "180156.175000", "180157.665000", "180159.155000", "180200.645000", "180202.135000", "180203.625000", "180205.115000", "180206.605000", "180208.095000", "180209.585000", "180211.075000", "180212.565000", "180214.055000", "180215.545000", "180217.035000", "180218.525000", "180220.015000", "180221.505000", "180222.995000", "180224.485000", "180225.975000", "180227.465000", "180228.955000", "180230.445000", "180231.935000", "180233.425000", "180234.915000", "180236.405000", "180237.895000", "180239.385000", "180240.875000", "180242.365000", "180243.855000", "180245.345000", "180246.835000", "180248.325000", "180249.815000", "180251.305000", "180252.795000", "180254.285000", "180255.775000", "180257.265000", "180258.755000", "180300.245000", "180301.735000", "180303.225000", "180304.715000", "180306.205000", "180307.695000", "180309.185000", "180310.675000", "180312.165000", "180313.655000", "180315.145000", "180316.635000", "180318.125000", "180319.615000", "180321.105000", "180322.595000", "180324.085000", "180325.575000", "180327.065000", "180328.555000", "180330.045000", "180331.535000", "180333.025000", "180334.515000", "180336.005000", "180337.495000", "180338.985000", "180340.475000", "180341.965000", "180343.455000", "180344.945000", "180346.435000", "180347.925000", "180349.415000", "180350.905000", "180352.395000", "180353.885000", "180355.375000", "180356.865000", "180358.355000", "180359.845000", "180401.335000", "180402.825000", "180404.315000", "180405.805000", "180407.295000", "180408.785000", "180410.275000", "180411.765000", "180413.255000", "180414.745000", "180416.235000", "180417.725000", "180419.215000", "180420.705000", "180422.195000", "180423.685000", "180425.175000", "180426.665000", "180428.155000", "180429.645000", "180431.135000", "180432.625000", "180434.115000", "180435.605000", "180437.095000", "180438.585000", "180440.075000", "180441.565000", "180443.055000", "180444.545000", "180446.035000", "180447.525000", "180449.015000", "180450.505000", "180451.995000", "180453.485000", "180454.975000", "180456.465000", "180457.955000", "180459.445000", "180500.935000", "180502.425000", "180503.915000", "180505.405000", "180506.895000", "180508.385000", "180509.875000", "180511.365000", "180512.855000", "180514.345000", "180515.835000", "180517.325000", "180518.815000", "180520.305000", "180521.795000", "180523.285000", "180524.775000", "180526.265000", "180527.755000", "180529.245000", "180530.735000", "180532.225000", "180533.715000", "180535.205000", "180536.695000", "180538.185000", "180539.675000", "180541.165000", "180542.655000", "180544.145000", "180545.635000", "180547.125000", "180548.615000", "180550.105000", "180551.595000", "180553.085000", "180554.575000", "180556.065000", "180557.555000", "180559.045000", "180600.535000", "180602.025000", "180603.515000", "180605.005000", "180606.495000", "180607.985000", "180609.475000", "180610.965000", "180612.455000", "180613.945000", "180615.435000", "180616.925000", "180618.415000", "180619.905000", "180621.395000", "180622.885000", "180624.375000", "180625.865000", "180627.355000", "180628.845000", "180630.335000", "180631.825000", "180633.315000", "180634.805000", "180636.295000", "180637.785000", "180639.275000", "180640.765000", "180642.255000", "180643.745000", "180645.235000", "180646.725000", "180648.215000", "180649.705000", "180651.195000", "180652.685000", "180654.175000", "180655.665000", "180657.155000", "180658.645000", "180700.135000", "180701.625000", "180703.115000", "180704.605000", "180706.095000", "180707.585000", "180709.075000", "180710.565000", "180712.055000", "180713.545000", "180715.035000", "180716.525000", "180718.015000", "180719.505000", "180720.995000", "180722.485000", "180723.975000", "180725.465000", "180726.955000", "180728.445000", "180729.935000", "180731.425000", "180732.915000", "180734.405000", "180735.895000", "180737.385000", "180738.875000", "180740.365000", "180741.855000", "180743.345000", "180744.835000", "180746.325000", "180747.815000", "180749.305000", "180750.795000", "180752.285000", "180753.775000", "180755.265000", "180756.755000", "180758.245000", "180759.735000", "180801.225000", "180802.715000"],
      "ContentTime": ["175807.182000", "175807.186000", "175807.188000", "175807.191000", "175807.194000", "175807.197000", "175807.200000", "175807.202000", "175807.205000", "175807.208000", "175807.211000", "175807.214000", "175807.216000", "175807.219000", "175807.222000", "175807.225000", "175807.228000", "175807.240000", "175807.242000", "175807.245000", "175807.248000", "175807.251000", "175807.254000", "175807.256000", "175807.259000", "175807.262000", "175807.265000", "175807.268000", "175807.271000", "175807.273000", "175807.276000", "175807.279000", "175807.282000", "175827.147000", "175827.150000", "175827.153000", "175827.155000", "175827.158000", "175827.161000", "175827.164000", "175827.167000", "175827.170000", "175827.172000", "175827.175000", "175827.178000", "175827.181000", "175827.184000", "175827.186000", "175827.189000", "175827.192000", "175827.201000", "175827.204000", "175827.216000", "175847.147000", "175847.150000", "175847.152000", "175847.155000", "175847.158000", "175847.161000", "175847.164000", "175847.166000", "175847.169000", "175847.180000", "175847.182000", "175847.185000", "175847.188000", "175847.191000", "175847.194000", "175847.196000", "175847.207000", "175847.210000", "175847.213000", "175847.215000", "175907.147000", "175907.150000", "175907.152000", "175907.158000", "175907.161000", "175907.164000", "175907.167000", "175907.169000", "175907.172000", "175907.175000", "175907.178000", "175907.181000", "175907.184000", "175907.186000", "175907.189000", "175907.192000", "175907.195000", "175907.197000", "175907.200000", "175907.203000", "175907.206000", "175947.147000", "175947.150000", "175947.153000", "175947.156000", "175947.158000", "175947.161000", "175947.164000", "175947.167000", "175947.170000", "175947.173000", "175947.175000", "175947.178000", "175947.181000", "175947.184000", "175947.187000", "175947.189000", "175947.192000", "175947.195000", "175947.198000", "175947.201000", "175947.203000", "175947.206000", "175947.209000", "175947.212000", "175947.214000", "175947.217000", "175947.220000", "175947.223000", "175947.226000", "175947.229000", "180027.147000", "180027.150000", "180027.153000", "180027.155000", "180027.158000", "180027.161000", "180027.164000", "180027.167000", "180027.170000", "180027.173000", "180027.175000", "180027.178000", "180027.181000", "180027.184000", "180027.187000", "180027.210000", "180027.213000", "180027.215000", "180027.218000", "180027.221000", "180027.224000", "180027.227000", "180027.229000", "180027.232000", "180027.235000", "180027.238000", "180027.241000", "180107.147000", "180107.150000", "180107.153000", "180107.155000", "180107.158000", "180107.161000", "180107.164000", "180107.167000", "180107.170000", "180107.172000", "180107.175000", "180107.178000", "180107.181000", "180107.184000", "180107.186000", "180107.189000", "180107.192000", "180107.195000", "180107.198000", "180107.200000", "180107.203000", "180107.206000", "180107.209000", "180107.212000", "180107.214000", "180107.217000", "180107.220000", "180147.147000", "180147.150000", "180147.153000", "180147.156000", "180147.159000", "180147.161000", "180147.164000", "180147.167000", "180147.170000", "180147.173000", "180147.176000", "180147.178000", "180147.181000", "180147.184000", "180147.187000", "180147.190000", "180147.192000", "180147.195000", "180147.198000", "180147.201000", "180147.204000", "180147.206000", "180147.226000", "180147.229000", "180147.232000", "180147.235000", "180147.238000", "180227.147000", "180227.150000", "180227.153000", "180227.155000", "180227.158000", "180227.161000", "180227.164000", "180227.167000", "180227.170000", "180227.172000", "180227.175000", "180227.178000", "180227.181000", "180227.184000", "180227.187000", "180227.189000", "180227.192000", "180227.195000", "180227.198000", "180227.201000", "180227.203000", "180227.206000", "180227.209000", "180227.212000", "180227.215000", "180227.225000", "180227.227000", "180307.147000", "180307.150000", "180307.153000", "180307.155000", "180307.158000", "180307.161000", "180307.164000", "180307.167000", "180307.170000", "180307.173000", "180307.175000", "180307.178000", "180307.181000", "180307.184000", "180307.187000", "180307.190000", "180307.192000", "180307.195000", "180307.198000", "180307.201000", "180307.204000", "180307.206000", "180307.209000", "180307.212000", "180307.215000", "180307.218000", "180307.221000", "180347.147000", "180347.151000", "180347.154000", "180347.157000", "180347.160000", "180347.163000", "180347.165000", "180347.168000", "180347.171000", "180347.174000", "180347.177000", "180347.180000", "180347.182000", "180347.185000", "180347.188000", "180347.191000", "180347.194000", "180347.196000", "180347.199000", "180347.202000", "180347.205000", "180347.208000", "180347.211000", "180347.214000", "180347.216000", "180347.219000", "180427.147000", "180427.150000", "180427.153000", "180427.156000", "180427.158000", "180427.161000", "180427.164000", "180427.167000", "180427.170000", "180427.172000", "180427.175000", "180427.178000", "180427.181000", "180427.184000", "180427.187000", "180427.189000", "180427.192000", "180427.195000", "180427.198000", "180427.201000", "180427.204000", "180427.206000", "180427.209000", "180427.212000", "180427.215000", "180427.218000", "180427.220000", "180507.147000", "180507.150000", "180507.153000", "180507.155000", "180507.158000", "180507.161000", "180507.164000", "180507.167000", "180507.170000", "180507.173000", "180507.176000", "180507.179000", "180507.181000", "180507.184000", "180507.187000", "180507.190000", "180507.193000", "180507.195000", "180507.198000", "180507.201000", "180507.204000", "180507.207000", "180507.210000", "180507.213000", "180507.215000", "180507.218000", "180507.221000", "180547.147000", "180547.150000", "180547.153000", "180547.156000", "180547.159000", "180547.161000", "180547.164000", "180547.167000", "180547.170000", "180547.173000", "180547.176000", "180547.178000", "180547.181000", "180547.184000", "180547.187000", "180547.190000", "180547.192000", "180547.195000", "180547.198000", "180547.201000", "180547.204000", "180547.206000", "180547.209000", "180547.212000", "180547.215000", "180547.218000", "180547.221000", "180627.147000", "180627.150000", "180627.153000", "180627.156000", "180627.158000", "180627.161000", "180627.164000", "180627.167000", "180627.170000", "180627.173000", "180627.176000", "180627.178000", "180627.181000", "180627.184000", "180627.187000", "180627.190000", "180627.192000", "180627.195000", "180627.198000", "180627.201000", "180627.203000", "180627.206000", "180627.219000", "180627.222000", "180627.225000", "180627.228000", "180627.230000", "180707.147000", "180707.150000", "180707.153000", "180707.155000", "180707.158000", "180707.161000", "180707.164000", "180707.167000", "180707.169000", "180707.172000", "180707.175000", "180707.178000", "180707.181000", "180707.184000", "180707.187000", "180707.189000", "180707.192000", "180707.195000", "180707.198000", "180707.201000", "180707.203000", "180707.206000", "180707.209000", "180707.212000", "180707.215000", "180707.218000", "180707.220000", "180747.147000", "180747.150000", "180747.153000", "180747.156000", "180747.159000", "180747.163000", "180747.166000", "180747.169000", "180747.172000", "180747.175000", "180747.178000", "180747.181000", "180747.183000", "180747.186000", "180747.189000", "180747.192000", "180747.195000", "180747.197000", "180747.200000", "180747.203000", "180747.206000", "180747.209000", "180747.212000", "180747.214000", "180747.217000", "180747.220000", "180805.100000", "180805.103000", "180805.106000", "180805.109000", "180805.112000", "180805.114000", "180805.117000", "180805.120000", "180805.123000", "180805.126000", "180805.129000", "180805.132000", "180805.135000"],
