{
  "AcquisitionMatrixPE": 104,
  "AcquisitionNumber": 1,
  "AcquisitionTime": "17:42:17.085000",
  "BandwidthPerPixelPhaseEncode": 17.17,
  "BaseResolution": 104,
  "BodyPartExamined": "BRAIN",
  "CoilString": "HC1-7;NC1_2",
  "ConsistencyInfo": "N4_VE11C_LATEST_20160120",
  "ConversionSoftware": "dcm2niix",
  "ConversionSoftwareVersion": "v1.0.20190902",
  "DerivedVendorReportedEchoSpacing": 0.000560011,
  "DeviceSerialNumber": "167006",
  "DwellTime": 2.1e-06,
  "EchoTime": 0.037,
  "EchoTrainLength": 104,
  "EffectiveEchoSpacing": 0.000560011,
  "FlipAngle": 52,
  "HeudiconvVersion": "0.10.0",
  "ImageComments": "Unaliased_MB4_PE3_LB",
  "ImageOrientationPatientDICOM": [0.998622, 0.0469679, 0.0233926, -0.0362688, 0.940042, -0.339124],
  "ImageType": [
    "ORIGINAL",
    "PRIMARY",
    "M",
    "MB",
    "ND",
    "MOSAIC"
],
  "ImagingFrequency": 123.259,
  "InPlanePhaseEncodingDirectionDICOM": "COL",
  "InstitutionAddress": "Chemin_Queen-Mary_4565_Montreal_District_CA_H3W_1W5",
  "InstitutionName": "IUGM",
  "InstitutionalDepartmentName": "Department",
  "MRAcquisitionType": "2D",
  "MagneticFieldStrength": 3,
  "Manufacturer": "Siemens",
  "ManufacturersModelName": "Prisma_fit",
  "Modality": "MR",
  "MultibandAccelerationFactor": 4,
  "PartialFourier": 1,
  "PatientPosition": "HFS",
  "PercentPhaseFOV": 100,
  "PhaseEncodingDirection": "j",
  "PhaseEncodingSteps": 104,
  "PhaseResolution": 1,
  "PixelBandwidth": 2290,
  "ProcedureStepDescription": "video_friends",
  "ProtocolName": "func_task-friends-s05e05b",
  "PulseSequenceDetails": "%CustomerSeq%_cmrr_mbep2d_bold",
  "ReceiveCoilActiveElements": "HC1-7;NC1,2",
  "ReceiveCoilName": "HeadNeck_64",
  "ReconMatrixPE": 104,
  "RepetitionTime": 1.49,
  "SAR": 0.0702148,
  "ScanOptions": "FS",
  "ScanningSequence": "EP",
  "SequenceName": "epfid2d1_104",
  "SequenceVariant": "SK_SS",
  "SeriesDescription": "func_task-friends-s05e05b",
  "SeriesNumber": 11,
  "ShimSetting": [635, -7189, -8755, 685, 72, 6, -3, -21],
  "SliceThickness": 2,
  "SliceTiming": [0, 0.785, 0.0975, 0.8825, 0.195, 0.98, 0.295, 1.0775, 0.3925, 1.175, 0.49, 1.275, 0.5875, 1.3725, 0.685, 0, 0.785, 0.0975, 0.8825, 0.195, 0.98, 0.295, 1.0775, 0.3925, 1.175, 0.49, 1.275, 0.5875, 1.3725, 0.685, 0, 0.785, 0.0975, 0.8825, 0.195, 0.98, 0.295, 1.0775, 0.3925, 1.175, 0.49, 1.275, 0.5875, 1.3725, 0.685, 0, 0.785, 0.0975, 0.8825, 0.195, 0.98, 0.295, 1.0775, 0.3925, 1.175, 0.49, 1.275, 0.5875, 1.3725, 0.685],
  "SoftwareVersions": "syngo_MR_E11",
  "SpacingBetweenSlices": 2,
  "StationName": "MRC35049",
  "TaskName": "s05e05b",
  "TotalReadoutTime": 0.0576811,
  "TxRefAmp": 319.928,
  "WipMemBlock": "7fb290ce-4de6-48d7-be20-36c18811126f||Sequence: R016 ve11c/master r/e634e98; Dec 19 2017 11:00:25 by eja",
  "dcmmeta_affine": [
    [-1.997244954109192, -0.07253752648830414, 0.07583588361740112, 105.27518463134766],
    [-0.0939357653260231, 1.8800842761993408, -0.6756176352500916, -64.90554809570312],
    [0.04678511247038841, 0.6782487630844116, 1.8809013366699219, -49.44739532470703],
    [0.0, 0.0, 0.0, 1.0]
],
  "dcmmeta_reorient_transform": [
    [0.0, -1.0, 0.0, 103.0],
    [1.0, 0.0, 0.0, 0.0],
    [0.0, 0.0, 1.0, 0.0],
    [0.0, 0.0, 0.0, 1.0]
],
  "dcmmeta_shape": [104, 104, 60, 521],
  "dcmmeta_slice_dim": 2,
  "dcmmeta_version": 0.6,
  "global": {
    "const": {
      "AcquisitionMatrix": [104, 0, 0, 104],
      "AngioFlag": "N",
      "BitsAllocated": 16,
      "BitsStored": 16,
      "BodyPartExamined": "BRAIN",
      "Columns": 832,
      "EchoNumbers": 1,
      "EchoTime": 37.0,
      "EchoTrainLength": 104,
      "FlipAngle": 52.0,
      "HighBit": 15,
      "ImageOrientationPatient": [0.99862245431803, 0.04696788290563, 0.02339255666242, -0.0362687644926, 0.94004213962865, -0.3391243908134],
      "ImagePositionPatient": [-798.39730627544, -847.28642825658, 250.2650035292],
      "ImageType": [
        "ORIGINAL",
        "PRIMARY",
        "M",
        "MB",
        "ND",
        "MOSAIC"
],
      "ImagedNucleus": "1H",
      "ImagingFrequency": 123.258824,
      "InPlanePhaseEncodingDirection": "COL",
      "MRAcquisitionType": "2D",
      "MagneticFieldStrength": 3.0,
      "Manufacturer": "SIEMENS",
      "ManufacturerModelName": "Prisma_fit",
      "Modality": "MR",
      "NumberOfAverages": 1.0,
      "NumberOfPhaseEncodingSteps": 104,
      "PercentPhaseFieldOfView": 100.0,
      "PercentSampling": 100.0,
      "PerformedProcedureStepStartTime": "170220.908000",
      "PhotometricInterpretation": "MONOCHROME2",
      "PixelBandwidth": 2290.0,
      "PixelRepresentation": 0,
      "PixelSpacing": [2.0, 2.0],
      "ProtocolName": "func_task-friends-s05e05b",
      "RepetitionTime": 1490.0,
      "Rows": 832,
      "SAR": 0.07021481805671,
      "SamplesPerPixel": 1,
      "ScanOptions": "FS",
      "ScanningSequence": "EP",
      "SequenceName": "epfid2d1_104",
      "SequenceVariant": [
        "SK",
        "SS"
],
      "SeriesDescription": "func_task-friends-s05e05b",
      "SeriesNumber": 11,
      "SeriesTime": "174339.345000",
      "SliceLocation": -20.585351266639,
      "SliceThickness": 2.0,
      "SmallestImagePixelValue": 0,
      "SoftwareVersions": "syngo MR E11",
      "SpacingBetweenSlices": 1.999999971915,
      "SpecificCharacterSet": "ISO_IR 100",
      "StudyID": "1",
      "StudyTime": "170220.837000",
      "TransmitCoilName": "Body",
      "VariableFlipAngleFlag": "N",
      "WindowCenterWidthExplanation": "Algo1",
      "dBdt": 0.0},
    "slices": {}
  },
  "time": {
    "samples": {
      "AcquisitionNumber": [1, 2, 3, 4, 5, 6, 7, 8, 9, 10, 11, 12, 13, 14, 15, 16, 17, 18, 19, 20, 21, 22, 23, 24, 25, 26, 27, 28, 29, 30, 31, 32, 33, 34, 35, 36, 37, 38, 39, 40, 41, 42, 43, 44, 45, 46, 47, 48, 49, 50, 51, 52, 53, 54, 55, 56, 57, 58, 59, 60, 61, 62, 63, 64, 65, 66, 67, 68, 69, 70, 71, 72, 73, 74, 75, 76, 77, 78, 79, 80, 81, 82, 83, 84, 85, 86, 87, 88, 89, 90, 91, 92, 93, 94, 95, 96, 97, 98, 99, 100, 101, 102, 103, 104, 105, 106, 107, 108, 109, 110, 111, 112, 113, 114, 115, 116, 117, 118, 119, 120, 121, 122, 123, 124, 125, 126, 127, 128, 129, 130, 131, 132, 133, 134, 135, 136, 137, 138, 139, 140, 141, 142, 143, 144, 145, 146, 147, 148, 149, 150, 151, 152, 153, 154, 155, 156, 157, 158, 159, 160, 161, 162, 163, 164, 165, 166, 167, 168, 169, 170, 171, 172, 173, 174, 175, 176, 177, 178, 179, 180, 181, 182, 183, 184, 185, 186, 187, 188, 189, 190, 191, 192, 193, 194, 195, 196, 197, 198, 199, 200, 201, 202, 203, 204, 205, 206, 207, 208, 209, 210, 211, 212, 213, 214, 215, 216, 217, 218, 219, 220, 221, 222, 223, 224, 225, 226, 227, 228, 229, 230, 231, 232, 233, 234, 235, 236, 237, 238, 239, 240, 241, 242, 243, 244, 245, 246, 247, 248, 249, 250, 251, 252, 253, 254, 255, 256, 257, 258, 259, 260, 261, 262, 263, 264, 265, 266, 267, 268, 269, 270, 271, 272, 273, 274, 275, 276, 277, 278, 279, 280, 281, 282, 283, 284, 285, 286, 287, 288, 289, 290, 291, 292, 293, 294, 295, 296, 297, 298, 299, 300, 301, 302, 303, 304, 305, 306, 307, 308, 309, 310, 311, 312, 313, 314, 315, 316, 317, 318, 319, 320, 321, 322, 323, 324, 325, 326, 327, 328, 329, 330, 331, 332, 333, 334, 335, 336, 337, 338, 339, 340, 341, 342, 343, 344, 345, 346, 347, 348, 349, 350, 351, 352, 353, 354, 355, 356, 357, 358, 359, 360, 361, 362, 363, 364, 365, 366, 367, 368, 369, 370, 371, 372, 373, 374, 375, 376, 377, 378, 379, 380, 381, 382, 383, 384, 385, 386, 387, 388, 389, 390, 391, 392, 393, 394, 395, 396, 397, 398, 399, 400, 401, 402, 403, 404, 405, 406, 407, 408, 409, 410, 411, 412, 413, 414, 415, 416, 417, 418, 419, 420, 421, 422, 423, 424, 425, 426, 427, 428, 429, 430, 431, 432, 433, 434, 435, 436, 437, 438, 439, 440, 441, 442, 443, 444, 445, 446, 447, 448, 449, 450, 451, 452, 453, 454, 455, 456, 457, 458, 459, 460, 461, 462, 463, 464, 465, 466, 467, 468, 469, 470, 471, 472, 473, 474, 475, 476, 477, 478, 479, 480, 481, 482, 483, 484, 485, 486, 487, 488, 489, 490, 491, 492, 493, 494, 495, 496, 497, 498, 499, 500, 501, 502, 503, 504, 505, 506, 507, 508, 509, 510, 511, 512, 513, 514, 515, 516, 517, 518, 519, 520, 521],
      "AcquisitionTime": ["174217.085000", "174218.575000", "174220.065000", "174221.555000", "174223.045000", "174224.535000", "174226.025000", "174227.515000", "174229.005000", "174230.495000", "174231.985000", "174233.475000", "174234.965000", "174236.455000", "174237.945000", "174239.435000", "174240.925000", "174242.415000", "174243.905000", "174245.395000", "174246.885000", "174248.375000", "174249.865000", "174251.355000", "174252.845000", "174254.335000", "174255.825000", "174257.315000", "174258.805000", "174300.295000", "174301.785000", "174303.275000", "174304.765000", "174306.255000", "174307.745000", "174309.235000", "174310.725000", "174312.215000", "174313.705000", "174315.195000", "174316.685000", "174318.175000", "174319.665000", "174321.155000", "174322.645000", "174324.135000", "174325.625000", "174327.115000", "174328.605000", "174330.095000", "174331.585000", "174333.075000", "174334.565000", "174336.055000", "174337.545000", "174339.035000", "174340.525000", "174342.015000", "174343.505000", "174344.995000", "174346.485000", "174347.975000", "174349.465000", "174350.955000", "174352.445000", "174353.935000", "174355.425000", "174356.915000", "174358.405000", "174359.895000", "174401.385000", "174402.875000", "174404.365000", "174405.855000", "174407.345000", "174408.835000", "174410.325000", "174411.815000", "174413.305000", "174414.795000", "174416.285000", "174417.775000", "174419.265000", "174420.755000", "174422.245000", "174423.735000", "174425.225000", "174426.715000", "174428.205000", "174429.695000", "174431.185000", "174432.675000", "174434.165000", "174435.655000", "174437.145000", "174438.635000", "174440.125000", "174441.615000", "174443.105000", "174444.595000", "174446.085000", "174447.575000", "174449.065000", "174450.555000", "174452.045000", "174453.535000", "174455.025000", "174456.515000", "174458.005000", "174459.495000", "174500.985000", "174502.475000", "174503.965000", "174505.455000", "174506.945000", "174508.435000", "174509.925000", "174511.415000", "174512.905000", "174514.395000", "174515.885000", "174517.375000", "174518.865000", "174520.355000", "174521.845000", "174523.335000", "174524.825000", "174526.315000", "174527.805000", "174529.295000", "174530.785000", "174532.275000", "174533.765000", "174535.255000", "174536.745000", "174538.235000", "174539.725000", "174541.215000", "174542.705000", "174544.195000", "174545.685000", "174547.175000", "174548.665000", "174550.155000", "174551.645000", "174553.135000", "174554.625000", "174556.115000", "174557.605000", "174559.095000", "174600.585000", "174602.075000", "174603.565000", "174605.055000", "174606.545000", "174608.035000", "174609.525000", "174611.015000", "174612.505000", "174613.995000", "174615.485000", "174616.975000", "174618.465000", "174619.955000", "174621.445000", "174622.935000", "174624.425000", "174625.915000", "174627.405000", "174628.895000", "174630.385000", "174631.875000", "174633.365000", "174634.855000", "174636.345000", "174637.835000", "174639.325000", "174640.815000", "174642.305000", "174643.795000", "174645.285000", "174646.775000", "174648.265000", "174649.755000", "174651.245000", "174652.735000", "174654.225000", "174655.715000", "174657.205000", "174658.695000", "174700.185000", "174701.675000", "174703.165000", "174704.655000", "174706.145000", "174707.635000", "174709.125000", "174710.615000", "174712.105000", "174713.595000", "174715.085000", "174716.575000", "174718.065000", "174719.555000", "174721.045000", "174722.535000", "174724.025000", "174725.515000", "174727.005000", "174728.495000", "174729.985000", "174731.475000", "174732.965000", "174734.455000", "174735.945000", "174737.435000", "174738.925000", "174740.415000", "174741.905000", "174743.395000", "174744.885000", "174746.375000", "174747.865000", "174749.355000", "174750.845000", "174752.335000", "174753.825000", "174755.315000", "174756.805000", "174758.295000", "174759.785000", "174801.275000", "174802.765000", "174804.255000", "174805.745000", "174807.235000", "174808.725000", "174810.215000", "174811.705000", "174813.195000", "174814.685000", "174816.175000", "174817.665000", "174819.155000", "174820.645000", "174822.135000", "174823.625000", "174825.115000", "174826.605000", "174828.095000", "174829.585000", "174831.075000", "174832.565000", "174834.055000", "174835.545000", "174837.035000", "174838.525000", "174840.015000", "174841.505000", "174842.995000", "174844.485000", "174845.975000", "174847.465000", "174848.955000", "174850.445000", "174851.935000", "174853.425000", "174854.915000", "174856.405000", "174857.895000", "174859.385000", "174900.875000", "174902.365000", "174903.855000", "174905.345000", "174906.835000", "174908.325000", "174909.815000", "174911.305000", "174912.795000", "174914.285000", "174915.775000", "174917.265000", "174918.755000", "174920.245000", "174921.735000", "174923.225000", "174924.715000", "174926.205000", "174927.695000", "174929.185000", "174930.675000", "174932.165000", "174933.655000", "174935.145000", "174936.635000", "174938.125000", "174939.615000", "174941.105000", "174942.595000", "174944.085000", "174945.575000", "174947.065000", "174948.555000", "174950.045000", "174951.535000", "174953.025000", "174954.515000", "174956.005000", "174957.495000", "174958.985000", "175000.475000", "175001.965000", "175003.455000", "175004.945000", "175006.435000", "175007.925000", "175009.415000", "175010.905000", "175012.395000", "175013.885000", "175015.375000", "175016.865000", "175018.355000", "175019.845000", "175021.335000", "175022.825000", "175024.315000", "175025.805000", "175027.295000", "175028.785000", "175030.275000", "175031.765000", "175033.255000", "175034.745000", "175036.235000", "175037.725000", "175039.215000", "175040.705000", "175042.195000", "175043.685000", "175045.175000", "175046.665000", "175048.155000", "175049.645000", "175051.135000", "175052.625000", "175054.115000", "175055.605000", "175057.095000", "175058.585000", "175100.075000", "175101.565000", "175103.055000", "175104.545000", "175106.035000", "175107.525000", "175109.015000", "175110.505000", "175111.995000", "175113.485000", "175114.975000", "175116.465000", "175117.955000", "175119.445000", "175120.935000", "175122.425000", "175123.915000", "175125.405000", "175126.895000", "175128.385000", "175129.875000", "175131.365000", "175132.855000", "175134.345000", "175135.835000", "175137.325000", "175138.815000", "175140.305000", "175141.795000", "175143.285000", "175144.775000", "175146.265000", "175147.755000", "175149.245000", "175150.735000", "175152.225000", "175153.715000", "175155.205000", "175156.695000", "175158.185000", "175159.675000", "175201.165000", "175202.655000", "175204.145000", "175205.635000", "175207.125000", "175208.615000", "175210.105000", "175211.595000", "175213.085000", "175214.575000", "175216.065000", "175217.555000", "175219.045000", "175220.535000", "175222.025000", "175223.515000", "175225.005000", "175226.495000", "175227.985000", "175229.475000", "175230.965000", "175232.455000", "175233.945000", "175235.435000", "175236.925000", "175238.415000", "175239.905000", "175241.395000", "175242.885000", "175244.375000", "175245.865000", "175247.355000", "175248.845000", "175250.335000", "175251.825000", "175253.315000", "175254.805000", "175256.295000", "175257.785000", "175259.275000", "175300.765000", "175302.255000", "175303.745000", "175305.235000", "175306.725000", "175308.215000", "175309.705000", "175311.195000", "175312.685000", "175314.175000", "175315.665000", "175317.155000", "175318.645000", "175320.135000", "175321.625000", "175323.115000", "175324.605000", "175326.095000", "175327.585000", "175329.075000", "175330.565000", "175332.055000", "175333.545000", "175335.035000", "175336.525000", "175338.015000", "175339.505000", "175340.995000", "175342.485000", "175343.975000", "175345.465000", "175346.955000", "175348.445000", "175349.935000", "175351.425000", "175352.915000", "175354.405000", "175355.895000", "175357.385000", "175358.875000", "175400.365000", "175401.855000", "175403.345000", "175404.835000", "175406.325000", "175407.815000", "175409.305000", "175410.795000", "175412.285000", "175413.775000", "175415.265000", "175416.755000", "175418.245000", "175419.735000", "175421.225000", "175422.715000", "175424.205000", "175425.695000", "175427.185000", "175428.675000", "175430.165000", "175431.655000", "175433.145000", "175434.635000", "175436.125000", "175437.615000", "175439.105000", "175440.595000", "175442.085000", "175443.575000", "175445.065000", "175446.555000", "175448.045000", "175449.535000", "175451.025000", "175452.515000", "175454.005000", "175455.495000", "175456.985000", "175458.475000", "175459.965000", "175501.455000", "175502.945000", "175504.435000", "175505.925000", "175507.415000", "175508.905000", "175510.395000", "175511.885000"],
      "ContentTime": ["174339.347000", "174339.350000", "174339.353000", "174339.360000", "174339.363000", "174339.366000", "174339.369000", "174339.372000", "174339.374000", "174339.377000", "174339.380000", "174339.383000", "174339.386000", "174339.389000", "174339.391000", "174339.394000", "174339.397000", "174339.400000", "174339.402000", "174339.405000", "174339.408000", "174339.411000", "174339.414000", "174339.417000", "174339.426000", "174339.429000", "174339.431000", "174339.434000", "174339.437000", "174359.318000", "174359.321000", "174359.324000", "174359.326000", "174359.336000", "174359.338000", "174359.341000", "174359.344000", "174359.347000", "174359.350000", "174359.353000", "174359.355000", "174359.358000", "174359.361000", "174359.364000", "174359.366000", "174359.369000", "174359.372000", "174359.375000", "174359.378000", "174419.318000", "174419.321000", "174419.324000", "174419.327000", "174419.329000", "174419.332000", "174419.335000", "174419.338000", "174419.340000", "174419.343000", "174419.346000", "174419.349000", "174419.352000", "174419.354000", "174419.357000", "174419.360000", "174419.363000", "174419.366000", "174419.369000", "174419.371000", "174439.318000", "174439.321000", "174439.330000", "174439.333000", "174439.336000", "174439.339000", "174439.341000", "174439.344000", "174439.347000", "174439.350000", "174439.352000", "174439.355000", "174439.358000", "174439.361000", "174439.364000", "174439.367000", "174439.369000", "174439.372000", "174439.375000", "174439.378000", "174519.318000", "174519.321000", "174519.324000", "174519.326000", "174519.329000", "174519.332000", "174519.335000", "174519.337000", "174519.340000", "174519.343000", "174519.346000", "174519.349000", "174519.351000", "174519.354000", "174519.357000", "174519.360000", "174519.363000", "174519.365000", "174519.368000", "174519.371000", "174519.374000", "174519.377000", "174519.379000", "174519.382000", "174519.385000", "174519.388000", "174519.391000", "174519.393000", "174519.397000", "174519.400000", "174519.403000", "174519.406000", "174519.409000", "174559.319000", "174559.322000", "174559.325000", "174559.327000", "174559.330000", "174559.333000", "174559.336000", "174559.339000", "174559.342000", "174559.344000", "174559.347000", "174559.350000", "174559.353000", "174559.356000", "174559.359000", "174559.362000", "174559.365000", "174559.367000", "174559.370000", "174559.373000", "174559.376000", "174559.379000", "174559.381000", "174559.384000", "174559.387000", "174559.390000", "174639.318000", "174639.321000", "174639.324000", "174639.326000", "174639.329000", "174639.332000", "174639.335000", "174639.338000", "174639.341000", "174639.351000", "174639.354000", "174639.357000", "174639.360000", "174639.363000", "174639.365000", "174639.368000", "174639.371000", "174639.374000", "174639.376000", "174639.379000", "174639.382000", "174639.385000", "174639.388000", "174639.390000", "174639.393000", "174639.396000", "174639.399000", "174719.318000", "174719.321000", "174719.324000", "174719.326000", "174719.329000", "174719.332000", "174719.335000", "174719.338000", "174719.341000", "174719.344000", "174719.346000", "174719.349000", "174719.352000", "174719.355000", "174719.358000", "174719.361000", "174719.363000", "174719.366000", "174719.369000", "174719.372000", "174719.375000", "174719.378000", "174719.380000", "174719.383000", "174719.386000", "174719.389000", "174719.392000", "174759.319000", "174759.322000", "174759.325000", "174759.327000", "174759.330000", "174759.333000", "174759.336000", "174759.339000", "174759.341000", "174759.344000", "174759.347000", "174759.350000", "174759.353000", "174759.356000", "174759.358000", "174759.361000", "174759.364000", "174759.367000", "174759.370000", "174759.373000", "174759.375000", "174759.378000", "174759.381000", "174759.384000", "174759.387000", "174759.389000", "174759.392000", "174839.318000", "174839.321000", "174839.324000", "174839.327000", "174839.329000", "174839.332000", "174839.335000", "174839.338000", "174839.341000", "174839.343000", "174839.346000", "174839.349000", "174839.352000", "174839.355000", "174839.358000", "174839.361000", "174839.363000", "174839.366000", "174839.369000", "174839.372000", "174839.375000", "174839.377000", "174839.380000", "174839.383000", "174839.386000", "174839.389000", "174839.392000", "174919.318000", "174919.321000", "174919.324000", "174919.327000", "174919.329000", "174919.332000", "174919.335000", "174919.338000", "174919.341000", "174919.343000", "174919.346000", "174919.349000", "174919.352000", "174919.355000", "174919.364000", "174919.367000", "174919.370000", "174919.372000", "174919.375000", "174919.378000", "174919.381000", "174919.383000", "174919.386000", "174919.389000", "174919.392000", "174919.395000", "174919.398000", "174959.319000", "174959.322000", "174959.325000", "174959.327000", "174959.330000", "174959.333000", "174959.336000", "174959.339000", "174959.341000", "174959.344000", "174959.347000", "174959.350000", "174959.353000", "174959.356000", "174959.358000", "174959.361000", "174959.364000", "174959.367000", "174959.370000", "174959.372000", "174959.375000", "174959.378000", "174959.381000", "174959.384000", "174959.386000", "174959.389000", "174959.398000", "175039.319000", "175039.322000", "175039.325000", "175039.328000", "175039.330000", "175039.333000", "175039.336000", "175039.339000", "175039.342000", "175039.344000", "175039.354000", "175039.357000", "175039.359000", "175039.362000", "175039.365000", "175039.368000", "175039.371000", "175039.373000", "175039.376000", "175039.379000", "175039.382000", "175039.385000", "175039.387000", "175039.390000", "175039.393000", "175039.396000", "175119.318000", "175119.321000", "175119.324000", "175119.327000", "175119.329000", "175119.332000", "175119.335000", "175119.338000", "175119.341000", "175119.344000", "175119.346000", "175119.349000", "175119.352000", "175119.355000", "175119.358000", "175119.361000", "175119.363000", "175119.366000", "175119.369000", "175119.372000", "175119.375000", "175119.377000", "175119.380000", "175119.383000", "175119.386000", "175119.389000", "175119.392000", "175159.318000", "175159.321000", "175159.324000", "175159.326000", "175159.329000", "175159.332000", "175159.335000", "175159.338000", "175159.341000", "175159.343000", "175159.346000", "175159.349000", "175159.352000", "175159.355000", "175159.358000", "175159.360000", "175159.363000", "175159.372000", "175159.375000", "175159.378000", "175159.380000", "175159.383000", "175159.386000", "175159.389000", "175159.392000", "175159.395000", "175159.397000", "175239.319000", "175239.322000", "175239.325000", "175239.327000", "175239.330000", "175239.333000", "175239.336000", "175239.339000", "175239.342000", "175239.345000", "175239.347000", "175239.350000", "175239.353000", "175239.356000", "175239.359000", "175239.362000", "175239.364000", "175239.367000", "175239.370000", "175239.373000", "175239.376000", "175239.378000", "175239.390000", "175239.393000", "175239.396000", "175239.398000", "175239.401000", "175319.318000", "175319.321000", "175319.324000", "175319.327000", "175319.329000", "175319.332000", "175319.335000", "175319.353000", "175319.355000", "175319.358000", "175319.361000", "175319.364000", "175319.367000", "175319.370000", "175319.373000", "175319.375000", "175319.378000", "175319.381000", "175319.384000", "175319.387000", "175319.390000", "175319.392000", "175319.395000", "175319.398000", "175319.401000", "175319.404000", "175319.407000", "175359.318000", "175359.321000", "175359.324000", "175359.327000", "175359.329000", "175359.332000", "175359.335000", "175359.338000", "175359.341000", "175359.344000", "175359.346000", "175359.349000", "175359.352000", "175359.355000", "175359.358000", "175359.361000", "175359.363000", "175359.366000", "175359.369000", "175359.372000", "175359.375000", "175359.378000", "175359.380000", "175359.383000", "175359.386000", "175359.389000", "175359.392000", "175419.318000", "175419.321000", "175419.324000", "175419.327000", "175419.330000", "175419.332000", "175419.335000", "175419.338000", "175419.341000", "175419.344000", "175419.347000", "175419.349000", "175419.353000", "175459.319000", "175459.322000", "175459.325000", "175459.328000", "175459.331000", "175459.333000", "175459.336000", "175459.339000", "175459.342000", "175459.345000", "175459.347000", "175459.350000", "175459.353000", "175459.356000", "175459.359000", "175459.362000", "175459.365000", "175459.376000", "175459.379000", "175459.381000", "175459.384000", "175459.387000", "175459.390000", "175459.393000", "175459.396000", "175459.398000", "175459.401000", "175513.750000", "175513.753000", "175513.756000", "175513.759000", "175513.762000", "175513.765000", "175513.768000", "175513.771000", "175513.774000", "175513.776000"],
