{
  "AcquisitionMatrixPE": 104,
  "AcquisitionNumber": 1,
  "AcquisitionTime": "17:28:47.630000",
  "BandwidthPerPixelPhaseEncode": 17.17,
  "BaseResolution": 104,
  "BodyPartExamined": "BRAIN",
  "CoilString": "HC1-7;NC1_2",
  "ConsistencyInfo": "N4_VE11C_LATEST_20160120",
  "ConversionSoftware": "dcm2niix",
  "ConversionSoftwareVersion": "v1.0.20190902",
  "DerivedVendorReportedEchoSpacing": 0.000560011,
  "DeviceSerialNumber": "167006",
  "DwellTime": 2.1e-06,
  "EchoTime": 0.037,
  "EchoTrainLength": 104,
  "EffectiveEchoSpacing": 0.000560011,
  "FlipAngle": 52,
  "HeudiconvVersion": "0.10.0",
  "ImageComments": "Unaliased_MB4_PE3_LB",
  "ImageOrientationPatientDICOM": [0.998622, 0.0469679, 0.0233926, -0.0362688, 0.940042, -0.339124],
  "ImageType": [
    "ORIGINAL",
    "PRIMARY",
    "M",
    "MB",
    "ND",
    "MOSAIC"
],
  "ImagingFrequency": 123.259,
  "InPlanePhaseEncodingDirectionDICOM": "COL",
  "InstitutionAddress": "Chemin_Queen-Mary_4565_Montreal_District_CA_H3W_1W5",
  "InstitutionName": "IUGM",
  "InstitutionalDepartmentName": "Department",
  "MRAcquisitionType": "2D",
  "MagneticFieldStrength": 3,
  "Manufacturer": "Siemens",
  "ManufacturersModelName": "Prisma_fit",
  "Modality": "MR",
  "MultibandAccelerationFactor": 4,
  "PartialFourier": 1,
  "PatientPosition": "HFS",
  "PercentPhaseFOV": 100,
  "PhaseEncodingDirection": "j",
  "PhaseEncodingSteps": 104,
  "PhaseResolution": 1,
  "PixelBandwidth": 2290,
  "ProcedureStepDescription": "video_friends",
  "ProtocolName": "func_task-friends-s05e05a",
  "PulseSequenceDetails": "%CustomerSeq%_cmrr_mbep2d_bold",
  "ReceiveCoilActiveElements": "HC1-7;NC1,2",
  "ReceiveCoilName": "HeadNeck_64",
  "ReconMatrixPE": 104,
  "RepetitionTime": 1.49,
  "SAR": 0.0701956,
  "ScanOptions": "FS",
  "ScanningSequence": "EP",
  "SequenceName": "epfid2d1_104",
  "SequenceVariant": "SK_SS",
  "SeriesDescription": "func_task-friends-s05e05a",
  "SeriesNumber": 9,
  "ShimSetting": [635, -7189, -8755, 685, 72, 6, -3, -21],
  "SliceThickness": 2,
  "SliceTiming": [0, 0.785, 0.1, 0.8825, 0.1975, 0.98, 0.295, 1.08, 0.3925, 1.1775, 0.49, 1.275, 0.59, 1.3725, 0.6875, 0, 0.785, 0.1, 0.8825, 0.1975, 0.98, 0.295, 1.08, 0.3925, 1.1775, 0.49, 1.275, 0.59, 1.3725, 0.6875, 0, 0.785, 0.1, 0.8825, 0.1975, 0.98, 0.295, 1.08, 0.3925, 1.1775, 0.49, 1.275, 0.59, 1.3725, 0.6875, 0, 0.785, 0.1, 0.8825, 0.1975, 0.98, 0.295, 1.08, 0.3925, 1.1775, 0.49, 1.275, 0.59, 1.3725, 0.6875],
  "SoftwareVersions": "syngo_MR_E11",
  "SpacingBetweenSlices": 2,
  "StationName": "MRC35049",
  "TaskName": "s05e05a",
  "TotalReadoutTime": 0.0576811,
  "TxRefAmp": 319.928,
  "WipMemBlock": "5fa3fac8-e27e-4e12-98a9-5213330379f1||Sequence: R016 ve11c/master r/e634e98; Dec 19 2017 11:00:25 by eja",
  "dcmmeta_affine": [
    [-1.997244954109192, -0.07253752648830414, 0.07583588361740112, 105.27518463134766],
    [-0.0939357653260231, 1.8800842761993408, -0.6756176352500916, -64.90554809570312],
    [0.04678511247038841, 0.6782487630844116, 1.8809013366699219, -49.44739532470703],
    [0.0, 0.0, 0.0, 1.0]
],
  "dcmmeta_reorient_transform": [
    [0.0, -1.0, 0.0, 103.0],
    [1.0, 0.0, 0.0, 0.0],
    [0.0, 0.0, 1.0, 0.0],
    [0.0, 0.0, 0.0, 1.0]
],
  "dcmmeta_shape": [104, 104, 60, 486],
  "dcmmeta_slice_dim": 2,
  "dcmmeta_version": 0.6,
  "global": {
    "const": {
      "AcquisitionMatrix": [104, 0, 0, 104],
      "AngioFlag": "N",
      "BitsAllocated": 16,
      "BitsStored": 16,
      "BodyPartExamined": "BRAIN",
      "Columns": 832,
      "EchoNumbers": 1,
      "EchoTime": 37.0,
      "EchoTrainLength": 104,
      "FlipAngle": 52.0,
      "HighBit": 15,
      "ImageOrientationPatient": [0.99862245431803, 0.04696788290563, 0.02339255666242, -0.0362687644926, 0.94004213962865, -0.3391243908134],
      "ImagePositionPatient": [-798.39730627544, -847.28642825658, 250.2650035292],
      "ImageType": [
        "ORIGINAL",
        "PRIMARY",
        "M",
        "MB",
        "ND",
        "MOSAIC"
],
      "ImagedNucleus": "1H",
      "ImagingFrequency": 123.258814,
      "InPlanePhaseEncodingDirection": "COL",
      "MRAcquisitionType": "2D",
      "MagneticFieldStrength": 3.0,
      "Manufacturer": "SIEMENS",
      "ManufacturerModelName": "Prisma_fit",
      "Modality": "MR",
      "NumberOfAverages": 1.0,
      "NumberOfPhaseEncodingSteps": 104,
      "PercentPhaseFieldOfView": 100.0,
      "PercentSampling": 100.0,
      "PerformedProcedureStepStartTime": "170220.908000",
      "PhotometricInterpretation": "MONOCHROME2",
      "PixelBandwidth": 2290.0,
      "PixelRepresentation": 0,
      "PixelSpacing": [2.0, 2.0],
      "ProtocolName": "func_task-friends-s05e05a",
      "RepetitionTime": 1490.0,
      "Rows": 832,
      "SAR": 0.07019561690849,
      "SamplesPerPixel": 1,
      "ScanOptions": "FS",
      "ScanningSequence": "EP",
      "SequenceName": "epfid2d1_104",
      "SequenceVariant": [
        "SK",
        "SS"
],
      "SeriesDescription": "func_task-friends-s05e05a",
      "SeriesNumber": 9,
      "SeriesTime": "173010.630000",
      "SliceLocation": -20.585351266639,
      "SliceThickness": 2.0,
      "SmallestImagePixelValue": 0,
      "SoftwareVersions": "syngo MR E11",
      "SpacingBetweenSlices": 1.999999971915,
      "SpecificCharacterSet": "ISO_IR 100",
      "StudyID": "1",
      "StudyTime": "170220.837000",
      "TransmitCoilName": "Body",
      "VariableFlipAngleFlag": "N",
      "WindowCenterWidthExplanation": "Algo1",
      "dBdt": 0.0},
    "slices": {}
  },
  "time": {
    "samples": {
      "AcquisitionNumber": [1, 2, 3, 4, 5, 6, 7, 8, 9, 10, 11, 12, 13, 14, 15, 16, 17, 18, 19, 20, 21, 22, 23, 24, 25, 26, 27, 28, 29, 30, 31, 32, 33, 34, 35, 36, 37, 38, 39, 40, 41, 42, 43, 44, 45, 46, 47, 48, 49, 50, 51, 52, 53, 54, 55, 56, 57, 58, 59, 60, 61, 62, 63, 64, 65, 66, 67, 68, 69, 70, 71, 72, 73, 74, 75, 76, 77, 78, 79, 80, 81, 82, 83, 84, 85, 86, 87, 88, 89, 90, 91, 92, 93, 94, 95, 96, 97, 98, 99, 100, 101, 102, 103, 104, 105, 106, 107, 108, 109, 110, 111, 112, 113, 114, 115, 116, 117, 118, 119, 120, 121, 122, 123, 124, 125, 126, 127, 128, 129, 130, 131, 132, 133, 134, 135, 136, 137, 138, 139, 140, 141, 142, 143, 144, 145, 146, 147, 148, 149, 150, 151, 152, 153, 154, 155, 156, 157, 158, 159, 160, 161, 162, 163, 164, 165, 166, 167, 168, 169, 170, 171, 172, 173, 174, 175, 176, 177, 178, 179, 180, 181, 182, 183, 184, 185, 186, 187, 188, 189, 190, 191, 192, 193, 194, 195, 196, 197, 198, 199, 200, 201, 202, 203, 204, 205, 206, 207, 208, 209, 210, 211, 212, 213, 214, 215, 216, 217, 218, 219, 220, 221, 222, 223, 224, 225, 226, 227, 228, 229, 230, 231, 232, 233, 234, 235, 236, 237, 238, 239, 240, 241, 242, 243, 244, 245, 246, 247, 248, 249, 250, 251, 252, 253, 254, 255, 256, 257, 258, 259, 260, 261, 262, 263, 264, 265, 266, 267, 268, 269, 270, 271, 272, 273, 274, 275, 276, 277, 278, 279, 280, 281, 282, 283, 284, 285, 286, 287, 288, 289, 290, 291, 292, 293, 294, 295, 296, 297, 298, 299, 300, 301, 302, 303, 304, 305, 306, 307, 308, 309, 310, 311, 312, 313, 314, 315, 316, 317, 318, 319, 320, 321, 322, 323, 324, 325, 326, 327, 328, 329, 330, 331, 332, 333, 334, 335, 336, 337, 338, 339, 340, 341, 342, 343, 344, 345, 346, 347, 348, 349, 350, 351, 352, 353, 354, 355, 356, 357, 358, 359, 360, 361, 362, 363, 364, 365, 366, 367, 368, 369, 370, 371, 372, 373, 374, 375, 376, 377, 378, 379, 380, 381, 382, 383, 384, 385, 386, 387, 388, 389, 390, 391, 392, 393, 394, 395, 396, 397, 398, 399, 400, 401, 402, 403, 404, 405, 406, 407, 408, 409, 410, 411, 412, 413, 414, 415, 416, 417, 418, 419, 420, 421, 422, 423, 424, 425, 426, 427, 428, 429, 430, 431, 432, 433, 434, 435, 436, 437, 438, 439, 440, 441, 442, 443, 444, 445, 446, 447, 448, 449, 450, 451, 452, 453, 454, 455, 456, 457, 458, 459, 460, 461, 462, 463, 464, 465, 466, 467, 468, 469, 470, 471, 472, 473, 474, 475, 476, 477, 478, 479, 480, 481, 482, 483, 484, 485, 486],
      "AcquisitionTime": ["172847.630000", "172849.120000", "172850.610000", "172852.100000", "172853.590000", "172855.080000", "172856.570000", "172858.060000", "172859.550000", "172901.040000", "172902.530000", "172904.020000", "172905.510000", "172907.000000", "172908.490000", "172909.980000", "172911.470000", "172912.960000", "172914.450000", "172915.940000", "172917.430000", "172918.920000", "172920.410000", "172921.900000", "172923.390000", "172924.880000", "172926.370000", "172927.860000", "172929.350000", "172930.840000", "172932.330000", "172933.820000", "172935.310000", "172936.800000", "172938.290000", "172939.780000", "172941.270000", "172942.760000", "172944.250000", "172945.740000", "172947.230000", "172948.720000", "172950.210000", "172951.700000", "172953.190000", "172954.680000", "172956.170000", "172957.660000", "172959.150000", "173000.640000", "173002.130000", "173003.620000", "173005.110000", "173006.600000", "173008.090000", "173009.580000", "173011.070000", "173012.560000", "173014.050000", "173015.540000", "173017.030000", "173018.520000", "173020.010000", "173021.500000", "173022.990000", "173024.480000", "173025.970000", "173027.460000", "173028.950000", "173030.440000", "173031.930000", "173033.420000", "173034.910000", "173036.400000", "173037.890000", "173039.380000", "173040.870000", "173042.360000", "173043.850000", "173045.340000", "173046.830000", "173048.320000", "173049.810000", "173051.300000", "173052.790000", "173054.280000", "173055.770000", "173057.260000", "173058.750000", "173100.240000", "173101.730000", "173103.220000", "173104.710000", "173106.200000", "173107.690000", "173109.180000", "173110.670000", "173112.160000", "173113.650000", "173115.140000", "173116.630000", "173118.120000", "173119.610000", "173121.100000", "173122.590000", "173124.080000", "173125.570000", "173127.060000", "173128.550000", "173130.040000", "173131.530000", "173133.020000", "173134.510000", "173136.000000", "173137.490000", "173138.980000", "173140.470000", "173141.960000", "173143.450000", "173144.940000", "173146.430000", "173147.920000", "173149.410000", "173150.900000", "173152.390000", "173153.880000", "173155.370000", "173156.860000", "173158.350000", "173159.840000", "173201.330000", "173202.820000", "173204.310000", "173205.800000", "173207.290000", "173208.780000", "173210.270000", "173211.760000", "173213.250000", "173214.740000", "173216.230000", "173217.720000", "173219.210000", "173220.700000", "173222.190000", "173223.680000", "173225.170000", "173226.660000", "173228.150000", "173229.640000", "173231.130000", "173232.620000", "173234.110000", "173235.600000", "173237.090000", "173238.580000", "173240.070000", "173241.560000", "173243.050000", "173244.540000", "173246.030000", "173247.520000", "173249.010000", "173250.500000", "173251.990000", "173253.480000", "173254.970000", "173256.460000", "173257.950000", "173259.440000", "173300.930000", "173302.420000", "173303.910000", "173305.400000", "173306.890000", "173308.380000", "173309.870000", "173311.360000", "173312.850000", "173314.340000", "173315.830000", "173317.320000", "173318.810000", "173320.300000", "173321.790000", "173323.280000", "173324.770000", "173326.260000", "173327.750000", "173329.240000", "173330.730000", "173332.220000", "173333.710000", "173335.200000", "173336.690000", "173338.180000", "173339.670000", "173341.160000", "173342.650000", "173344.140000", "173345.630000", "173347.120000", "173348.610000", "173350.100000", "173351.590000", "173353.080000", "173354.570000", "173356.060000", "173357.550000", "173359.040000", "173400.530000", "173402.020000", "173403.510000", "173405.000000", "173406.490000", "173407.980000", "173409.470000", "173410.960000", "173412.450000", "173413.940000", "173415.430000", "173416.920000", "173418.410000", "173419.900000", "173421.390000", "173422.880000", "173424.370000", "173425.860000", "173427.350000", "173428.840000", "173430.330000", "173431.820000", "173433.310000", "173434.800000", "173436.290000", "173437.780000", "173439.270000", "173440.760000", "173442.250000", "173443.740000", "173445.230000", "173446.720000", "173448.210000", "173449.700000", "173451.190000", "173452.680000", "173454.170000", "173455.660000", "173457.150000", "173458.640000", "173500.130000", "173501.620000", "173503.110000", "173504.600000", "173506.090000", "173507.580000", "173509.070000", "173510.560000", "173512.050000", "173513.540000", "173515.030000", "173516.520000", "173518.010000", "173519.500000", "173520.990000", "173522.480000", "173523.970000", "173525.460000", "173526.950000", "173528.440000", "173529.930000", "173531.420000", "173532.910000", "173534.400000", "173535.890000", "173537.380000", "173538.870000", "173540.360000", "173541.850000", "173543.340000", "173544.830000", "173546.320000", "173547.810000", "173549.300000", "173550.790000", "173552.280000", "173553.770000", "173555.260000", "173556.750000", "173558.240000", "173559.730000", "173601.220000", "173602.710000", "173604.200000", "173605.690000", "173607.180000", "173608.670000", "173610.160000", "173611.650000", "173613.140000", "173614.630000", "173616.120000", "173617.610000", "173619.100000", "173620.590000", "173622.080000", "173623.570000", "173625.060000", "173626.550000", "173628.040000", "173629.530000", "173631.020000", "173632.510000", "173634.000000", "173635.490000", "173636.980000", "173638.470000", "173639.960000", "173641.450000", "173642.940000", "173644.430000", "173645.920000", "173647.410000", "173648.900000", "173650.390000", "173651.880000", "173653.370000", "173654.860000", "173656.350000", "173657.840000", "173659.330000", "173700.820000", "173702.310000", "173703.800000", "173705.290000", "173706.780000", "173708.270000", "173709.760000", "173711.250000", "173712.740000", "173714.230000", "173715.720000", "173717.210000", "173718.700000", "173720.190000", "173721.680000", "173723.170000", "173724.660000", "173726.150000", "173727.640000", "173729.130000", "173730.620000", "173732.110000", "173733.600000", "173735.090000", "173736.580000", "173738.070000", "173739.560000", "173741.050000", "173742.540000", "173744.030000", "173745.520000", "173747.010000", "173748.500000", "173749.990000", "173751.480000", "173752.970000", "173754.460000", "173755.950000", "173757.440000", "173758.930000", "173800.420000", "173801.910000", "173803.400000", "173804.890000", "173806.380000", "173807.870000", "173809.360000", "173810.850000", "173812.340000", "173813.830000", "173815.320000", "173816.810000", "173818.300000", "173819.790000", "173821.280000", "173822.770000", "173824.260000", "173825.750000", "173827.240000", "173828.730000", "173830.220000", "173831.710000", "173833.200000", "173834.690000", "173836.180000", "173837.670000", "173839.160000", "173840.650000", "173842.140000", "173843.630000", "173845.120000", "173846.610000", "173848.100000", "173849.590000", "173851.080000", "173852.570000", "173854.060000", "173855.550000", "173857.040000", "173858.530000", "173900.020000", "173901.510000", "173903.000000", "173904.490000", "173905.980000", "173907.470000", "173908.960000", "173910.450000", "173911.940000", "173913.430000", "173914.920000", "173916.410000", "173917.900000", "173919.390000", "173920.880000", "173922.370000", "173923.860000", "173925.350000", "173926.840000", "173928.330000", "173929.820000", "173931.310000", "173932.800000", "173934.290000", "173935.780000", "173937.270000", "173938.760000", "173940.250000", "173941.740000", "173943.230000", "173944.720000", "173946.210000", "173947.700000", "173949.190000", "173950.680000", "173952.170000", "173953.660000", "173955.150000", "173956.640000", "173958.130000", "173959.620000", "174001.110000", "174002.600000", "174004.090000", "174005.580000", "174007.070000", "174008.560000", "174010.050000", "174011.540000", "174013.030000", "174014.520000", "174016.010000", "174017.500000", "174018.990000", "174020.480000", "174021.970000", "174023.460000", "174024.950000", "174026.440000", "174027.930000", "174029.420000", "174030.910000", "174032.400000", "174033.890000", "174035.380000", "174036.870000", "174038.360000", "174039.850000", "174041.340000", "174042.830000", "174044.320000", "174045.810000", "174047.300000", "174048.790000", "174050.280000"],
      "ContentTime": ["173010.633000", "173010.636000", "173010.639000", "173010.642000", "173010.645000", "173010.648000", "173010.651000", "173010.653000", "173010.656000", "173010.659000", "173010.662000", "173010.665000", "173010.668000", "173010.670000", "173010.680000", "173010.682000", "173010.685000", "173010.688000", "173010.691000", "173010.694000", "173010.702000", "173010.704000", "173010.707000", "173010.710000", "173010.713000", "173010.716000", "173010.719000", "173010.721000", "173010.724000", "173030.607000", "173030.610000", "173030.613000", "173030.627000", "173030.635000", "173030.638000", "173030.640000", "173030.643000", "173030.646000", "173030.649000", "173030.652000", "173030.655000", "173030.657000", "173030.660000", "173030.663000", "173030.666000", "173030.669000", "173030.671000", "173030.674000", "173030.677000", "173050.606000", "173050.609000", "173050.612000", "173050.614000", "173050.617000", "173050.620000", "173050.623000", "173050.626000", "173050.628000", "173050.631000", "173050.634000", "173050.637000", "173050.640000", "173050.642000", "173050.645000", "173050.648000", "173050.651000", "173050.654000", "173050.657000", "173050.659000", "173110.606000", "173110.609000", "173110.612000", "173110.615000", "173110.617000", "173110.620000", "173110.623000", "173110.626000", "173110.629000", "173110.631000", "173110.634000", "173110.637000", "173110.640000", "173110.643000", "173110.646000", "173110.648000", "173110.651000", "173110.654000", "173110.657000", "173110.660000", "173130.606000", "173130.609000", "173130.612000", "173130.623000", "173130.626000", "173130.629000", "173130.632000", "173130.634000", "173130.637000", "173130.640000", "173130.643000", "173130.645000", "173130.648000", "173130.651000", "173130.654000", "173130.657000", "173130.659000", "173130.668000", "173130.671000", "173130.674000", "173210.606000", "173210.609000", "173210.612000", "173210.614000", "173210.617000", "173210.620000", "173210.627000", "173210.630000", "173210.633000", "173210.636000", "173210.639000", "173210.642000", "173210.644000", "173210.647000", "173210.650000", "173210.653000", "173210.656000", "173210.659000", "173210.661000", "173210.664000", "173210.667000", "173210.670000", "173210.681000", "173210.684000", "173210.687000", "173210.690000", "173250.607000", "173250.610000", "173250.613000", "173250.615000", "173250.618000", "173250.621000", "173250.624000", "173250.627000", "173250.630000", "173250.632000", "173250.635000", "173250.638000", "173250.641000", "173250.644000", "173250.647000", "173250.649000", "173250.652000", "173250.655000", "173250.658000", "173250.661000", "173250.663000", "173250.666000", "173250.669000", "173250.672000", "173250.675000", "173250.678000", "173250.680000", "173330.606000", "173330.609000", "173330.612000", "173330.614000", "173330.617000", "173330.620000", "173330.623000", "173330.626000", "173330.629000", "173330.631000", "173330.634000", "173330.637000", "173330.640000", "173330.643000", "173330.646000", "173330.648000", "173330.651000", "173330.654000", "173330.657000", "173330.660000", "173330.662000", "173330.665000", "173330.668000", "173330.671000", "173330.674000", "173330.677000", "173330.679000", "173410.606000", "173410.609000", "173410.625000", "173410.628000", "173410.631000", "173410.634000", "173410.648000", "173410.650000", "173410.653000", "173410.656000", "173410.659000", "173410.662000", "173410.665000", "173410.668000", "173410.670000", "173410.673000", "173410.676000", "173410.679000", "173410.682000", "173410.685000", "173410.687000", "173410.690000", "173410.693000", "173410.696000", "173410.699000", "173410.701000", "173410.704000", "173450.607000", "173450.610000", "173450.613000", "173450.615000", "173450.618000", "173450.621000", "173450.624000", "173450.627000", "173450.630000", "173450.632000", "173450.635000", "173450.638000", "173450.641000", "173450.644000", "173450.647000", "173450.650000", "173450.652000", "173450.655000", "173450.658000", "173450.661000", "173450.664000", "173450.667000", "173450.670000", "173450.672000", "173450.675000", "173450.678000", "173450.681000", "173530.606000", "173530.609000", "173530.612000", "173530.615000", "173530.617000", "173530.620000", "173530.623000", "173530.626000", "173530.629000", "173530.632000", "173530.634000", "173530.637000", "173530.640000", "173530.643000", "173530.646000", "173530.649000", "173530.652000", "173530.655000", "173530.657000", "173530.660000", "173530.663000", "173530.666000", "173530.669000", "173530.671000", "173530.674000", "173530.677000", "173530.680000", "173610.606000", "173610.609000", "173610.612000", "173610.614000", "173610.617000", "173610.620000", "173610.623000", "173610.626000", "173610.629000", "173610.631000", "173610.634000", "173610.637000", "173610.640000", "173610.643000", "173610.646000", "173610.649000", "173610.652000", "173610.654000", "173610.657000", "173610.660000", "173610.663000", "173610.666000", "173610.669000", "173610.671000", "173610.684000", "173610.687000", "173610.690000", "173650.606000", "173650.609000", "173650.612000", "173650.615000", "173650.617000", "173650.620000", "173650.623000", "173650.626000", "173650.629000", "173650.632000", "173650.634000", "173650.637000", "173650.640000", "173650.643000", "173650.646000", "173650.649000", "173650.652000", "173650.654000", "173650.657000", "173650.660000", "173650.663000", "173650.666000", "173650.668000", "173650.671000", "173650.674000", "173650.677000", "173730.607000", "173730.610000", "173730.613000", "173730.616000", "173730.618000", "173730.621000", "173730.624000", "173730.627000", "173730.629000", "173730.632000", "173730.635000", "173730.638000", "173730.641000", "173730.644000", "173730.647000", "173730.649000", "173730.652000", "173730.655000", "173730.658000", "173730.661000", "173730.664000", "173730.666000", "173730.669000", "173730.672000", "173730.675000", "173730.678000", "173730.680000", "173810.606000", "173810.609000", "173810.612000", "173810.615000", "173810.618000", "173810.620000", "173810.623000", "173810.626000", "173810.629000", "173810.632000", "173810.635000", "173810.637000", "173810.640000", "173810.643000", "173810.646000", "173810.649000", "173810.652000", "173810.654000", "173810.657000", "173810.660000", "173810.663000", "173810.666000", "173810.669000", "173810.671000", "173810.674000", "173810.677000", "173810.680000", "173850.606000", "173850.609000", "173850.612000", "173850.614000", "173850.617000", "173850.620000", "173850.623000", "173850.626000", "173850.629000", "173850.632000", "173850.634000", "173850.637000", "173850.640000", "173850.643000", "173850.646000", "173850.649000", "173850.651000", "173850.654000", "173850.657000", "173850.660000", "173850.663000", "173850.666000", "173850.668000", "173850.671000", "173850.674000", "173850.677000", "173850.680000", "173930.607000", "173930.610000", "173930.613000", "173930.616000", "173930.618000", "173930.621000", "173930.624000", "173930.627000", "173930.630000", "173930.633000", "173930.636000", "173930.639000", "173930.647000", "173930.650000", "173930.653000", "173930.656000", "173930.658000", "173930.661000", "173930.664000", "173930.667000", "173930.670000", "173930.672000", "173930.675000", "173930.678000", "173930.681000", "173930.684000", "173930.687000", "174010.606000", "174010.609000", "174010.616000", "174010.618000", "174010.621000", "174010.624000", "174010.627000", "174010.630000", "174010.633000", "174010.635000", "174010.638000", "174010.641000", "174010.644000", "174010.647000", "174010.650000", "174010.653000", "174010.655000", "174010.658000", "174010.661000", "174010.664000", "174010.667000", "174010.670000", "174010.672000", "174010.675000", "174010.678000", "174010.681000", "174010.684000", "174050.606000", "174050.609000", "174050.612000", "174050.615000", "174050.617000", "174050.620000", "174050.623000", "174050.626000", "174050.629000", "174050.632000", "174050.635000", "174050.650000", "174050.653000", "174050.656000", "174050.658000", "174050.662000", "174050.664000", "174050.667000", "174050.670000", "174050.673000", "174050.676000", "174050.678000", "174050.681000", "174050.694000", "174050.697000", "174050.700000", "174052.223000", "174052.226000"],
