{
  "AcquisitionMatrixPE": 104,
  "AcquisitionNumber": 1,
  "AcquisitionTime": "13:25:4.755000",
  "BandwidthPerPixelPhaseEncode": 17.17,
  "BaseResolution": 104,
  "BodyPartExamined": "BRAIN",
  "CoilString": "HC1-7;NC1_2",
  "ConsistencyInfo": "N4_VE11C_LATEST_20160120",
  "ConversionSoftware": "dcm2niix",
  "ConversionSoftwareVersion": "v1.0.20200427",
  "DerivedVendorReportedEchoSpacing": 0.000560011,
  "DeviceSerialNumber": "167006",
  "DwellTime": 2.1e-06,
  "EchoTime": 0.037,
  "EchoTrainLength": 104,
  "EffectiveEchoSpacing": 0.000560011,
  "FlipAngle": 52,
  "ImageComments": "Unaliased_MB4_PE3_LB",
  "ImageOrientationPatientDICOM": [0.997652, 0.0224925, -0.0646915, -0.0358849, 0.976174, -0.214],
  "ImageType": [
    "ORIGINAL",
    "PRIMARY",
    "M",
    "MB",
    "ND",
    "MOSAIC"
],
  "ImagingFrequency": 123.259,
  "InPlanePhaseEncodingDirectionDICOM": "COL",
  "InstitutionAddress": "Chemin_Queen-Mary_4565_Montreal_District_CA_H3W_1W5",
  "InstitutionName": "IUGM",
  "InstitutionalDepartmentName": "Department",
  "MRAcquisitionType": "2D",
  "MagneticFieldStrength": 3,
  "Manufacturer": "Siemens",
  "ManufacturersModelName": "Prisma_fit",
  "Modality": "MR",
  "MultibandAccelerationFactor": 4,
  "PartialFourier": 1,
  "PatientPosition": "HFS",
  "PercentPhaseFOV": 100,
  "PercentSampling": 100,
  "PhaseEncodingDirection": "j",
  "PhaseEncodingSteps": 104,
  "PhaseResolution": 1,
  "PixelBandwidth": 2290,
  "ProcedureStepDescription": "video_friends",
  "ProtocolName": "func_task-friends-s03e01a",
  "PulseSequenceDetails": "%CustomerSeq%_cmrr_mbep2d_bold",
  "ReceiveCoilActiveElements": "HC1-7;NC1,2",
  "ReceiveCoilName": "HeadNeck_64",
  "ReconMatrixPE": 104,
  "RepetitionTime": 1.49,
  "SAR": 0.0290498,
  "ScanOptions": "FS",
  "ScanningSequence": "EP",
  "SequenceName": "epfid2d1_104",
  "SequenceVariant": "SK_SS",
  "SeriesDescription": "func_task-friends-s03e01a",
  "SeriesNumber": 9,
  "ShimSetting": [601, -7255, -8845, 625, -75, -314, 77, 67],
  "SliceThickness": 2,
  "SliceTiming": [0, 0.7825, 0.0975, 0.8825, 0.195, 0.98, 0.2925, 1.0775, 0.3925, 1.175, 0.49, 1.2725, 0.5875, 1.3725, 0.685, 0, 0.7825, 0.0975, 0.8825, 0.195, 0.98, 0.2925, 1.0775, 0.3925, 1.175, 0.49, 1.2725, 0.5875, 1.3725, 0.685, 0, 0.7825, 0.0975, 0.8825, 0.195, 0.98, 0.2925, 1.0775, 0.3925, 1.175, 0.49, 1.2725, 0.5875, 1.3725, 0.685, 0, 0.7825, 0.0975, 0.8825, 0.195, 0.98, 0.2925, 1.0775, 0.3925, 1.175, 0.49, 1.2725, 0.5875, 1.3725, 0.685],
  "SoftwareVersions": "syngo_MR_E11",
  "SpacingBetweenSlices": 2,
  "StationName": "MRC35049",
  "TaskName": "s03e01a",
  "TotalReadoutTime": 0.0576811,
  "TxRefAmp": 216.027,
  "WipMemBlock": "a45adadf-197a-4536-abee-eccfe9455f08||Sequence: R016 ve11c/master r/e634e98; Dec 19 2017 11:00:25 by eja",
  "dcmmeta_affine": [
    [-1.9953036308288574, -0.07176972925662994, -0.11667364835739136, 106.20561218261719],
    [-0.04498506337404251, 1.9523488283157349, -0.43163713812828064, -79.85153198242188],
    [-0.12938307225704193, 0.4279992878437042, 1.949378490447998, -52.47616958618164],
    [0.0, 0.0, 0.0, 1.0]
],
  "dcmmeta_reorient_transform": [
    [0.0, -1.0, 0.0, 103.0],
    [1.0, 0.0, 0.0, 0.0],
    [0.0, 0.0, 1.0, 0.0],
    [0.0, 0.0, 0.0, 1.0]
],
  "dcmmeta_shape": [104, 104, 60, 491],
  "dcmmeta_slice_dim": 2,
  "dcmmeta_version": 0.6,
  "global": {
    "const": {
      "AcquisitionMatrix": [104, 0, 0, 104],
      "AngioFlag": "N",
      "BitsAllocated": 16,
      "BitsStored": 16,
      "BodyPartExamined": "BRAIN",
      "Columns": 832,
      "EchoNumbers": 1,
      "EchoTime": 37.0,
      "EchoTrainLength": 104,
      "FlipAngle": 52.0,
      "HighBit": 15,
      "ImageOrientationPatient": [0.99765178873379, 0.02249253153257, -0.0646915331518, -0.0358848632586, 0.9761743851273, -0.2139996411451],
      "ImagePositionPatient": [-798.97965435352, -848.26990298133, 194.49493167932],
      "ImageType": [
        "ORIGINAL",
        "PRIMARY",
        "M",
        "MB",
        "ND",
        "MOSAIC"
],
      "ImagedNucleus": "1H",
      "ImagingFrequency": 123.259047,
      "InPlanePhaseEncodingDirection": "COL",
      "MRAcquisitionType": "2D",
      "MagneticFieldStrength": 3.0,
      "Manufacturer": "SIEMENS",
      "ManufacturerModelName": "Prisma_fit",
      "Modality": "MR",
      "NumberOfAverages": 1.0,
      "NumberOfPhaseEncodingSteps": 104,
      "PercentPhaseFieldOfView": 100.0,
      "PercentSampling": 100.0,
      "PerformedProcedureStepStartTime": "125853.818000",
      "PhotometricInterpretation": "MONOCHROME2",
      "PixelBandwidth": 2290.0,
      "PixelRepresentation": 0,
      "PixelSpacing": [2.0, 2.0],
      "ProtocolName": "func_task-friends-s03e01a",
      "RepetitionTime": 1490.0,
      "Rows": 832,
      "SAR": 0.02904975408418,
      "SamplesPerPixel": 1,
      "ScanOptions": "FS",
      "ScanningSequence": "EP",
      "SequenceName": "epfid2d1_104",
      "SequenceVariant": [
        "SK",
        "SS"
],
      "SeriesDescription": "func_task-friends-s03e01a",
      "SeriesNumber": 9,
      "SeriesTime": "132623.042000",
      "SliceLocation": -40.110212615526,
      "SliceThickness": 2.0,
      "SmallestImagePixelValue": 0,
      "SoftwareVersions": "syngo MR E11",
      "SpacingBetweenSlices": 1.9999999842565,
      "SpecificCharacterSet": "ISO_IR 100",
      "StudyID": "1",
      "StudyTime": "125853.730000",
      "TransmitCoilName": "Body",
      "VariableFlipAngleFlag": "N",
      "WindowCenterWidthExplanation": "Algo1",
      "dBdt": 0.0},
    "slices": {}
  },
  "time": {
    "samples": {
      "AcquisitionNumber": [1, 2, 3, 4, 5, 6, 7, 8, 9, 10, 11, 12, 13, 14, 15, 16, 17, 18, 19, 20, 21, 22, 23, 24, 25, 26, 27, 28, 29, 30, 31, 32, 33, 34, 35, 36, 37, 38, 39, 40, 41, 42, 43, 44, 45, 46, 47, 48, 49, 50, 51, 52, 53, 54, 55, 56, 57, 58, 59, 60, 61, 62, 63, 64, 65, 66, 67, 68, 69, 70, 71, 72, 73, 74, 75, 76, 77, 78, 79, 80, 81, 82, 83, 84, 85, 86, 87, 88, 89, 90, 91, 92, 93, 94, 95, 96, 97, 98, 99, 100, 101, 102, 103, 104, 105, 106, 107, 108, 109, 110, 111, 112, 113, 114, 115, 116, 117, 118, 119, 120, 121, 122, 123, 124, 125, 126, 127, 128, 129, 130, 131, 132, 133, 134, 135, 136, 137, 138, 139, 140, 141, 142, 143, 144, 145, 146, 147, 148, 149, 150, 151, 152, 153, 154, 155, 156, 157, 158, 159, 160, 161, 162, 163, 164, 165, 166, 167, 168, 169, 170, 171, 172, 173, 174, 175, 176, 177, 178, 179, 180, 181, 182, 183, 184, 185, 186, 187, 188, 189, 190, 191, 192, 193, 194, 195, 196, 197, 198, 199, 200, 201, 202, 203, 204, 205, 206, 207, 208, 209, 210, 211, 212, 213, 214, 215, 216, 217, 218, 219, 220, 221, 222, 223, 224, 225, 226, 227, 228, 229, 230, 231, 232, 233, 234, 235, 236, 237, 238, 239, 240, 241, 242, 243, 244, 245, 246, 247, 248, 249, 250, 251, 252, 253, 254, 255, 256, 257, 258, 259, 260, 261, 262, 263, 264, 265, 266, 267, 268, 269, 270, 271, 272, 273, 274, 275, 276, 277, 278, 279, 280, 281, 282, 283, 284, 285, 286, 287, 288, 289, 290, 291, 292, 293, 294, 295, 296, 297, 298, 299, 300, 301, 302, 303, 304, 305, 306, 307, 308, 309, 310, 311, 312, 313, 314, 315, 316, 317, 318, 319, 320, 321, 322, 323, 324, 325, 326, 327, 328, 329, 330, 331, 332, 333, 334, 335, 336, 337, 338, 339, 340, 341, 342, 343, 344, 345, 346, 347, 348, 349, 350, 351, 352, 353, 354, 355, 356, 357, 358, 359, 360, 361, 362, 363, 364, 365, 366, 367, 368, 369, 370, 371, 372, 373, 374, 375, 376, 377, 378, 379, 380, 381, 382, 383, 384, 385, 386, 387, 388, 389, 390, 391, 392, 393, 394, 395, 396, 397, 398, 399, 400, 401, 402, 403, 404, 405, 406, 407, 408, 409, 410, 411, 412, 413, 414, 415, 416, 417, 418, 419, 420, 421, 422, 423, 424, 425, 426, 427, 428, 429, 430, 431, 432, 433, 434, 435, 436, 437, 438, 439, 440, 441, 442, 443, 444, 445, 446, 447, 448, 449, 450, 451, 452, 453, 454, 455, 456, 457, 458, 459, 460, 461, 462, 463, 464, 465, 466, 467, 468, 469, 470, 471, 472, 473, 474, 475, 476, 477, 478, 479, 480, 481, 482, 483, 484, 485, 486, 487, 488, 489, 490, 491],
      "AcquisitionTime": ["132504.755000", "132506.245000", "132507.735000", "132509.225000", "132510.715000", "132512.205000", "132513.695000", "132515.185000", "132516.675000", "132518.165000", "132519.655000", "132521.145000", "132522.635000", "132524.125000", "132525.615000", "132527.105000", "132528.595000", "132530.085000", "132531.575000", "132533.065000", "132534.555000", "132536.045000", "132537.535000", "132539.025000", "132540.515000", "132542.005000", "132543.495000", "132544.985000", "132546.475000", "132547.965000", "132549.455000", "132550.945000", "132552.435000", "132553.925000", "132555.415000", "132556.905000", "132558.395000", "132559.885000", "132601.375000", "132602.865000", "132604.355000", "132605.845000", "132607.335000", "132608.825000", "132610.315000", "132611.805000", "132613.295000", "132614.785000", "132616.275000", "132617.765000", "132619.255000", "132620.745000", "132622.235000", "132623.725000", "132625.215000", "132626.705000", "132628.195000", "132629.685000", "132631.175000", "132632.665000", "132634.155000", "132635.645000", "132637.135000", "132638.625000", "132640.115000", "132641.605000", "132643.095000", "132644.585000", "132646.075000", "132647.565000", "132649.055000", "132650.545000", "132652.035000", "132653.525000", "132655.015000", "132656.505000", "132657.995000", "132659.485000", "132700.975000", "132702.465000", "132703.955000", "132705.445000", "132706.935000", "132708.425000", "132709.915000", "132711.405000", "132712.895000", "132714.385000", "132715.875000", "132717.365000", "132718.855000", "132720.345000", "132721.835000", "132723.325000", "132724.815000", "132726.305000", "132727.795000", "132729.285000", "132730.775000", "132732.265000", "132733.755000", "132735.245000", "132736.735000", "132738.225000", "132739.715000", "132741.205000", "132742.695000", "132744.185000", "132745.675000", "132747.165000", "132748.655000", "132750.145000", "132751.635000", "132753.125000", "132754.615000", "132756.105000", "132757.595000", "132759.085000", "132800.575000", "132802.065000", "132803.555000", "132805.045000", "132806.535000", "132808.025000", "132809.515000", "132811.005000", "132812.495000", "132813.985000", "132815.475000", "132816.965000", "132818.455000", "132819.945000", "132821.435000", "132822.925000", "132824.415000", "132825.905000", "132827.395000", "132828.885000", "132830.375000", "132831.865000", "132833.355000", "132834.845000", "132836.335000", "132837.825000", "132839.315000", "132840.805000", "132842.295000", "132843.785000", "132845.275000", "132846.765000", "132848.255000", "132849.745000", "132851.235000", "132852.725000", "132854.215000", "132855.705000", "132857.195000", "132858.685000", "132900.175000", "132901.665000", "132903.155000", "132904.645000", "132906.135000", "132907.625000", "132909.115000", "132910.605000", "132912.095000", "132913.585000", "132915.075000", "132916.565000", "132918.055000", "132919.545000", "132921.035000", "132922.525000", "132924.015000", "132925.505000", "132926.995000", "132928.485000", "132929.975000", "132931.465000", "132932.955000", "132934.445000", "132935.935000", "132937.425000", "132938.915000", "132940.405000", "132941.895000", "132943.385000", "132944.875000", "132946.365000", "132947.855000", "132949.345000", "132950.835000", "132952.325000", "132953.815000", "132955.305000", "132956.795000", "132958.285000", "132959.775000", "133001.265000", "133002.755000", "133004.245000", "133005.735000", "133007.225000", "133008.715000", "133010.205000", "133011.695000", "133013.185000", "133014.675000", "133016.165000", "133017.655000", "133019.145000", "133020.635000", "133022.125000", "133023.615000", "133025.105000", "133026.595000", "133028.085000", "133029.575000", "133031.065000", "133032.555000", "133034.045000", "133035.535000", "133037.025000", "133038.515000", "133040.005000", "133041.495000", "133042.985000", "133044.475000", "133045.965000", "133047.455000", "133048.945000", "133050.435000", "133051.925000", "133053.415000", "133054.905000", "133056.395000", "133057.885000", "133059.375000", "133100.865000", "133102.355000", "133103.845000", "133105.335000", "133106.825000", "133108.315000", "133109.805000", "133111.295000", "133112.785000", "133114.275000", "133115.765000", "133117.255000", "133118.745000", "133120.235000", "133121.725000", "133123.215000", "133124.705000", "133126.195000", "133127.685000", "133129.175000", "133130.665000", "133132.155000", "133133.645000", "133135.135000", "133136.625000", "133138.115000", "133139.605000", "133141.095000", "133142.585000", "133144.075000", "133145.565000", "133147.055000", "133148.545000", "133150.035000", "133151.525000", "133153.015000", "133154.505000", "133155.995000", "133157.485000", "133158.975000", "133200.465000", "133201.955000", "133203.445000", "133204.935000", "133206.425000", "133207.915000", "133209.405000", "133210.895000", "133212.385000", "133213.875000", "133215.365000", "133216.855000", "133218.345000", "133219.835000", "133221.325000", "133222.815000", "133224.305000", "133225.795000", "133227.285000", "133228.775000", "133230.265000", "133231.755000", "133233.245000", "133234.735000", "133236.225000", "133237.715000", "133239.205000", "133240.695000", "133242.185000", "133243.675000", "133245.165000", "133246.655000", "133248.145000", "133249.635000", "133251.125000", "133252.615000", "133254.105000", "133255.595000", "133257.085000", "133258.575000", "133300.065000", "133301.555000", "133303.045000", "133304.535000", "133306.025000", "133307.515000", "133309.005000", "133310.495000", "133311.985000", "133313.475000", "133314.965000", "133316.455000", "133317.945000", "133319.435000", "133320.925000", "133322.415000", "133323.905000", "133325.395000", "133326.885000", "133328.375000", "133329.865000", "133331.355000", "133332.845000", "133334.335000", "133335.825000", "133337.315000", "133338.805000", "133340.295000", "133341.785000", "133343.275000", "133344.765000", "133346.255000", "133347.745000", "133349.235000", "133350.725000", "133352.215000", "133353.705000", "133355.195000", "133356.685000", "133358.175000", "133359.665000", "133401.155000", "133402.645000", "133404.135000", "133405.625000", "133407.115000", "133408.605000", "133410.095000", "133411.585000", "133413.075000", "133414.565000", "133416.055000", "133417.545000", "133419.035000", "133420.525000", "133422.015000", "133423.505000", "133424.995000", "133426.485000", "133427.975000", "133429.465000", "133430.955000", "133432.445000", "133433.935000", "133435.425000", "133436.915000", "133438.405000", "133439.895000", "133441.385000", "133442.875000", "133444.365000", "133445.855000", "133447.345000", "133448.835000", "133450.325000", "133451.815000", "133453.305000", "133454.795000", "133456.285000", "133457.775000", "133459.265000", "133500.755000", "133502.245000", "133503.735000", "133505.225000", "133506.715000", "133508.205000", "133509.695000", "133511.185000", "133512.675000", "133514.165000", "133515.655000", "133517.145000", "133518.635000", "133520.125000", "133521.615000", "133523.105000", "133524.595000", "133526.085000", "133527.575000", "133529.065000", "133530.555000", "133532.045000", "133533.535000", "133535.025000", "133536.515000", "133538.005000", "133539.495000", "133540.985000", "133542.475000", "133543.965000", "133545.455000", "133546.945000", "133548.435000", "133549.925000", "133551.415000", "133552.905000", "133554.395000", "133555.885000", "133557.375000", "133558.865000", "133600.355000", "133601.845000", "133603.335000", "133604.825000", "133606.315000", "133607.805000", "133609.295000", "133610.785000", "133612.275000", "133613.765000", "133615.255000", "133616.745000", "133618.235000", "133619.725000", "133621.215000", "133622.705000", "133624.195000", "133625.685000", "133627.175000", "133628.665000", "133630.155000", "133631.645000", "133633.135000", "133634.625000", "133636.115000", "133637.605000", "133639.095000", "133640.585000", "133642.075000", "133643.565000", "133645.055000", "133646.545000", "133648.035000", "133649.525000", "133651.015000", "133652.505000", "133653.995000", "133655.485000", "133656.975000", "133658.465000", "133659.955000", "133701.445000", "133702.935000", "133704.425000", "133705.915000", "133707.405000", "133708.895000", "133710.385000", "133711.875000", "133713.365000", "133714.855000"],
      "ContentTime": ["132623.045000", "132623.048000", "132623.051000", "132623.055000", "132623.058000", "132623.061000", "132623.064000", "132623.067000", "132623.070000", "132623.073000", "132623.079000", "132623.082000", "132623.085000", "132623.088000", "132623.090000", "132623.093000", "132623.096000", "132623.099000", "132623.102000", "132623.105000", "132623.107000", "132623.110000", "132623.113000", "132643.005000", "132643.008000", "132643.011000", "132643.014000", "132643.017000", "132643.020000", "132643.022000", "132643.025000", "132643.028000", "132643.031000", "132643.034000", "132643.037000", "132643.039000", "132643.048000", "132643.051000", "132643.054000", "132643.057000", "132643.059000", "132643.062000", "132643.065000", "132643.068000", "132703.005000", "132703.008000", "132703.011000", "132703.013000", "132703.016000", "132703.019000", "132703.022000", "132703.025000", "132703.028000", "132703.031000", "132703.034000", "132703.036000", "132703.039000", "132703.042000", "132703.045000", "132703.048000", "132703.051000", "132703.054000", "132703.057000", "132703.059000", "132723.005000", "132723.008000", "132723.011000", "132723.013000", "132723.016000", "132723.019000", "132723.022000", "132723.025000", "132723.028000", "132723.031000", "132723.033000", "132723.036000", "132723.039000", "132723.042000", "132723.045000", "132723.048000", "132723.051000", "132723.054000", "132723.056000", "132723.059000", "132743.005000", "132743.008000", "132743.010000", "132743.013000", "132743.016000", "132743.019000", "132743.022000", "132743.025000", "132743.028000", "132743.031000", "132743.033000", "132743.036000", "132743.039000", "132743.042000", "132743.045000", "132743.048000", "132743.050000", "132743.053000", "132743.056000", "132743.059000", "132823.005000", "132823.008000", "132823.011000", "132823.014000", "132823.017000", "132823.019000", "132823.022000", "132823.025000", "132823.028000", "132823.031000", "132823.034000", "132823.036000", "132823.039000", "132823.042000", "132823.045000", "132823.048000", "132823.051000", "132823.054000", "132823.056000", "132823.059000", "132823.062000", "132823.065000", "132823.068000", "132823.070000", "132823.073000", "132823.092000", "132823.094000", "132823.097000", "132903.005000", "132903.008000", "132903.011000", "132903.014000", "132903.017000", "132903.019000", "132903.022000", "132903.025000", "132903.028000", "132903.031000", "132903.034000", "132903.037000", "132903.039000", "132903.042000", "132903.045000", "132903.048000", "132903.051000", "132903.054000", "132903.057000", "132903.060000", "132903.062000", "132903.065000", "132903.077000", "132903.080000", "132903.083000", "132903.086000", "132903.089000", "132943.005000", "132943.008000", "132943.011000", "132943.014000", "132943.017000", "132943.020000", "132943.022000", "132943.025000", "132943.036000", "132943.039000", "132943.042000", "132943.045000", "132943.048000", "132943.051000", "132943.053000", "132943.056000", "132943.059000", "132943.062000", "132943.065000", "132943.068000", "132943.071000", "132943.074000", "132943.076000", "132943.079000", "132943.082000", "132943.085000", "132943.088000", "133023.005000", "133023.008000", "133023.011000", "133023.014000", "133023.017000", "133023.020000", "133023.022000", "133023.025000", "133023.028000", "133023.031000", "133023.034000", "133023.037000", "133023.040000", "133023.043000", "133023.045000", "133023.048000", "133023.051000", "133023.054000", "133023.057000", "133023.060000", "133023.063000", "133023.065000", "133023.068000", "133023.071000", "133023.074000", "133023.077000", "133023.080000", "133103.005000", "133103.008000", "133103.011000", "133103.014000", "133103.017000", "133103.020000", "133103.023000", "133103.026000", "133103.029000", "133103.032000", "133103.035000", "133103.038000", "133103.041000", "133103.043000", "133103.046000", "133103.049000", "133103.052000", "133103.055000", "133103.058000", "133103.061000", "133103.063000", "133103.066000", "133103.069000", "133103.072000", "133103.075000", "133103.078000", "133103.081000", "133143.005000", "133143.008000", "133143.011000", "133143.014000", "133143.017000", "133143.020000", "133143.022000", "133143.025000", "133143.028000", "133143.031000", "133143.034000", "133143.037000", "133143.040000", "133143.043000", "133143.045000", "133143.048000", "133143.051000", "133143.054000", "133143.057000", "133143.060000", "133143.063000", "133143.066000", "133143.068000", "133143.071000", "133143.074000", "133143.077000", "133223.005000", "133223.008000", "133223.011000", "133223.014000", "133223.017000", "133223.020000", "133223.023000", "133223.025000", "133223.029000", "133223.031000", "133223.034000", "133223.037000", "133223.040000", "133223.043000", "133223.046000", "133223.048000", "133223.051000", "133223.054000", "133223.057000", "133223.060000", "133223.063000", "133223.066000", "133223.069000", "133223.071000", "133223.074000", "133223.077000", "133223.080000", "133303.005000", "133303.008000", "133303.011000", "133303.014000", "133303.017000", "133303.019000", "133303.022000", "133303.025000", "133303.028000", "133303.031000", "133303.034000", "133303.037000", "133303.040000", "133303.042000", "133303.045000", "133303.049000", "133303.052000", "133303.055000", "133303.058000", "133303.061000", "133303.074000", "133303.077000", "133303.081000", "133303.084000", "133303.087000", "133303.091000", "133303.093000", "133343.005000", "133343.009000", "133343.012000", "133343.015000", "133343.018000", "133343.021000", "133343.025000", "133343.028000", "133343.031000", "133343.034000", "133343.038000", "133343.041000", "133343.044000", "133343.047000", "133343.051000", "133343.054000", "133343.057000", "133343.060000", "133343.063000", "133343.067000", "133343.070000", "133343.073000", "133343.076000", "133343.080000", "133343.083000", "133343.086000", "133343.089000", "133423.006000", "133423.023000", "133423.026000", "133423.029000", "133423.032000", "133423.035000", "133423.038000", "133423.041000", "133423.044000", "133423.047000", "133423.050000", "133423.053000", "133423.056000", "133423.059000", "133423.061000", "133423.064000", "133423.067000", "133423.070000", "133423.073000", "133423.076000", "133423.079000", "133423.082000", "133423.084000", "133423.087000", "133423.090000", "133423.093000", "133423.096000", "133503.005000", "133503.008000", "133503.011000", "133503.014000", "133503.017000", "133503.020000", "133503.022000", "133503.025000", "133503.028000", "133503.031000", "133503.034000", "133503.037000", "133503.040000", "133503.043000", "133503.045000", "133503.048000", "133503.051000", "133503.054000", "133503.057000", "133503.060000", "133503.063000", "133503.066000", "133503.069000", "133503.071000", "133503.074000", "133503.077000", "133503.080000", "133543.005000", "133543.008000", "133543.011000", "133543.014000", "133543.017000", "133543.020000", "133543.023000", "133543.025000", "133543.028000", "133543.031000", "133543.034000", "133543.037000", "133543.040000", "133543.043000", "133543.046000", "133543.049000", "133543.052000", "133543.055000", "133543.058000", "133543.060000", "133543.063000", "133543.066000", "133543.069000", "133543.072000", "133543.075000", "133543.078000", "133623.005000", "133623.008000", "133623.011000", "133623.014000", "133623.017000", "133623.020000", "133623.023000", "133623.026000", "133623.028000", "133623.031000", "133623.034000", "133623.037000", "133623.040000", "133623.043000", "133623.046000", "133623.048000", "133623.051000", "133623.054000", "133623.057000", "133623.060000", "133623.063000", "133623.066000", "133623.069000", "133623.071000", "133623.074000", "133623.077000", "133623.080000", "133703.005000", "133703.008000", "133703.011000", "133703.014000", "133703.017000", "133703.020000", "133703.023000", "133703.026000", "133703.029000", "133703.032000", "133703.034000", "133703.037000", "133703.040000", "133703.043000", "133703.046000", "133703.049000", "133703.052000", "133703.055000", "133703.057000", "133703.060000", "133703.063000", "133703.073000", "133703.076000", "133703.078000", "133703.081000", "133703.084000", "133703.087000", "133717.042000", "133717.046000", "133717.056000", "133717.060000", "133717.063000", "133717.066000", "133717.069000", "133717.072000", "133717.075000", "133717.078000"],
