{
  "AcquisitionMatrixPE": 104,
  "AcquisitionNumber": 1,
  "AcquisitionTime": "13:37:48.960000",
  "BandwidthPerPixelPhaseEncode": 17.17,
  "BaseResolution": 104,
  "BodyPartExamined": "BRAIN",
  "CoilString": "HC1-7;NC1_2",
  "ConsistencyInfo": "N4_VE11C_LATEST_20160120",
  "ConversionSoftware": "dcm2niix",
  "ConversionSoftwareVersion": "v1.0.20200427",
  "DerivedVendorReportedEchoSpacing": 0.000560011,
  "DeviceSerialNumber": "167006",
  "DwellTime": 2.1e-06,
  "EchoTime": 0.037,
  "EchoTrainLength": 104,
  "EffectiveEchoSpacing": 0.000560011,
  "FlipAngle": 52,
  "ImageComments": "Unaliased_MB4_PE3_LB",
  "ImageOrientationPatientDICOM": [0.997652, 0.0224925, -0.0646915, -0.0358849, 0.976174, -0.214],
  "ImageType": [
    "ORIGINAL",
    "PRIMARY",
    "M",
    "MB",
    "ND",
    "MOSAIC"
],
  "ImagingFrequency": 123.259,
  "InPlanePhaseEncodingDirectionDICOM": "COL",
  "InstitutionAddress": "Chemin_Queen-Mary_4565_Montreal_District_CA_H3W_1W5",
  "InstitutionName": "IUGM",
  "InstitutionalDepartmentName": "Department",
  "MRAcquisitionType": "2D",
  "MagneticFieldStrength": 3,
  "Manufacturer": "Siemens",
  "ManufacturersModelName": "Prisma_fit",
  "Modality": "MR",
  "MultibandAccelerationFactor": 4,
  "PartialFourier": 1,
  "PatientPosition": "HFS",
  "PercentPhaseFOV": 100,
  "PercentSampling": 100,
  "PhaseEncodingDirection": "j",
  "PhaseEncodingSteps": 104,
  "PhaseResolution": 1,
  "PixelBandwidth": 2290,
  "ProcedureStepDescription": "video_friends",
  "ProtocolName": "func_task-friends-s03e01b",
  "PulseSequenceDetails": "%CustomerSeq%_cmrr_mbep2d_bold",
  "ReceiveCoilActiveElements": "HC1-7;NC1,2",
  "ReceiveCoilName": "HeadNeck_64",
  "ReconMatrixPE": 104,
  "RepetitionTime": 1.49,
  "SAR": 0.0290498,
  "ScanOptions": "FS",
  "ScanningSequence": "EP",
  "SequenceName": "epfid2d1_104",
  "SequenceVariant": "SK_SS",
  "SeriesDescription": "func_task-friends-s03e01b",
  "SeriesNumber": 11,
  "ShimSetting": [601, -7255, -8845, 625, -75, -314, 77, 67],
  "SliceThickness": 2,
  "SliceTiming": [0, 0.7825, 0.0975, 0.8825, 0.195, 0.98, 0.2925, 1.0775, 0.3925, 1.175, 0.49, 1.2725, 0.5875, 1.3725, 0.685, 0, 0.7825, 0.0975, 0.8825, 0.195, 0.98, 0.2925, 1.0775, 0.3925, 1.175, 0.49, 1.2725, 0.5875, 1.3725, 0.685, 0, 0.7825, 0.0975, 0.8825, 0.195, 0.98, 0.2925, 1.0775, 0.3925, 1.175, 0.49, 1.2725, 0.5875, 1.3725, 0.685, 0, 0.7825, 0.0975, 0.8825, 0.195, 0.98, 0.2925, 1.0775, 0.3925, 1.175, 0.49, 1.2725, 0.5875, 1.3725, 0.685],
  "SoftwareVersions": "syngo_MR_E11",
  "SpacingBetweenSlices": 2,
  "StationName": "MRC35049",
  "TaskName": "s03e01b",
  "TotalReadoutTime": 0.0576811,
  "TxRefAmp": 216.027,
  "WipMemBlock": "e51821c4-f0da-420b-9d35-7763c9c099f2||Sequence: R016 ve11c/master r/e634e98; Dec 19 2017 11:00:25 by eja",
  "dcmmeta_affine": [
    [-1.9953036308288574, -0.07176972925662994, -0.11667364835739136, 106.20561218261719],
    [-0.04498506337404251, 1.9523488283157349, -0.43163713812828064, -79.85153198242188],
    [-0.12938307225704193, 0.4279992878437042, 1.949378490447998, -52.47616958618164],
    [0.0, 0.0, 0.0, 1.0]
],
  "dcmmeta_reorient_transform": [
    [0.0, -1.0, 0.0, 103.0],
    [1.0, 0.0, 0.0, 0.0],
    [0.0, 0.0, 1.0, 0.0],
    [0.0, 0.0, 0.0, 1.0]
],
  "dcmmeta_shape": [104, 104, 60, 491],
  "dcmmeta_slice_dim": 2,
  "dcmmeta_version": 0.6,
  "global": {
    "const": {
      "AcquisitionMatrix": [104, 0, 0, 104],
      "AngioFlag": "N",
      "BitsAllocated": 16,
      "BitsStored": 16,
      "BodyPartExamined": "BRAIN",
      "Columns": 832,
      "EchoNumbers": 1,
      "EchoTime": 37.0,
      "EchoTrainLength": 104,
      "FlipAngle": 52.0,
      "HighBit": 15,
      "ImageOrientationPatient": [0.99765178873379, 0.02249253153257, -0.0646915331518, -0.0358848632586, 0.9761743851273, -0.2139996411451],
      "ImagePositionPatient": [-798.97965435352, -848.26990298133, 194.49493167932],
      "ImageType": [
        "ORIGINAL",
        "PRIMARY",
        "M",
        "MB",
        "ND",
        "MOSAIC"
],
      "ImagedNucleus": "1H",
      "ImagingFrequency": 123.259058,
      "InPlanePhaseEncodingDirection": "COL",
      "MRAcquisitionType": "2D",
      "MagneticFieldStrength": 3.0,
      "Manufacturer": "SIEMENS",
      "ManufacturerModelName": "Prisma_fit",
      "Modality": "MR",
      "NumberOfAverages": 1.0,
      "NumberOfPhaseEncodingSteps": 104,
      "PercentPhaseFieldOfView": 100.0,
      "PercentSampling": 100.0,
      "PerformedProcedureStepStartTime": "125853.818000",
      "PhotometricInterpretation": "MONOCHROME2",
      "PixelBandwidth": 2290.0,
      "PixelRepresentation": 0,
      "PixelSpacing": [2.0, 2.0],
      "ProtocolName": "func_task-friends-s03e01b",
      "RepetitionTime": 1490.0,
      "Rows": 832,
      "SAR": 0.02904975408418,
      "SamplesPerPixel": 1,
      "ScanOptions": "FS",
      "ScanningSequence": "EP",
      "SequenceName": "epfid2d1_104",
      "SequenceVariant": [
        "SK",
        "SS"
],
      "SeriesDescription": "func_task-friends-s03e01b",
      "SeriesNumber": 11,
      "SeriesTime": "133902.446000",
      "SliceLocation": -40.110212615526,
      "SliceThickness": 2.0,
      "SmallestImagePixelValue": 0,
      "SoftwareVersions": "syngo MR E11",
      "SpacingBetweenSlices": 1.9999999842565,
      "SpecificCharacterSet": "ISO_IR 100",
      "StudyID": "1",
      "StudyTime": "125853.730000",
      "TransmitCoilName": "Body",
      "VariableFlipAngleFlag": "N",
      "WindowCenterWidthExplanation": "Algo1",
      "dBdt": 0.0},
    "slices": {}
  },
  "time": {
    "samples": {
      "AcquisitionNumber": [1, 2, 3, 4, 5, 6, 7, 8, 9, 10, 11, 12, 13, 14, 15, 16, 17, 18, 19, 20, 21, 22, 23, 24, 25, 26, 27, 28, 29, 30, 31, 32, 33, 34, 35, 36, 37, 38, 39, 40, 41, 42, 43, 44, 45, 46, 47, 48, 49, 50, 51, 52, 53, 54, 55, 56, 57, 58, 59, 60, 61, 62, 63, 64, 65, 66, 67, 68, 69, 70, 71, 72, 73, 74, 75, 76, 77, 78, 79, 80, 81, 82, 83, 84, 85, 86, 87, 88, 89, 90, 91, 92, 93, 94, 95, 96, 97, 98, 99, 100, 101, 102, 103, 104, 105, 106, 107, 108, 109, 110, 111, 112, 113, 114, 115, 116, 117, 118, 119, 120, 121, 122, 123, 124, 125, 126, 127, 128, 129, 130, 131, 132, 133, 134, 135, 136, 137, 138, 139, 140, 141, 142, 143, 144, 145, 146, 147, 148, 149, 150, 151, 152, 153, 154, 155, 156, 157, 158, 159, 160, 161, 162, 163, 164, 165, 166, 167, 168, 169, 170, 171, 172, 173, 174, 175, 176, 177, 178, 179, 180, 181, 182, 183, 184, 185, 186, 187, 188, 189, 190, 191, 192, 193, 194, 195, 196, 197, 198, 199, 200, 201, 202, 203, 204, 205, 206, 207, 208, 209, 210, 211, 212, 213, 214, 215, 216, 217, 218, 219, 220, 221, 222, 223, 224, 225, 226, 227, 228, 229, 230, 231, 232, 233, 234, 235, 236, 237, 238, 239, 240, 241, 242, 243, 244, 245, 246, 247, 248, 249, 250, 251, 252, 253, 254, 255, 256, 257, 258, 259, 260, 261, 262, 263, 264, 265, 266, 267, 268, 269, 270, 271, 272, 273, 274, 275, 276, 277, 278, 279, 280, 281, 282, 283, 284, 285, 286, 287, 288, 289, 290, 291, 292, 293, 294, 295, 296, 297, 298, 299, 300, 301, 302, 303, 304, 305, 306, 307, 308, 309, 310, 311, 312, 313, 314, 315, 316, 317, 318, 319, 320, 321, 322, 323, 324, 325, 326, 327, 328, 329, 330, 331, 332, 333, 334, 335, 336, 337, 338, 339, 340, 341, 342, 343, 344, 345, 346, 347, 348, 349, 350, 351, 352, 353, 354, 355, 356, 357, 358, 359, 360, 361, 362, 363, 364, 365, 366, 367, 368, 369, 370, 371, 372, 373, 374, 375, 376, 377, 378, 379, 380, 381, 382, 383, 384, 385, 386, 387, 388, 389, 390, 391, 392, 393, 394, 395, 396, 397, 398, 399, 400, 401, 402, 403, 404, 405, 406, 407, 408, 409, 410, 411, 412, 413, 414, 415, 416, 417, 418, 419, 420, 421, 422, 423, 424, 425, 426, 427, 428, 429, 430, 431, 432, 433, 434, 435, 436, 437, 438, 439, 440, 441, 442, 443, 444, 445, 446, 447, 448, 449, 450, 451, 452, 453, 454, 455, 456, 457, 458, 459, 460, 461, 462, 463, 464, 465, 466, 467, 468, 469, 470, 471, 472, 473, 474, 475, 476, 477, 478, 479, 480, 481, 482, 483, 484, 485, 486, 487, 488, 489, 490, 491],
      "AcquisitionTime": ["133748.960000", "133750.450000", "133751.940000", "133753.430000", "133754.920000", "133756.410000", "133757.900000", "133759.390000", "133800.880000", "133802.370000", "133803.860000", "133805.350000", "133806.840000", "133808.330000", "133809.820000", "133811.310000", "133812.800000", "133814.290000", "133815.780000", "133817.270000", "133818.760000", "133820.250000", "133821.740000", "133823.230000", "133824.720000", "133826.210000", "133827.700000", "133829.190000", "133830.680000", "133832.170000", "133833.660000", "133835.150000", "133836.640000", "133838.130000", "133839.620000", "133841.110000", "133842.600000", "133844.090000", "133845.580000", "133847.070000", "133848.560000", "133850.050000", "133851.540000", "133853.030000", "133854.520000", "133856.010000", "133857.500000", "133858.990000", "133900.480000", "133901.970000", "133903.460000", "133904.950000", "133906.440000", "133907.930000", "133909.420000", "133910.910000", "133912.400000", "133913.890000", "133915.380000", "133916.870000", "133918.360000", "133919.850000", "133921.340000", "133922.830000", "133924.320000", "133925.810000", "133927.300000", "133928.790000", "133930.280000", "133931.770000", "133933.260000", "133934.750000", "133936.240000", "133937.730000", "133939.220000", "133940.710000", "133942.200000", "133943.690000", "133945.180000", "133946.670000", "133948.160000", "133949.650000", "133951.140000", "133952.630000", "133954.120000", "133955.610000", "133957.100000", "133958.590000", "134000.080000", "134001.570000", "134003.060000", "134004.550000", "134006.040000", "134007.530000", "134009.020000", "134010.510000", "134012.000000", "134013.490000", "134014.980000", "134016.470000", "134017.960000", "134019.450000", "134020.940000", "134022.430000", "134023.920000", "134025.410000", "134026.900000", "134028.390000", "134029.880000", "134031.370000", "134032.860000", "134034.350000", "134035.840000", "134037.330000", "134038.820000", "134040.310000", "134041.800000", "134043.290000", "134044.780000", "134046.270000", "134047.760000", "134049.250000", "134050.740000", "134052.230000", "134053.720000", "134055.210000", "134056.700000", "134058.190000", "134059.680000", "134101.170000", "134102.660000", "134104.150000", "134105.640000", "134107.130000", "134108.620000", "134110.110000", "134111.600000", "134113.090000", "134114.580000", "134116.070000", "134117.560000", "134119.050000", "134120.540000", "134122.030000", "134123.520000", "134125.010000", "134126.500000", "134127.990000", "134129.480000", "134130.970000", "134132.460000", "134133.950000", "134135.440000", "134136.930000", "134138.420000", "134139.910000", "134141.400000", "134142.890000", "134144.380000", "134145.870000", "134147.360000", "134148.850000", "134150.340000", "134151.830000", "134153.320000", "134154.810000", "134156.300000", "134157.790000", "134159.280000", "134200.770000", "134202.260000", "134203.750000", "134205.240000", "134206.730000", "134208.220000", "134209.710000", "134211.200000", "134212.690000", "134214.180000", "134215.670000", "134217.160000", "134218.650000", "134220.140000", "134221.630000", "134223.120000", "134224.610000", "134226.100000", "134227.590000", "134229.080000", "134230.570000", "134232.060000", "134233.550000", "134235.040000", "134236.530000", "134238.020000", "134239.510000", "134241.000000", "134242.490000", "134243.980000", "134245.470000", "134246.960000", "134248.450000", "134249.940000", "134251.430000", "134252.920000", "134254.410000", "134255.900000", "134257.390000", "134258.880000", "134300.370000", "134301.860000", "134303.350000", "134304.840000", "134306.330000", "134307.820000", "134309.310000", "134310.800000", "134312.290000", "134313.780000", "134315.270000", "134316.760000", "134318.250000", "134319.740000", "134321.230000", "134322.720000", "134324.210000", "134325.700000", "134327.190000", "134328.680000", "134330.170000", "134331.660000", "134333.150000", "134334.640000", "134336.130000", "134337.620000", "134339.110000", "134340.600000", "134342.090000", "134343.580000", "134345.070000", "134346.560000", "134348.050000", "134349.540000", "134351.030000", "134352.520000", "134354.010000", "134355.500000", "134356.990000", "134358.480000", "134359.970000", "134401.460000", "134402.950000", "134404.440000", "134405.930000", "134407.420000", "134408.910000", "134410.400000", "134411.890000", "134413.380000", "134414.870000", "134416.360000", "134417.850000", "134419.340000", "134420.830000", "134422.320000", "134423.810000", "134425.300000", "134426.790000", "134428.280000", "134429.770000", "134431.260000", "134432.750000", "134434.240000", "134435.730000", "134437.220000", "134438.710000", "134440.200000", "134441.690000", "134443.180000", "134444.670000", "134446.160000", "134447.650000", "134449.140000", "134450.630000", "134452.120000", "134453.610000", "134455.100000", "134456.590000", "134458.080000", "134459.570000", "134501.060000", "134502.550000", "134504.040000", "134505.530000", "134507.020000", "134508.510000", "134510.000000", "134511.490000", "134512.980000", "134514.470000", "134515.960000", "134517.450000", "134518.940000", "134520.430000", "134521.920000", "134523.410000", "134524.900000", "134526.390000", "134527.880000", "134529.370000", "134530.860000", "134532.350000", "134533.840000", "134535.330000", "134536.820000", "134538.310000", "134539.800000", "134541.290000", "134542.780000", "134544.270000", "134545.760000", "134547.250000", "134548.740000", "134550.230000", "134551.720000", "134553.210000", "134554.700000", "134556.190000", "134557.680000", "134559.170000", "134600.660000", "134602.150000", "134603.640000", "134605.130000", "134606.620000", "134608.110000", "134609.600000", "134611.090000", "134612.580000", "134614.070000", "134615.560000", "134617.050000", "134618.540000", "134620.030000", "134621.520000", "134623.010000", "134624.500000", "134625.990000", "134627.480000", "134628.970000", "134630.460000", "134631.950000", "134633.440000", "134634.930000", "134636.420000", "134637.910000", "134639.400000", "134640.890000", "134642.380000", "134643.870000", "134645.360000", "134646.850000", "134648.340000", "134649.830000", "134651.320000", "134652.810000", "134654.300000", "134655.790000", "134657.280000", "134658.770000", "134700.260000", "134701.750000", "134703.240000", "134704.730000", "134706.220000", "134707.710000", "134709.200000", "134710.690000", "134712.180000", "134713.670000", "134715.160000", "134716.650000", "134718.140000", "134719.630000", "134721.120000", "134722.610000", "134724.100000", "134725.590000", "134727.080000", "134728.570000", "134730.060000", "134731.550000", "134733.040000", "134734.530000", "134736.020000", "134737.510000", "134739.000000", "134740.490000", "134741.980000", "134743.470000", "134744.960000", "134746.450000", "134747.940000", "134749.430000", "134750.920000", "134752.410000", "134753.900000", "134755.390000", "134756.880000", "134758.370000", "134759.860000", "134801.350000", "134802.840000", "134804.330000", "134805.820000", "134807.310000", "134808.800000", "134810.290000", "134811.780000", "134813.270000", "134814.760000", "134816.250000", "134817.740000", "134819.230000", "134820.720000", "134822.210000", "134823.700000", "134825.190000", "134826.680000", "134828.170000", "134829.660000", "134831.150000", "134832.640000", "134834.130000", "134835.620000", "134837.110000", "134838.600000", "134840.090000", "134841.580000", "134843.070000", "134844.560000", "134846.050000", "134847.540000", "134849.030000", "134850.520000", "134852.010000", "134853.500000", "134854.990000", "134856.480000", "134857.970000", "134859.460000", "134900.950000", "134902.440000", "134903.930000", "134905.420000", "134906.910000", "134908.400000", "134909.890000", "134911.380000", "134912.870000", "134914.360000", "134915.850000", "134917.340000", "134918.830000", "134920.320000", "134921.810000", "134923.300000", "134924.790000", "134926.280000", "134927.770000", "134929.260000", "134930.750000", "134932.240000", "134933.730000", "134935.220000", "134936.710000", "134938.200000", "134939.690000", "134941.180000", "134942.670000", "134944.160000", "134945.650000", "134947.140000", "134948.630000", "134950.120000", "134951.610000", "134953.100000", "134954.590000", "134956.080000", "134957.570000", "134959.060000"],
      "ContentTime": ["133902.449000", "133902.452000", "133902.455000", "133902.458000", "133902.471000", "133902.477000", "133902.480000", "133902.482000", "133902.485000", "133902.488000", "133902.491000", "133902.494000", "133902.497000", "133902.500000", "133902.502000", "133902.505000", "133902.508000", "133902.511000", "133902.514000", "133902.517000", "133902.519000", "133922.421000", "133922.424000", "133922.427000", "133922.430000", "133922.433000", "133922.435000", "133922.438000", "133922.441000", "133922.444000", "133922.447000", "133922.450000", "133922.452000", "133922.455000", "133922.458000", "133922.461000", "133922.464000", "133922.466000", "133922.469000", "133922.472000", "133922.475000", "133942.421000", "133942.424000", "133942.427000", "133942.429000", "133942.432000", "133942.435000", "133942.438000", "133942.441000", "133942.444000", "133942.446000", "133942.450000", "133942.452000", "133942.455000", "133942.458000", "133942.461000", "133942.464000", "133942.466000", "133942.469000", "133942.472000", "133942.475000", "134002.421000", "134002.424000", "134002.427000", "134002.430000", "134002.432000", "134002.435000", "134002.438000", "134002.441000", "134002.444000", "134002.447000", "134002.450000", "134002.453000", "134002.456000", "134002.458000", "134002.461000", "134002.464000", "134002.467000", "134002.470000", "134002.473000", "134002.476000", "134022.420000", "134022.423000", "134022.426000", "134022.429000", "134022.431000", "134022.434000", "134022.437000", "134022.440000", "134022.443000", "134022.446000", "134022.449000", "134022.451000", "134022.454000", "134022.457000", "134022.460000", "134022.463000", "134022.466000", "134022.468000", "134022.472000", "134022.474000", "134102.420000", "134102.423000", "134102.426000", "134102.429000", "134102.431000", "134102.434000", "134102.437000", "134102.440000", "134102.443000", "134102.445000", "134102.448000", "134102.451000", "134102.454000", "134102.457000", "134102.460000", "134102.463000", "134102.465000", "134102.468000", "134102.471000", "134102.474000", "134102.477000", "134102.479000", "134102.482000", "134102.485000", "134102.488000", "134102.491000", "134102.494000", "134102.496000", "134142.421000", "134142.424000", "134142.427000", "134142.429000", "134142.433000", "134142.435000", "134142.438000", "134142.441000", "134142.444000", "134142.447000", "134142.450000", "134142.452000", "134142.455000", "134142.458000", "134142.461000", "134142.464000", "134142.467000", "134142.470000", "134142.472000", "134142.475000", "134142.478000", "134142.481000", "134142.484000", "134142.487000", "134142.490000", "134142.492000", "134142.495000", "134222.421000", "134222.424000", "134222.427000", "134222.430000", "134222.432000", "134222.435000", "134222.438000", "134222.441000", "134222.444000", "134222.447000", "134222.450000", "134222.453000", "134222.456000", "134222.459000", "134222.462000", "134222.465000", "134222.468000", "134222.471000", "134222.474000", "134222.476000", "134222.479000", "134222.482000", "134222.485000", "134222.488000", "134222.491000", "134222.494000", "134302.432000", "134302.436000", "134302.438000", "134302.441000", "134302.444000", "134302.447000", "134302.450000", "134302.453000", "134302.455000", "134302.458000", "134302.461000", "134302.464000", "134302.467000", "134302.470000", "134302.473000", "134302.476000", "134302.478000", "134302.481000", "134302.484000", "134302.487000", "134302.490000", "134302.493000", "134302.496000", "134302.498000", "134302.501000", "134302.504000", "134302.507000", "134342.420000", "134342.423000", "134342.426000", "134342.429000", "134342.432000", "134342.434000", "134342.437000", "134342.440000", "134342.443000", "134342.446000", "134342.448000", "134342.451000", "134342.454000", "134342.458000", "134342.461000", "134342.464000", "134342.467000", "134342.470000", "134342.473000", "134342.475000", "134342.478000", "134342.481000", "134342.484000", "134342.487000", "134342.490000", "134342.493000", "134342.496000", "134422.421000", "134422.424000", "134422.427000", "134422.430000", "134422.433000", "134422.447000", "134422.449000", "134422.452000", "134422.455000", "134422.458000", "134422.461000", "134422.464000", "134422.467000", "134422.470000", "134422.472000", "134422.475000", "134422.478000", "134422.481000", "134422.484000", "134422.487000", "134422.490000", "134422.492000", "134422.495000", "134422.498000", "134422.501000", "134422.504000", "134422.507000", "134502.420000", "134502.423000", "134502.426000", "134502.429000", "134502.431000", "134502.434000", "134502.437000", "134502.440000", "134502.443000", "134502.446000", "134502.449000", "134502.452000", "134502.454000", "134502.457000", "134502.460000", "134502.463000", "134502.466000", "134502.469000", "134502.472000", "134502.474000", "134502.477000", "134502.480000", "134502.483000", "134502.486000", "134502.489000", "134502.492000", "134502.495000", "134542.420000", "134542.423000", "134542.426000", "134542.429000", "134542.432000", "134542.435000", "134542.437000", "134542.440000", "134542.443000", "134542.446000", "134542.449000", "134542.452000", "134542.455000", "134542.458000", "134542.461000", "134542.463000", "134542.466000", "134542.469000", "134542.472000", "134542.475000", "134542.478000", "134542.481000", "134542.483000", "134542.486000", "134542.489000", "134542.492000", "134542.495000", "134622.421000", "134622.424000", "134622.427000", "134622.430000", "134622.433000", "134622.435000", "134622.438000", "134622.441000", "134622.444000", "134622.447000", "134622.450000", "134622.454000", "134622.458000", "134622.461000", "134622.464000", "134622.467000", "134622.471000", "134622.474000", "134622.476000", "134622.480000", "134622.483000", "134622.485000", "134622.489000", "134622.492000", "134622.495000", "134622.498000", "134702.420000", "134702.423000", "134702.426000", "134702.429000", "134702.432000", "134702.434000", "134702.438000", "134702.440000", "134702.443000", "134702.446000", "134702.449000", "134702.452000", "134702.455000", "134702.458000", "134702.461000", "134702.463000", "134702.466000", "134702.469000", "134702.472000", "134702.475000", "134702.478000", "134702.480000", "134702.495000", "134702.498000", "134702.501000", "134702.504000", "134702.507000", "134742.420000", "134742.423000", "134742.426000", "134742.429000", "134742.432000", "134742.435000", "134742.437000", "134742.440000", "134742.443000", "134742.450000", "134742.453000", "134742.456000", "134742.459000", "134742.462000", "134742.465000", "134742.468000", "134742.470000", "134742.473000", "134742.476000", "134742.479000", "134742.482000", "134742.485000", "134742.488000", "134742.491000", "134742.493000", "134742.496000", "134742.499000", "134822.421000", "134822.424000", "134822.427000", "134822.429000", "134822.433000", "134822.435000", "134822.438000", "134822.441000", "134822.444000", "134822.447000", "134822.450000", "134822.453000", "134822.456000", "134822.459000", "134822.461000", "134822.464000", "134822.467000", "134822.470000", "134822.473000", "134822.476000", "134822.479000", "134822.482000", "134822.484000", "134822.487000", "134822.490000", "134822.493000", "134822.496000", "134902.421000", "134902.424000", "134902.427000", "134902.430000", "134902.433000", "134902.436000", "134902.438000", "134902.441000", "134902.444000", "134902.447000", "134902.450000", "134902.453000", "134902.456000", "134902.458000", "134902.461000", "134902.465000", "134902.468000", "134902.471000", "134902.474000", "134902.477000", "134902.480000", "134902.483000", "134902.485000", "134902.488000", "134902.491000", "134902.494000", "134902.497000", "134922.420000", "134922.423000", "134922.426000", "134922.429000", "134922.432000", "134922.434000", "134922.438000", "134922.441000", "134922.443000", "134922.446000", "134922.449000", "134922.452000", "134922.455000", "135001.544000", "135001.547000", "135001.550000", "135001.553000", "135001.556000", "135001.559000", "135001.562000", "135001.565000", "135001.568000", "135001.571000", "135001.573000", "135001.577000", "135001.579000", "135001.582000", "135001.585000", "135001.588000", "135001.591000", "135001.594000", "135001.597000", "135001.601000", "135001.603000", "135001.606000", "135001.609000", "135001.612000", "135001.615000", "135001.618000", "135001.621000"],
