{
  "AcquisitionMatrixPE": 104,
  "AcquisitionNumber": 1,
  "AcquisitionTime": "13:23:17.045000",
  "BandwidthPerPixelPhaseEncode": 17.17,
  "BaseResolution": 104,
  "BodyPartExamined": "BRAIN",
  "CoilString": "HC1-7;NC1_2",
  "ConsistencyInfo": "N4_VE11C_LATEST_20160120",
  "ConversionSoftware": "dcm2niix",
  "ConversionSoftwareVersion": "v1.0.20190902",
  "DerivedVendorReportedEchoSpacing": 0.000560011,
  "DeviceSerialNumber": "167006",
  "DwellTime": 2.1e-06,
  "EchoTime": 0.037,
  "EchoTrainLength": 104,
  "EffectiveEchoSpacing": 0.000560011,
  "FlipAngle": 52,
  "ImageComments": "Unaliased_MB4_PE3_LB",
  "ImageOrientationPatientDICOM": [0.998252, 0.0309886, -0.0503309, -0.0397449, 0.982207, -0.183549],
  "ImageType": [
    "ORIGINAL",
    "PRIMARY",
    "M",
    "MB",
    "ND",
    "MOSAIC"
],
  "ImagingFrequency": 123.259,
  "InPlanePhaseEncodingDirectionDICOM": "COL",
  "InstitutionAddress": "Chemin_Queen-Mary_4565_Montreal_District_CA_H3W_1W5",
  "InstitutionName": "IUGM",
  "InstitutionalDepartmentName": "Department",
  "MRAcquisitionType": "2D",
  "MagneticFieldStrength": 3,
  "Manufacturer": "Siemens",
  "ManufacturersModelName": "Prisma_fit",
  "Modality": "MR",
  "MultibandAccelerationFactor": 4,
  "PartialFourier": 1,
  "PatientPosition": "HFS",
  "PercentPhaseFOV": 100,
  "PhaseEncodingDirection": "j",
  "PhaseEncodingSteps": 104,
  "PhaseResolution": 1,
  "PixelBandwidth": 2290,
  "ProcedureStepDescription": "video_friends",
  "ProtocolName": "func_task-friends-s03e03a",
  "PulseSequenceDetails": "%CustomerSeq%_cmrr_mbep2d_bold",
  "ReceiveCoilActiveElements": "HC1-7;NC1,2",
  "ReceiveCoilName": "HeadNeck_64",
  "ReconMatrixPE": 104,
  "RepetitionTime": 1.49,
  "SAR": 0.0289725,
  "ScanOptions": "FS",
  "ScanningSequence": "EP",
  "SequenceName": "epfid2d1_104",
  "SequenceVariant": "SK_SS",
  "SeriesDescription": "func_task-friends-s03e03a",
  "SeriesNumber": 11,
  "ShimSetting": [604, -7273, -8839, 599, -30, -383, 0, 57],
  "SliceThickness": 2,
  "SliceTiming": [0, 0.7825, 0.0975, 0.88, 0.195, 0.98, 0.2925, 1.0775, 0.39, 1.175, 0.49, 1.2725, 0.5875, 1.37, 0.685, 0, 0.7825, 0.0975, 0.88, 0.195, 0.98, 0.2925, 1.0775, 0.39, 1.175, 0.49, 1.2725, 0.5875, 1.37, 0.685, 0, 0.7825, 0.0975, 0.88, 0.195, 0.98, 0.2925, 1.0775, 0.39, 1.175, 0.49, 1.2725, 0.5875, 1.37, 0.685, 0, 0.7825, 0.0975, 0.88, 0.195, 0.98, 0.2925, 1.0775, 0.39, 1.175, 0.49, 1.2725, 0.5875, 1.37, 0.685],
  "SoftwareVersions": "syngo_MR_E11",
  "SpacingBetweenSlices": 2,
  "StationName": "MRC35049",
  "TaskName": "s03e03a",
  "TotalReadoutTime": 0.0576811,
  "TxRefAmp": 217.309,
  "WipMemBlock": "130d2925-fdfb-4465-8dfc-2d46ecbe9b09||Sequence: R016 ve11c/master r/e634e98; Dec 19 2017 11:00:25 by eja",
  "dcmmeta_affine": [
    [-1.996503472328186, -0.07948973774909973, -0.08749490231275558, 106.19664001464844],
    [-0.06197710707783699, 1.9644132852554321, -0.3704579770565033, -79.8131103515625],
    [-0.10066188126802444, 0.36709895730018616, 1.963442325592041, -47.547298431396484],
    [0.0, 0.0, 0.0, 1.0]
],
  "dcmmeta_reorient_transform": [
    [0.0, -1.0, 0.0, 103.0],
    [1.0, 0.0, 0.0, 0.0],
    [0.0, 0.0, 1.0, 0.0],
    [0.0, 0.0, 0.0, 1.0]
],
  "dcmmeta_shape": [104, 104, 60, 454],
  "dcmmeta_slice_dim": 2,
  "dcmmeta_version": 0.6,
  "global": {
    "const": {
      "AcquisitionMatrix": [104, 0, 0, 104],
      "AngioFlag": "N",
      "BitsAllocated": 16,
      "BitsStored": 16,
      "BodyPartExamined": "BRAIN",
      "Columns": 832,
      "EchoNumbers": 1,
      "EchoTime": 37.0,
      "EchoTrainLength": 104,
      "FlipAngle": 52.0,
      "HighBit": 15,
      "ImageOrientationPatient": [0.99825172477542, 0.03098855428328, -0.0503309396528, -0.0397448674333, 0.98220666519366, -0.1835494820528],
      "ImagePositionPatient": [-795.80218965695, -860.1275810826, 160.52884136443],
      "ImageType": [
        "ORIGINAL",
        "PRIMARY",
        "M",
        "MB",
        "ND",
        "MOSAIC"
],
      "ImagedNucleus": "1H",
      "ImagingFrequency": 123.259236,
      "InPlanePhaseEncodingDirection": "COL",
      "MRAcquisitionType": "2D",
      "MagneticFieldStrength": 3.0,
      "Manufacturer": "SIEMENS",
      "ManufacturerModelName": "Prisma_fit",
      "Modality": "MR",
      "NumberOfAverages": 1.0,
      "NumberOfPhaseEncodingSteps": 104,
      "PercentPhaseFieldOfView": 100.0,
      "PercentSampling": 100.0,
      "PerformedProcedureStepStartTime": "130054.848000",
      "PhotometricInterpretation": "MONOCHROME2",
      "PixelBandwidth": 2290.0,
      "PixelRepresentation": 0,
      "PixelSpacing": [2.0, 2.0],
      "ProtocolName": "func_task-friends-s03e03a",
      "RepetitionTime": 1490.0,
      "Rows": 832,
      "SAR": 0.02897254063748,
      "SamplesPerPixel": 1,
      "ScanOptions": "FS",
      "ScanningSequence": "EP",
      "SequenceName": "epfid2d1_104",
      "SequenceVariant": [
        "SK",
        "SS"
],
      "SeriesDescription": "func_task-friends-s03e03a",
      "SeriesNumber": 11,
      "SeriesTime": "132441.113000",
      "SliceLocation": -36.540319000676,
      "SliceThickness": 2.0,
      "SmallestImagePixelValue": 0,
      "SoftwareVersions": "syngo MR E11",
      "SpacingBetweenSlices": 2.0000000056074,
      "SpecificCharacterSet": "ISO_IR 100",
      "StudyID": "2",
      "StudyTime": "130054.790000",
      "TransmitCoilName": "Body",
      "VariableFlipAngleFlag": "N",
      "WindowCenterWidthExplanation": "Algo1",
      "dBdt": 0.0},
    "slices": {}
  },
  "time": {
    "samples": {
      "AcquisitionNumber": [1, 2, 3, 4, 5, 6, 7, 8, 9, 10, 11, 12, 13, 14, 15, 16, 17, 18, 19, 20, 21, 22, 23, 24, 25, 26, 27, 28, 29, 30, 31, 32, 33, 34, 35, 36, 37, 38, 39, 40, 41, 42, 43, 44, 45, 46, 47, 48, 49, 50, 51, 52, 53, 54, 55, 56, 57, 58, 59, 60, 61, 62, 63, 64, 65, 66, 67, 68, 69, 70, 71, 72, 73, 74, 75, 76, 77, 78, 79, 80, 81, 82, 83, 84, 85, 86, 87, 88, 89, 90, 91, 92, 93, 94, 95, 96, 97, 98, 99, 100, 101, 102, 103, 104, 105, 106, 107, 108, 109, 110, 111, 112, 113, 114, 115, 116, 117, 118, 119, 120, 121, 122, 123, 124, 125, 126, 127, 128, 129, 130, 131, 132, 133, 134, 135, 136, 137, 138, 139, 140, 141, 142, 143, 144, 145, 146, 147, 148, 149, 150, 151, 152, 153, 154, 155, 156, 157, 158, 159, 160, 161, 162, 163, 164, 165, 166, 167, 168, 169, 170, 171, 172, 173, 174, 175, 176, 177, 178, 179, 180, 181, 182, 183, 184, 185, 186, 187, 188, 189, 190, 191, 192, 193, 194, 195, 196, 197, 198, 199, 200, 201, 202, 203, 204, 205, 206, 207, 208, 209, 210, 211, 212, 213, 214, 215, 216, 217, 218, 219, 220, 221, 222, 223, 224, 225, 226, 227, 228, 229, 230, 231, 232, 233, 234, 235, 236, 237, 238, 239, 240, 241, 242, 243, 244, 245, 246, 247, 248, 249, 250, 251, 252, 253, 254, 255, 256, 257, 258, 259, 260, 261, 262, 263, 264, 265, 266, 267, 268, 269, 270, 271, 272, 273, 274, 275, 276, 277, 278, 279, 280, 281, 282, 283, 284, 285, 286, 287, 288, 289, 290, 291, 292, 293, 294, 295, 296, 297, 298, 299, 300, 301, 302, 303, 304, 305, 306, 307, 308, 309, 310, 311, 312, 313, 314, 315, 316, 317, 318, 319, 320, 321, 322, 323, 324, 325, 326, 327, 328, 329, 330, 331, 332, 333, 334, 335, 336, 337, 338, 339, 340, 341, 342, 343, 344, 345, 346, 347, 348, 349, 350, 351, 352, 353, 354, 355, 356, 357, 358, 359, 360, 361, 362, 363, 364, 365, 366, 367, 368, 369, 370, 371, 372, 373, 374, 375, 376, 377, 378, 379, 380, 381, 382, 383, 384, 385, 386, 387, 388, 389, 390, 391, 392, 393, 394, 395, 396, 397, 398, 399, 400, 401, 402, 403, 404, 405, 406, 407, 408, 409, 410, 411, 412, 413, 414, 415, 416, 417, 418, 419, 420, 421, 422, 423, 424, 425, 426, 427, 428, 429, 430, 431, 432, 433, 434, 435, 436, 437, 438, 439, 440, 441, 442, 443, 444, 445, 446, 447, 448, 449, 450, 451, 452, 453, 454],
      "AcquisitionTime": ["132317.045000", "132318.535000", "132320.025000", "132321.515000", "132323.005000", "132324.495000", "132325.985000", "132327.475000", "132328.965000", "132330.455000", "132331.945000", "132333.435000", "132334.925000", "132336.415000", "132337.905000", "132339.395000", "132340.885000", "132342.375000", "132343.865000", "132345.355000", "132346.845000", "132348.335000", "132349.825000", "132351.315000", "132352.805000", "132354.295000", "132355.785000", "132357.275000", "132358.765000", "132400.255000", "132401.745000", "132403.235000", "132404.725000", "132406.215000", "132407.705000", "132409.195000", "132410.685000", "132412.175000", "132413.665000", "132415.155000", "132416.645000", "132418.135000", "132419.625000", "132421.115000", "132422.605000", "132424.095000", "132425.585000", "132427.075000", "132428.565000", "132430.055000", "132431.545000", "132433.035000", "132434.525000", "132436.015000", "132437.505000", "132438.995000", "132440.485000", "132441.975000", "132443.465000", "132444.955000", "132446.445000", "132447.935000", "132449.425000", "132450.915000", "132452.405000", "132453.895000", "132455.385000", "132456.875000", "132458.365000", "132459.855000", "132501.345000", "132502.835000", "132504.325000", "132505.815000", "132507.305000", "132508.795000", "132510.285000", "132511.775000", "132513.265000", "132514.755000", "132516.245000", "132517.735000", "132519.225000", "132520.715000", "132522.205000", "132523.695000", "132525.185000", "132526.675000", "132528.165000", "132529.655000", "132531.145000", "132532.635000", "132534.125000", "132535.615000", "132537.105000", "132538.595000", "132540.085000", "132541.575000", "132543.065000", "132544.555000", "132546.045000", "132547.535000", "132549.025000", "132550.515000", "132552.005000", "132553.495000", "132554.985000", "132556.475000", "132557.965000", "132559.455000", "132600.945000", "132602.435000", "132603.925000", "132605.415000", "132606.905000", "132608.395000", "132609.885000", "132611.375000", "132612.865000", "132614.355000", "132615.845000", "132617.335000", "132618.825000", "132620.315000", "132621.805000", "132623.295000", "132624.785000", "132626.275000", "132627.765000", "132629.255000", "132630.745000", "132632.235000", "132633.725000", "132635.215000", "132636.705000", "132638.195000", "132639.685000", "132641.175000", "132642.665000", "132644.155000", "132645.645000", "132647.135000", "132648.625000", "132650.115000", "132651.605000", "132653.095000", "132654.585000", "132656.075000", "132657.565000", "132659.055000", "132700.545000", "132702.035000", "132703.525000", "132705.015000", "132706.505000", "132707.995000", "132709.485000", "132710.975000", "132712.465000", "132713.955000", "132715.445000", "132716.935000", "132718.425000", "132719.915000", "132721.405000", "132722.895000", "132724.385000", "132725.875000", "132727.365000", "132728.855000", "132730.345000", "132731.835000", "132733.325000", "132734.815000", "132736.305000", "132737.795000", "132739.285000", "132740.775000", "132742.265000", "132743.755000", "132745.245000", "132746.735000", "132748.225000", "132749.715000", "132751.205000", "132752.695000", "132754.185000", "132755.675000", "132757.165000", "132758.655000", "132800.145000", "132801.635000", "132803.125000", "132804.615000", "132806.105000", "132807.595000", "132809.085000", "132810.575000", "132812.065000", "132813.555000", "132815.045000", "132816.535000", "132818.025000", "132819.515000", "132821.005000", "132822.495000", "132823.985000", "132825.475000", "132826.965000", "132828.455000", "132829.945000", "132831.435000", "132832.925000", "132834.415000", "132835.905000", "132837.395000", "132838.885000", "132840.375000", "132841.865000", "132843.355000", "132844.845000", "132846.335000", "132847.825000", "132849.315000", "132850.805000", "132852.295000", "132853.785000", "132855.275000", "132856.765000", "132858.255000", "132859.745000", "132901.235000", "132902.725000", "132904.215000", "132905.705000", "132907.195000", "132908.685000", "132910.175000", "132911.665000", "132913.155000", "132914.645000", "132916.135000", "132917.625000", "132919.115000", "132920.605000", "132922.095000", "132923.585000", "132925.075000", "132926.565000", "132928.055000", "132929.545000", "132931.035000", "132932.525000", "132934.015000", "132935.505000", "132936.995000", "132938.485000", "132939.975000", "132941.465000", "132942.955000", "132944.445000", "132945.935000", "132947.425000", "132948.915000", "132950.405000", "132951.895000", "132953.385000", "132954.875000", "132956.365000", "132957.855000", "132959.345000", "133000.835000", "133002.325000", "133003.815000", "133005.305000", "133006.795000", "133008.285000", "133009.775000", "133011.265000", "133012.755000", "133014.245000", "133015.735000", "133017.225000", "133018.715000", "133020.205000", "133021.695000", "133023.185000", "133024.675000", "133026.165000", "133027.655000", "133029.145000", "133030.635000", "133032.125000", "133033.615000", "133035.105000", "133036.595000", "133038.085000", "133039.575000", "133041.065000", "133042.555000", "133044.045000", "133045.535000", "133047.025000", "133048.515000", "133050.005000", "133051.495000", "133052.985000", "133054.475000", "133055.965000", "133057.455000", "133058.945000", "133100.435000", "133101.925000", "133103.415000", "133104.905000", "133106.395000", "133107.885000", "133109.375000", "133110.865000", "133112.355000", "133113.845000", "133115.335000", "133116.825000", "133118.315000", "133119.805000", "133121.295000", "133122.785000", "133124.275000", "133125.765000", "133127.255000", "133128.745000", "133130.235000", "133131.725000", "133133.215000", "133134.705000", "133136.195000", "133137.685000", "133139.175000", "133140.665000", "133142.155000", "133143.645000", "133145.135000", "133146.625000", "133148.115000", "133149.605000", "133151.095000", "133152.585000", "133154.075000", "133155.565000", "133157.055000", "133158.545000", "133200.035000", "133201.525000", "133203.015000", "133204.505000", "133205.995000", "133207.485000", "133208.975000", "133210.465000", "133211.955000", "133213.445000", "133214.935000", "133216.425000", "133217.915000", "133219.405000", "133220.895000", "133222.385000", "133223.875000", "133225.365000", "133226.855000", "133228.345000", "133229.835000", "133231.325000", "133232.815000", "133234.305000", "133235.795000", "133237.285000", "133238.775000", "133240.265000", "133241.755000", "133243.245000", "133244.735000", "133246.225000", "133247.715000", "133249.205000", "133250.695000", "133252.185000", "133253.675000", "133255.165000", "133256.655000", "133258.145000", "133259.635000", "133301.125000", "133302.615000", "133304.105000", "133305.595000", "133307.085000", "133308.575000", "133310.065000", "133311.555000", "133313.045000", "133314.535000", "133316.025000", "133317.515000", "133319.005000", "133320.495000", "133321.985000", "133323.475000", "133324.965000", "133326.455000", "133327.945000", "133329.435000", "133330.925000", "133332.415000", "133333.905000", "133335.395000", "133336.885000", "133338.375000", "133339.865000", "133341.355000", "133342.845000", "133344.335000", "133345.825000", "133347.315000", "133348.805000", "133350.295000", "133351.785000", "133353.275000", "133354.765000", "133356.255000", "133357.745000", "133359.235000", "133400.725000", "133402.215000", "133403.705000", "133405.195000", "133406.685000", "133408.175000", "133409.665000", "133411.155000", "133412.645000", "133414.135000", "133415.625000", "133417.115000", "133418.605000", "133420.095000", "133421.585000", "133423.075000", "133424.565000", "133426.055000", "133427.545000", "133429.035000", "133430.525000", "133432.015000"],
      "ContentTime": ["132441.115000", "132441.119000", "132441.126000", "132441.129000", "132441.132000", "132441.135000", "132441.138000", "132441.141000", "132441.144000", "132441.147000", "132441.150000", "132441.153000", "132441.156000", "132441.159000", "132441.162000", "132441.165000", "132441.168000", "132441.171000", "132441.174000", "132441.178000", "132441.181000", "132441.183000", "132441.186000", "132441.190000", "132441.193000", "132501.083000", "132501.086000", "132501.089000", "132501.092000", "132501.095000", "132501.098000", "132501.101000", "132501.104000", "132501.107000", "132501.110000", "132501.113000", "132501.116000", "132501.119000", "132501.123000", "132501.125000", "132501.128000", "132501.131000", "132501.141000", "132501.144000", "132501.147000", "132501.149000", "132521.083000", "132521.086000", "132521.089000", "132521.092000", "132521.095000", "132521.098000", "132521.101000", "132521.104000", "132521.107000", "132521.110000", "132521.113000", "132521.116000", "132521.120000", "132521.123000", "132521.125000", "132521.128000", "132521.132000", "132521.134000", "132521.137000", "132521.140000", "132541.084000", "132541.087000", "132541.090000", "132541.093000", "132541.096000", "132541.099000", "132541.102000", "132541.105000", "132541.108000", "132541.111000", "132541.114000", "132541.117000", "132541.121000", "132541.124000", "132541.126000", "132541.129000", "132541.133000", "132541.136000", "132541.139000", "132541.142000", "132601.084000", "132601.087000", "132601.090000", "132601.093000", "132601.096000", "132601.100000", "132601.103000", "132601.106000", "132601.109000", "132601.112000", "132601.115000", "132601.118000", "132601.121000", "132601.124000", "132601.127000", "132601.130000", "132601.133000", "132601.136000", "132601.139000", "132601.142000", "132641.084000", "132641.087000", "132641.090000", "132641.093000", "132641.096000", "132641.109000", "132641.112000", "132641.115000", "132641.118000", "132641.121000", "132641.124000", "132641.127000", "132641.130000", "132641.133000", "132641.136000", "132641.139000", "132641.142000", "132641.145000", "132641.148000", "132641.151000", "132641.154000", "132641.157000", "132641.160000", "132641.163000", "132641.167000", "132641.170000", "132641.172000", "132641.175000", "132641.179000", "132641.182000", "132721.083000", "132721.086000", "132721.089000", "132721.092000", "132721.096000", "132721.099000", "132721.102000", "132721.105000", "132721.108000", "132721.111000", "132721.114000", "132721.117000", "132721.120000", "132721.123000", "132721.126000", "132721.129000", "132721.132000", "132721.135000", "132721.138000", "132721.141000", "132721.144000", "132721.147000", "132721.150000", "132721.153000", "132721.156000", "132721.159000", "132721.162000", "132801.084000", "132801.087000", "132801.090000", "132801.093000", "132801.096000", "132801.100000", "132801.103000", "132801.106000", "132801.109000", "132801.112000", "132801.115000", "132801.118000", "132801.121000", "132801.124000", "132801.127000", "132801.130000", "132801.133000", "132801.136000", "132801.139000", "132801.142000", "132801.145000", "132801.148000", "132801.151000", "132801.154000", "132801.157000", "132801.160000", "132801.163000", "132841.084000", "132841.087000", "132841.090000", "132841.093000", "132841.096000", "132841.099000", "132841.103000", "132841.106000", "132841.109000", "132841.112000", "132841.115000", "132841.118000", "132841.121000", "132841.124000", "132841.127000", "132841.130000", "132841.133000", "132841.136000", "132841.139000", "132841.142000", "132841.145000", "132841.148000", "132841.152000", "132841.155000", "132841.158000", "132841.161000", "132841.164000", "132921.084000", "132921.087000", "132921.090000", "132921.094000", "132921.097000", "132921.100000", "132921.103000", "132921.106000", "132921.109000", "132921.112000", "132921.115000", "132921.118000", "132921.121000", "132921.124000", "132921.127000", "132921.131000", "132921.134000", "132921.137000", "132921.140000", "132921.143000", "132921.146000", "132921.149000", "132921.152000", "132921.155000", "132921.158000", "132921.161000", "133001.083000", "133001.086000", "133001.089000", "133001.092000", "133001.096000", "133001.099000", "133001.102000", "133001.105000", "133001.108000", "133001.111000", "133001.114000", "133001.117000", "133001.120000", "133001.123000", "133001.126000", "133001.129000", "133001.132000", "133001.135000", "133001.138000", "133001.141000", "133001.145000", "133001.147000", "133001.150000", "133001.158000", "133001.161000", "133001.164000", "133001.167000", "133041.084000", "133041.087000", "133041.090000", "133041.093000", "133041.096000", "133041.100000", "133041.103000", "133041.106000", "133041.109000", "133041.112000", "133041.116000", "133041.119000", "133041.122000", "133041.125000", "133041.128000", "133041.131000", "133041.134000", "133041.137000", "133041.141000", "133041.144000", "133041.147000", "133041.150000", "133041.153000", "133041.156000", "133041.159000", "133041.162000", "133041.165000", "133121.084000", "133121.088000", "133121.091000", "133121.094000", "133121.097000", "133121.100000", "133121.103000", "133121.106000", "133121.109000", "133121.112000", "133121.115000", "133121.118000", "133121.121000", "133121.124000", "133121.127000", "133121.130000", "133121.134000", "133121.137000", "133121.140000", "133121.143000", "133121.146000", "133121.149000", "133121.152000", "133121.155000", "133121.158000", "133121.162000", "133121.165000", "133201.083000", "133201.086000", "133201.089000", "133201.092000", "133201.096000", "133201.099000", "133201.102000", "133201.105000", "133201.108000", "133201.111000", "133201.114000", "133201.117000", "133201.120000", "133201.123000", "133201.126000", "133201.129000", "133201.132000", "133201.135000", "133201.138000", "133201.141000", "133201.145000", "133201.148000", "133201.151000", "133201.154000", "133201.157000", "133201.160000", "133201.163000", "133241.084000", "133241.087000", "133241.090000", "133241.093000", "133241.097000", "133241.100000", "133241.103000", "133241.106000", "133241.109000", "133241.112000", "133241.115000", "133241.118000", "133241.121000", "133241.124000", "133241.127000", "133241.130000", "133241.133000", "133241.136000", "133241.139000", "133241.142000", "133241.145000", "133241.148000", "133241.151000", "133241.155000", "133241.158000", "133241.180000", "133241.183000", "133321.085000", "133321.090000", "133321.094000", "133321.097000", "133321.100000", "133321.103000", "133321.106000", "133321.109000", "133321.112000", "133321.115000", "133321.118000", "133321.121000", "133321.124000", "133321.127000", "133321.131000", "133321.134000", "133321.137000", "133321.140000", "133321.143000", "133321.146000", "133321.149000", "133321.152000", "133321.155000", "133321.158000", "133321.161000", "133321.164000", "133401.084000", "133401.101000", "133401.104000", "133401.107000", "133401.110000", "133401.113000", "133401.116000", "133401.119000", "133401.122000", "133401.125000", "133401.128000", "133401.131000", "133401.134000", "133401.138000", "133401.141000", "133401.144000", "133401.147000", "133401.150000", "133401.153000", "133401.156000", "133401.159000", "133401.162000", "133401.165000", "133401.168000", "133401.171000", "133401.174000", "133401.177000", "133434.156000", "133434.159000", "133434.162000", "133434.165000", "133434.168000", "133434.171000", "133434.174000", "133434.177000", "133434.180000", "133434.183000", "133434.186000", "133434.190000", "133434.193000", "133434.196000", "133434.199000", "133434.202000", "133434.205000", "133434.208000", "133434.211000", "133434.214000", "133434.217000", "133434.221000", "133434.224000"],
