{
  "AcquisitionMatrixPE": 104,
  "AcquisitionNumber": 1,
  "AcquisitionTime": "14:31:6.542500",
  "BandwidthPerPixelPhaseEncode": 17.17,
  "BaseResolution": 104,
  "BodyPartExamined": "BRAIN",
  "CoilString": "HC1-7;NC1_2",
  "ConsistencyInfo": "N4_VE11C_LATEST_20160120",
  "ConversionSoftware": "dcm2niix",
  "ConversionSoftwareVersion": "v1.0.20190902",
  "DerivedVendorReportedEchoSpacing": 0.000560011,
  "DeviceSerialNumber": "167006",
  "DwellTime": 2.1e-06,
  "EchoTime": 0.037,
  "EchoTrainLength": 104,
  "EffectiveEchoSpacing": 0.000560011,
  "FlipAngle": 52,
  "ImageComments": "Unaliased_MB4_PE3_LB",
  "ImageOrientationPatientDICOM": [0.99816, -0.00692022, -0.0602373, -0.00540059, 0.97937, -0.202003],
  "ImageType": [
    "ORIGINAL",
    "PRIMARY",
    "M",
    "MB",
    "ND",
    "MOSAIC"
],
  "ImagingFrequency": 123.259,
  "InPlanePhaseEncodingDirectionDICOM": "COL",
  "InstitutionAddress": "Chemin_Queen-Mary_4565_Montreal_District_CA_H3W_1W5",
  "InstitutionName": "IUGM",
  "InstitutionalDepartmentName": "Department",
  "MRAcquisitionType": "2D",
  "MagneticFieldStrength": 3,
  "Manufacturer": "Siemens",
  "ManufacturersModelName": "Prisma_fit",
  "Modality": "MR",
  "MultibandAccelerationFactor": 4,
  "PartialFourier": 1,
  "PatientPosition": "HFS",
  "PercentPhaseFOV": 100,
  "PhaseEncodingDirection": "j",
  "PhaseEncodingSteps": 104,
  "PhaseResolution": 1,
  "PixelBandwidth": 2290,
  "ProcedureStepDescription": "video_friends",
  "ProtocolName": "func_task-friends-s03e05b",
  "PulseSequenceDetails": "%CustomerSeq%_cmrr_mbep2d_bold",
  "ReceiveCoilActiveElements": "HC1-7;NC1,2",
  "ReceiveCoilName": "HeadNeck_64",
  "ReconMatrixPE": 104,
  "RepetitionTime": 1.49,
  "SAR": 0.0290459,
  "ScanOptions": "FS",
  "ScanningSequence": "EP",
  "SequenceName": "epfid2d1_104",
  "SequenceVariant": "SK_SS",
  "SeriesDescription": "func_task-friends-s03e05b",
  "SeriesNumber": 28,
  "ShimSetting": [601, -7272, -8854, 561, -52, -349, -8, 64],
  "SliceThickness": 2,
  "SliceTiming": [0, 0.785, 0.1, 0.8825, 0.1975, 0.98, 0.295, 1.08, 0.3925, 1.1775, 0.49, 1.275, 0.59, 1.3725, 0.6875, 0, 0.785, 0.1, 0.8825, 0.1975, 0.98, 0.295, 1.08, 0.3925, 1.1775, 0.49, 1.275, 0.59, 1.3725, 0.6875, 0, 0.785, 0.1, 0.8825, 0.1975, 0.98, 0.295, 1.08, 0.3925, 1.1775, 0.49, 1.275, 0.59, 1.3725, 0.6875, 0, 0.785, 0.1, 0.8825, 0.1975, 0.98, 0.295, 1.08, 0.3925, 1.1775, 0.49, 1.275, 0.59, 1.3725, 0.6875],
  "SoftwareVersions": "syngo_MR_E11",
  "SpacingBetweenSlices": 2,
  "StationName": "MRC35049",
  "TaskName": "s03e05b",
  "TotalReadoutTime": 0.0576811,
  "TxRefAmp": 217.645,
  "WipMemBlock": "d2bbf5d9-acd8-4600-9134-16a947b90400||Sequence: R016 ve11c/master r/e634e98; Dec 19 2017 11:00:25 by eja",
  "dcmmeta_affine": [
    [-1.9963202476501465, -0.010801173746585846, -0.12078508734703064, 102.48322296142578],
    [0.013840445317327976, 1.9587401151657104, -0.40391287207603455, -85.90899658203125],
    [-0.1204746663570404, 0.40400558710098267, 1.9550615549087524, -48.621253967285156],
    [0.0, 0.0, 0.0, 1.0]
],
  "dcmmeta_reorient_transform": [
    [0.0, -1.0, 0.0, 103.0],
    [1.0, 0.0, 0.0, 0.0],
    [0.0, 0.0, 1.0, 0.0],
    [0.0, 0.0, 0.0, 1.0]
],
  "dcmmeta_shape": [104, 104, 60, 484],
  "dcmmeta_slice_dim": 2,
  "dcmmeta_version": 0.6,
  "global": {
    "const": {
      "AcquisitionMatrix": [104, 0, 0, 104],
      "AngioFlag": "N",
      "BitsAllocated": 16,
      "BitsStored": 16,
      "BodyPartExamined": "BRAIN",
      "Columns": 832,
      "EchoNumbers": 1,
      "EchoTime": 37.0,
      "EchoTrainLength": 104,
      "FlipAngle": 52.0,
      "HighBit": 15,
      "ImageOrientationPatient": [0.99816009457509, -0.006920222481, -0.0602373316032, -0.0054005867747, 0.97937005649277, -0.2020027873764],
      "ImagePositionPatient": [-824.09962291038, -823.78471522116, 183.9021284478],
      "ImageType": [
        "ORIGINAL",
        "PRIMARY",
        "M",
        "MB",
        "ND",
        "MOSAIC"
],
      "ImagedNucleus": "1H",
      "ImagingFrequency": 123.259262,
      "InPlanePhaseEncodingDirection": "COL",
      "MRAcquisitionType": "2D",
      "MagneticFieldStrength": 3.0,
      "Manufacturer": "SIEMENS",
      "ManufacturerModelName": "Prisma_fit",
      "Modality": "MR",
      "NumberOfAverages": 1.0,
      "NumberOfPhaseEncodingSteps": 104,
      "PercentPhaseFieldOfView": 100.0,
      "PercentSampling": 100.0,
      "PerformedProcedureStepStartTime": "130054.848000",
      "PhotometricInterpretation": "MONOCHROME2",
      "PixelBandwidth": 2290.0,
      "PixelRepresentation": 0,
      "PixelSpacing": [2.0, 2.0],
      "ProtocolName": "func_task-friends-s03e05b",
      "RepetitionTime": 1490.0,
      "Rows": 832,
      "SAR": 0.02904586271083,
      "SamplesPerPixel": 1,
      "ScanOptions": "FS",
      "ScanningSequence": "EP",
      "SequenceName": "epfid2d1_104",
      "SequenceVariant": [
        "SK",
        "SS"
],
      "SeriesDescription": "func_task-friends-s03e05b",
      "SeriesNumber": 28,
      "SeriesTime": "143221.116000",
      "SliceLocation": -36.368116205388,
      "SliceThickness": 2.0,
      "SmallestImagePixelValue": 0,
      "SoftwareVersions": "syngo MR E11",
      "SpacingBetweenSlices": 2.0000000387816,
      "SpecificCharacterSet": "ISO_IR 100",
      "StudyID": "2",
      "StudyTime": "130054.790000",
      "TransmitCoilName": "Body",
      "VariableFlipAngleFlag": "N",
      "WindowCenterWidthExplanation": "Algo1",
      "dBdt": 0.0},
    "slices": {}
  },
  "time": {
    "samples": {
      "AcquisitionNumber": [1, 2, 3, 4, 5, 6, 7, 8, 9, 10, 11, 12, 13, 14, 15, 16, 17, 18, 19, 20, 21, 22, 23, 24, 25, 26, 27, 28, 29, 30, 31, 32, 33, 34, 35, 36, 37, 38, 39, 40, 41, 42, 43, 44, 45, 46, 47, 48, 49, 50, 51, 52, 53, 54, 55, 56, 57, 58, 59, 60, 61, 62, 63, 64, 65, 66, 67, 68, 69, 70, 71, 72, 73, 74, 75, 76, 77, 78, 79, 80, 81, 82, 83, 84, 85, 86, 87, 88, 89, 90, 91, 92, 93, 94, 95, 96, 97, 98, 99, 100, 101, 102, 103, 104, 105, 106, 107, 108, 109, 110, 111, 112, 113, 114, 115, 116, 117, 118, 119, 120, 121, 122, 123, 124, 125, 126, 127, 128, 129, 130, 131, 132, 133, 134, 135, 136, 137, 138, 139, 140, 141, 142, 143, 144, 145, 146, 147, 148, 149, 150, 151, 152, 153, 154, 155, 156, 157, 158, 159, 160, 161, 162, 163, 164, 165, 166, 167, 168, 169, 170, 171, 172, 173, 174, 175, 176, 177, 178, 179, 180, 181, 182, 183, 184, 185, 186, 187, 188, 189, 190, 191, 192, 193, 194, 195, 196, 197, 198, 199, 200, 201, 202, 203, 204, 205, 206, 207, 208, 209, 210, 211, 212, 213, 214, 215, 216, 217, 218, 219, 220, 221, 222, 223, 224, 225, 226, 227, 228, 229, 230, 231, 232, 233, 234, 235, 236, 237, 238, 239, 240, 241, 242, 243, 244, 245, 246, 247, 248, 249, 250, 251, 252, 253, 254, 255, 256, 257, 258, 259, 260, 261, 262, 263, 264, 265, 266, 267, 268, 269, 270, 271, 272, 273, 274, 275, 276, 277, 278, 279, 280, 281, 282, 283, 284, 285, 286, 287, 288, 289, 290, 291, 292, 293, 294, 295, 296, 297, 298, 299, 300, 301, 302, 303, 304, 305, 306, 307, 308, 309, 310, 311, 312, 313, 314, 315, 316, 317, 318, 319, 320, 321, 322, 323, 324, 325, 326, 327, 328, 329, 330, 331, 332, 333, 334, 335, 336, 337, 338, 339, 340, 341, 342, 343, 344, 345, 346, 347, 348, 349, 350, 351, 352, 353, 354, 355, 356, 357, 358, 359, 360, 361, 362, 363, 364, 365, 366, 367, 368, 369, 370, 371, 372, 373, 374, 375, 376, 377, 378, 379, 380, 381, 382, 383, 384, 385, 386, 387, 388, 389, 390, 391, 392, 393, 394, 395, 396, 397, 398, 399, 400, 401, 402, 403, 404, 405, 406, 407, 408, 409, 410, 411, 412, 413, 414, 415, 416, 417, 418, 419, 420, 421, 422, 423, 424, 425, 426, 427, 428, 429, 430, 431, 432, 433, 434, 435, 436, 437, 438, 439, 440, 441, 442, 443, 444, 445, 446, 447, 448, 449, 450, 451, 452, 453, 454, 455, 456, 457, 458, 459, 460, 461, 462, 463, 464, 465, 466, 467, 468, 469, 470, 471, 472, 473, 474, 475, 476, 477, 478, 479, 480, 481, 482, 483, 484],
      "AcquisitionTime": ["143106.542500", "143108.032500", "143109.522500", "143111.012500", "143112.502500", "143113.992500", "143115.482500", "143116.972500", "143118.462500", "143119.952500", "143121.442500", "143122.932500", "143124.422500", "143125.912500", "143127.402500", "143128.892500", "143130.382500", "143131.872500", "143133.362500", "143134.852500", "143136.342500", "143137.832500", "143139.322500", "143140.812500", "143142.302500", "143143.792500", "143145.282500", "143146.772500", "143148.262500", "143149.752500", "143151.242500", "143152.732500", "143154.222500", "143155.712500", "143157.202500", "143158.692500", "143200.182500", "143201.672500", "143203.162500", "143204.652500", "143206.142500", "143207.632500", "143209.122500", "143210.612500", "143212.102500", "143213.592500", "143215.082500", "143216.572500", "143218.062500", "143219.552500", "143221.042500", "143222.532500", "143224.022500", "143225.512500", "143227.002500", "143228.492500", "143229.982500", "143231.472500", "143232.962500", "143234.452500", "143235.942500", "143237.432500", "143238.922500", "143240.412500", "143241.902500", "143243.392500", "143244.882500", "143246.372500", "143247.862500", "143249.352500", "143250.842500", "143252.332500", "143253.822500", "143255.312500", "143256.802500", "143258.292500", "143259.782500", "143301.272500", "143302.762500", "143304.252500", "143305.742500", "143307.232500", "143308.722500", "143310.212500", "143311.702500", "143313.192500", "143314.682500", "143316.172500", "143317.662500", "143319.152500", "143320.642500", "143322.132500", "143323.622500", "143325.112500", "143326.602500", "143328.092500", "143329.582500", "143331.072500", "143332.562500", "143334.052500", "143335.542500", "143337.032500", "143338.522500", "143340.012500", "143341.502500", "143342.992500", "143344.482500", "143345.972500", "143347.462500", "143348.952500", "143350.442500", "143351.932500", "143353.422500", "143354.912500", "143356.402500", "143357.892500", "143359.382500", "143400.872500", "143402.362500", "143403.852500", "143405.342500", "143406.832500", "143408.322500", "143409.812500", "143411.302500", "143412.792500", "143414.282500", "143415.772500", "143417.262500", "143418.752500", "143420.242500", "143421.732500", "143423.222500", "143424.712500", "143426.202500", "143427.692500", "143429.182500", "143430.672500", "143432.162500", "143433.652500", "143435.142500", "143436.632500", "143438.122500", "143439.612500", "143441.102500", "143442.592500", "143444.082500", "143445.572500", "143447.062500", "143448.552500", "143450.042500", "143451.532500", "143453.022500", "143454.512500", "143456.002500", "143457.492500", "143458.982500", "143500.472500", "143501.962500", "143503.452500", "143504.942500", "143506.432500", "143507.922500", "143509.412500", "143510.902500", "143512.392500", "143513.882500", "143515.372500", "143516.862500", "143518.352500", "143519.842500", "143521.332500", "143522.822500", "143524.312500", "143525.802500", "143527.292500", "143528.782500", "143530.272500", "143531.762500", "143533.252500", "143534.742500", "143536.232500", "143537.722500", "143539.212500", "143540.702500", "143542.192500", "143543.682500", "143545.172500", "143546.662500", "143548.152500", "143549.642500", "143551.132500", "143552.622500", "143554.112500", "143555.602500", "143557.092500", "143558.582500", "143600.072500", "143601.562500", "143603.052500", "143604.542500", "143606.032500", "143607.522500", "143609.012500", "143610.502500", "143611.992500", "143613.482500", "143614.972500", "143616.462500", "143617.952500", "143619.442500", "143620.932500", "143622.422500", "143623.912500", "143625.402500", "143626.892500", "143628.382500", "143629.872500", "143631.362500", "143632.852500", "143634.342500", "143635.832500", "143637.322500", "143638.812500", "143640.302500", "143641.792500", "143643.282500", "143644.772500", "143646.262500", "143647.752500", "143649.242500", "143650.732500", "143652.222500", "143653.712500", "143655.202500", "143656.692500", "143658.182500", "143659.672500", "143701.162500", "143702.652500", "143704.142500", "143705.632500", "143707.122500", "143708.612500", "143710.102500", "143711.592500", "143713.082500", "143714.572500", "143716.062500", "143717.552500", "143719.042500", "143720.532500", "143722.022500", "143723.512500", "143725.002500", "143726.492500", "143727.982500", "143729.472500", "143730.962500", "143732.452500", "143733.942500", "143735.432500", "143736.922500", "143738.412500", "143739.902500", "143741.392500", "143742.882500", "143744.372500", "143745.862500", "143747.352500", "143748.842500", "143750.332500", "143751.822500", "143753.312500", "143754.802500", "143756.292500", "143757.782500", "143759.272500", "143800.762500", "143802.252500", "143803.742500", "143805.232500", "143806.722500", "143808.212500", "143809.702500", "143811.192500", "143812.682500", "143814.172500", "143815.662500", "143817.152500", "143818.642500", "143820.132500", "143821.622500", "143823.112500", "143824.602500", "143826.092500", "143827.582500", "143829.072500", "143830.562500", "143832.052500", "143833.542500", "143835.032500", "143836.522500", "143838.012500", "143839.502500", "143840.992500", "143842.482500", "143843.972500", "143845.462500", "143846.952500", "143848.442500", "143849.932500", "143851.422500", "143852.912500", "143854.402500", "143855.892500", "143857.382500", "143858.872500", "143900.362500", "143901.852500", "143903.342500", "143904.832500", "143906.322500", "143907.812500", "143909.302500", "143910.792500", "143912.282500", "143913.772500", "143915.262500", "143916.752500", "143918.242500", "143919.732500", "143921.222500", "143922.712500", "143924.202500", "143925.692500", "143927.182500", "143928.672500", "143930.162500", "143931.652500", "143933.142500", "143934.632500", "143936.122500", "143937.612500", "143939.102500", "143940.592500", "143942.082500", "143943.572500", "143945.062500", "143946.552500", "143948.042500", "143949.532500", "143951.022500", "143952.512500", "143954.002500", "143955.492500", "143956.982500", "143958.472500", "143959.962500", "144001.452500", "144002.942500", "144004.432500", "144005.922500", "144007.412500", "144008.902500", "144010.392500", "144011.882500", "144013.372500", "144014.862500", "144016.352500", "144017.842500", "144019.332500", "144020.822500", "144022.312500", "144023.802500", "144025.292500", "144026.782500", "144028.272500", "144029.762500", "144031.252500", "144032.742500", "144034.232500", "144035.722500", "144037.212500", "144038.702500", "144040.192500", "144041.682500", "144043.172500", "144044.662500", "144046.152500", "144047.642500", "144049.132500", "144050.622500", "144052.112500", "144053.602500", "144055.092500", "144056.582500", "144058.072500", "144059.562500", "144101.052500", "144102.542500", "144104.032500", "144105.522500", "144107.012500", "144108.502500", "144109.992500", "144111.482500", "144112.972500", "144114.462500", "144115.952500", "144117.442500", "144118.932500", "144120.422500", "144121.912500", "144123.402500", "144124.892500", "144126.382500", "144127.872500", "144129.362500", "144130.852500", "144132.342500", "144133.832500", "144135.322500", "144136.812500", "144138.302500", "144139.792500", "144141.282500", "144142.772500", "144144.262500", "144145.752500", "144147.242500", "144148.732500", "144150.222500", "144151.712500", "144153.202500", "144154.692500", "144156.182500", "144157.672500", "144159.162500", "144200.652500", "144202.142500", "144203.632500", "144205.122500", "144206.612500", "144208.102500", "144209.592500", "144211.082500", "144212.572500", "144214.062500", "144215.552500", "144217.042500", "144218.532500", "144220.022500", "144221.512500", "144223.002500", "144224.492500", "144225.982500", "144227.472500", "144228.962500", "144230.452500", "144231.942500", "144233.432500", "144234.922500", "144236.412500", "144237.902500", "144239.392500", "144240.882500", "144242.372500", "144243.862500", "144245.352500", "144246.842500", "144248.332500", "144249.822500", "144251.312500", "144252.802500", "144254.292500", "144255.782500", "144257.272500", "144258.762500", "144300.252500", "144301.742500", "144303.232500", "144304.722500", "144306.212500"],
      "ContentTime": ["143221.118000", "143221.122000", "143221.125000", "143221.128000", "143221.132000", "143221.135000", "143221.138000", "143221.147000", "143221.151000", "143221.154000", "143221.157000", "143221.160000", "143221.163000", "143221.166000", "143221.181000", "143221.184000", "143221.187000", "143221.190000", "143221.193000", "143221.196000", "143241.083000", "143241.086000", "143241.089000", "143241.092000", "143241.095000", "143241.098000", "143241.101000", "143241.104000", "143241.107000", "143241.110000", "143241.113000", "143241.116000", "143241.119000", "143241.122000", "143241.125000", "143241.128000", "143241.131000", "143241.134000", "143241.137000", "143241.141000", "143301.084000", "143301.087000", "143301.090000", "143301.093000", "143301.096000", "143301.099000", "143301.102000", "143301.105000", "143301.108000", "143301.111000", "143301.114000", "143301.117000", "143301.120000", "143301.123000", "143301.126000", "143301.130000", "143301.132000", "143301.135000", "143301.138000", "143301.142000", "143321.084000", "143321.087000", "143321.090000", "143321.093000", "143321.096000", "143321.099000", "143321.102000", "143321.105000", "143321.108000", "143321.111000", "143321.114000", "143321.117000", "143321.120000", "143321.123000", "143321.126000", "143321.129000", "143321.132000", "143321.136000", "143321.138000", "143321.142000", "143341.084000", "143341.087000", "143341.090000", "143341.093000", "143341.096000", "143341.100000", "143341.103000", "143341.106000", "143341.110000", "143341.113000", "143341.116000", "143341.119000", "143341.123000", "143341.126000", "143341.129000", "143341.132000", "143341.136000", "143341.139000", "143341.142000", "143341.145000", "143421.084000", "143421.087000", "143421.090000", "143421.093000", "143421.096000", "143421.099000", "143421.102000", "143421.106000", "143421.109000", "143421.112000", "143421.115000", "143421.118000", "143421.121000", "143421.124000", "143421.127000", "143421.136000", "143421.140000", "143421.143000", "143421.145000", "143421.149000", "143421.152000", "143421.155000", "143421.158000", "143421.161000", "143421.164000", "143421.167000", "143421.170000", "143421.173000", "143421.176000", "143421.179000", "143501.083000", "143501.086000", "143501.089000", "143501.093000", "143501.096000", "143501.099000", "143501.102000", "143501.105000", "143501.108000", "143501.111000", "143501.114000", "143501.117000", "143501.120000", "143501.123000", "143501.126000", "143501.129000", "143501.132000", "143501.135000", "143501.138000", "143501.142000", "143501.145000", "143501.148000", "143501.151000", "143501.154000", "143501.157000", "143501.160000", "143501.178000", "143541.084000", "143541.087000", "143541.090000", "143541.093000", "143541.097000", "143541.100000", "143541.103000", "143541.106000", "143541.109000", "143541.112000", "143541.115000", "143541.118000", "143541.121000", "143541.124000", "143541.127000", "143541.135000", "143541.138000", "143541.141000", "143541.144000", "143541.147000", "143541.150000", "143541.153000", "143541.156000", "143541.159000", "143541.162000", "143541.165000", "143541.169000", "143601.084000", "143601.087000", "143601.090000", "143601.094000", "143601.097000", "143601.100000", "143601.103000", "143601.106000", "143601.109000", "143601.112000", "143601.115000", "143601.118000", "143601.121000", "143641.083000", "143641.086000", "143641.089000", "143641.093000", "143641.096000", "143641.099000", "143641.102000", "143641.105000", "143641.108000", "143641.111000", "143641.114000", "143641.117000", "143641.120000", "143641.123000", "143641.126000", "143641.129000", "143641.141000", "143641.144000", "143641.147000", "143641.150000", "143641.153000", "143641.156000", "143641.159000", "143641.162000", "143641.165000", "143641.168000", "143641.172000", "143721.083000", "143721.086000", "143721.089000", "143721.093000", "143721.096000", "143721.099000", "143721.102000", "143721.105000", "143721.108000", "143721.111000", "143721.114000", "143721.117000", "143721.120000", "143721.123000", "143721.126000", "143721.129000", "143721.132000", "143721.135000", "143721.138000", "143721.141000", "143721.144000", "143721.147000", "143721.150000", "143721.154000", "143721.157000", "143721.312000", "143721.315000", "143801.084000", "143801.087000", "143801.090000", "143801.093000", "143801.096000", "143801.099000", "143801.102000", "143801.105000", "143801.109000", "143801.112000", "143801.115000", "143801.118000", "143801.121000", "143801.124000", "143801.127000", "143801.130000", "143801.133000", "143801.136000", "143801.139000", "143801.142000", "143801.146000", "143801.149000", "143801.152000", "143801.155000", "143801.158000", "143801.161000", "143801.164000", "143841.084000", "143841.087000", "143841.090000", "143841.093000", "143841.096000", "143841.100000", "143841.103000", "143841.106000", "143841.109000", "143841.112000", "143841.115000", "143841.118000", "143841.121000", "143841.124000", "143841.127000", "143841.130000", "143841.133000", "143841.137000", "143841.140000", "143841.143000", "143841.146000", "143841.150000", "143841.153000", "143841.157000", "143841.160000", "143841.163000", "143921.083000", "143921.086000", "143921.089000", "143921.093000", "143921.096000", "143921.099000", "143921.102000", "143921.105000", "143921.108000", "143921.111000", "143921.114000", "143921.117000", "143921.120000", "143921.123000", "143921.126000", "143921.129000", "143921.132000", "143921.135000", "143921.138000", "143921.141000", "143921.144000", "143921.148000", "143921.162000", "143921.165000", "143921.168000", "143921.171000", "143921.174000", "144001.084000", "144001.087000", "144001.090000", "144001.094000", "144001.097000", "144001.100000", "144001.103000", "144001.106000", "144001.109000", "144001.112000", "144001.115000", "144001.118000", "144001.121000", "144001.124000", "144001.127000", "144001.130000", "144001.134000", "144001.137000", "144001.140000", "144001.143000", "144001.146000", "144001.149000", "144001.152000", "144001.155000", "144001.158000", "144001.161000", "144001.164000", "144041.084000", "144041.087000", "144041.090000", "144041.093000", "144041.096000", "144041.099000", "144041.103000", "144041.106000", "144041.109000", "144041.112000", "144041.115000", "144041.118000", "144041.121000", "144041.124000", "144041.127000", "144041.130000", "144041.133000", "144041.136000", "144041.139000", "144041.142000", "144041.146000", "144041.149000", "144041.152000", "144041.155000", "144041.158000", "144041.225000", "144041.228000", "144121.083000", "144121.086000", "144121.090000", "144121.093000", "144121.096000", "144121.099000", "144121.102000", "144121.105000", "144121.108000", "144121.111000", "144121.114000", "144121.117000", "144121.120000", "144121.123000", "144121.127000", "144121.130000", "144121.133000", "144121.136000", "144121.139000", "144121.142000", "144121.145000", "144121.148000", "144121.151000", "144121.154000", "144121.157000", "144121.160000", "144121.164000", "144201.084000", "144201.087000", "144201.090000", "144201.094000", "144201.097000", "144201.100000", "144201.103000", "144201.106000", "144201.109000", "144201.112000", "144201.115000", "144201.118000", "144201.121000", "144201.124000", "144201.127000", "144201.130000", "144201.133000", "144201.137000", "144201.140000", "144201.143000", "144201.146000", "144201.149000", "144201.152000", "144201.155000", "144201.158000", "144201.185000", "144201.188000", "144241.084000", "144241.087000", "144241.090000", "144241.093000", "144241.106000", "144241.109000", "144241.112000", "144241.115000", "144241.118000", "144241.121000", "144241.124000", "144241.127000", "144241.130000", "144241.133000", "144241.136000", "144241.139000", "144241.143000", "144241.146000", "144241.149000", "144241.152000", "144241.155000", "144241.158000", "144241.161000", "144241.164000", "144241.167000", "144241.170000", "144241.173000", "144307.906000", "144307.909000", "144307.912000", "144307.915000", "144307.918000", "144307.922000", "144307.925000", "144307.928000", "144307.931000", "144307.934000", "144307.937000", "144307.940000", "144307.943000", "144307.946000", "144307.949000", "144307.952000", "144307.955000", "144307.958000"],
