{
  "AcquisitionMatrixPE": 104,
  "AcquisitionNumber": 1,
  "AcquisitionTime": "14:51:10.407500",
  "BandwidthPerPixelPhaseEncode": 17.17,
  "BaseResolution": 104,
  "BodyPartExamined": "BRAIN",
  "CoilString": "HC1-7;NC1_2",
  "ConsistencyInfo": "N4_VE11C_LATEST_20160120",
  "ConversionSoftware": "dcm2niix",
  "ConversionSoftwareVersion": "v1.0.20190902",
  "DerivedVendorReportedEchoSpacing": 0.000560011,
  "DeviceSerialNumber": "167006",
  "DwellTime": 2.1e-06,
  "EchoTime": 0.037,
  "EchoTrainLength": 104,
  "EffectiveEchoSpacing": 0.000560011,
  "FlipAngle": 52,
  "ImageComments": "Unaliased_MB4_PE3_LB",
  "ImageOrientationPatientDICOM": [0.997773, -0.00352846, -0.0666146, -0.00888158, 0.982683, -0.185082],
  "ImageType": [
    "ORIGINAL",
    "PRIMARY",
    "M",
    "MB",
    "ND",
    "MOSAIC"
],
  "ImagingFrequency": 123.259,
  "InPlanePhaseEncodingDirectionDICOM": "COL",
  "InstitutionAddress": "Chemin_Queen-Mary_4565_Montreal_District_CA_H3W_1W5",
  "InstitutionName": "IUGM",
  "InstitutionalDepartmentName": "Department",
  "MRAcquisitionType": "2D",
  "MagneticFieldStrength": 3,
  "Manufacturer": "Siemens",
  "ManufacturersModelName": "Prisma_fit",
  "Modality": "MR",
  "MultibandAccelerationFactor": 4,
  "PartialFourier": 1,
  "PatientPosition": "HFS",
  "PercentPhaseFOV": 100,
  "PhaseEncodingDirection": "j",
  "PhaseEncodingSteps": 104,
  "PhaseResolution": 1,
  "PixelBandwidth": 2290,
  "ProcedureStepDescription": "video_friends",
  "ProtocolName": "func_task-friends-s04e22b",
  "PulseSequenceDetails": "%CustomerSeq%_cmrr_mbep2d_bold",
  "ReceiveCoilActiveElements": "HC1-7;NC1,2",
  "ReceiveCoilName": "HeadNeck_64",
  "ReconMatrixPE": 104,
  "RepetitionTime": 1.49,
  "SAR": 0.0384462,
  "ScanOptions": "FS",
  "ScanningSequence": "EP",
  "SequenceName": "epfid2d1_104",
  "SequenceVariant": "SK_SS",
  "SeriesDescription": "func_task-friends-s04e22b",
  "SeriesNumber": 11,
  "ShimSetting": [605, -7246, -8849, 617, -48, -285, 26, 40],
  "SliceThickness": 2,
  "SliceTiming": [0, 0.785, 0.0975, 0.8825, 0.1975, 0.98, 0.295, 1.0775, 0.3925, 1.1775, 0.49, 1.275, 0.5875, 1.3725, 0.6875, 0, 0.785, 0.0975, 0.8825, 0.1975, 0.98, 0.295, 1.0775, 0.3925, 1.1775, 0.49, 1.275, 0.5875, 1.3725, 0.6875, 0, 0.785, 0.0975, 0.8825, 0.1975, 0.98, 0.295, 1.0775, 0.3925, 1.1775, 0.49, 1.275, 0.5875, 1.3725, 0.6875, 0, 0.785, 0.0975, 0.8825, 0.1975, 0.98, 0.295, 1.0775, 0.3925, 1.1775, 0.49, 1.275, 0.5875, 1.3725, 0.6875],
  "SoftwareVersions": "syngo_MR_E11",
  "SpacingBetweenSlices": 2,
  "StationName": "MRC35049",
  "TaskName": "s04e22b",
  "TotalReadoutTime": 0.0576811,
  "TxRefAmp": 219.76,
  "WipMemBlock": "2ce25e5d-33b3-47cb-9055-ce30f23bf110||Sequence: R016 ve11c/master r/e634e98; Dec 19 2017 11:00:25 by eja",
  "dcmmeta_affine": [
    [-1.9955450296401978, -0.017763150855898857, -0.13222815096378326, 102.67595672607422],
    [0.00705692870542407, 1.9653658866882324, -0.37052255868911743, -85.37870025634766],
    [-0.13322916626930237, 0.37016379833221436, 1.960925579071045, -51.74969482421875],
    [0.0, 0.0, 0.0, 1.0]
],
  "dcmmeta_reorient_transform": [
    [0.0, -1.0, 0.0, 103.0],
    [1.0, 0.0, 0.0, 0.0],
    [0.0, 0.0, 1.0, 0.0],
    [0.0, 0.0, 0.0, 1.0]
],
  "dcmmeta_shape": [104, 104, 60, 459],
  "dcmmeta_slice_dim": 2,
  "dcmmeta_version": 0.6,
  "global": {
    "const": {
      "AcquisitionMatrix": [104, 0, 0, 104],
      "AngioFlag": "N",
      "BitsAllocated": 16,
      "BitsStored": 16,
      "BodyPartExamined": "BRAIN",
      "Columns": 832,
      "EchoNumbers": 1,
      "EchoTime": 37.0,
      "EchoTrainLength": 104,
      "FlipAngle": 52.0,
      "HighBit": 15,
      "ImageOrientationPatient": [0.99777254280142, -0.0035284643098, -0.0666145837726, -0.0088815750141, 0.98268296487603, -0.18508189584],
      "ImagePositionPatient": [-820.75897856704, -829.87846639192, 169.61221185188],
      "ImageType": [
        "ORIGINAL",
        "PRIMARY",
        "M",
        "MB",
        "ND",
        "MOSAIC"
],
      "ImagedNucleus": "1H",
      "ImagingFrequency": 123.259032,
      "InPlanePhaseEncodingDirection": "COL",
      "MRAcquisitionType": "2D",
      "MagneticFieldStrength": 3.0,
      "Manufacturer": "SIEMENS",
      "ManufacturerModelName": "Prisma_fit",
      "Modality": "MR",
      "NumberOfAverages": 1.0,
      "NumberOfPhaseEncodingSteps": 104,
      "PercentPhaseFieldOfView": 100.0,
      "PercentSampling": 100.0,
      "PerformedProcedureStepStartTime": "142119.026000",
      "PhotometricInterpretation": "MONOCHROME2",
      "PixelBandwidth": 2290.0,
      "PixelRepresentation": 0,
      "PixelSpacing": [2.0, 2.0],
      "ProtocolName": "func_task-friends-s04e22b",
      "RepetitionTime": 1490.0,
      "Rows": 832,
      "SAR": 0.03844618867474,
      "SamplesPerPixel": 1,
      "ScanOptions": "FS",
      "ScanningSequence": "EP",
      "SequenceName": "epfid2d1_104",
      "SequenceVariant": [
        "SK",
        "SS"
],
      "SeriesDescription": "func_task-friends-s04e22b",
      "SeriesNumber": 11,
      "SeriesTime": "145228.521000",
      "SliceLocation": -41.709607297817,
      "SliceThickness": 2.0,
      "SmallestImagePixelValue": 0,
      "SoftwareVersions": "syngo MR E11",
      "SpacingBetweenSlices": 2.0000000529643,
      "SpecificCharacterSet": "ISO_IR 100",
      "StudyID": "1",
      "StudyTime": "142118.947000",
      "TransmitCoilName": "Body",
      "VariableFlipAngleFlag": "N",
      "WindowCenterWidthExplanation": "Algo1",
      "dBdt": 0.0},
    "slices": {}
  },
  "time": {
    "samples": {
      "AcquisitionNumber": [1, 2, 3, 4, 5, 6, 7, 8, 9, 10, 11, 12, 13, 14, 15, 16, 17, 18, 19, 20, 21, 22, 23, 24, 25, 26, 27, 28, 29, 30, 31, 32, 33, 34, 35, 36, 37, 38, 39, 40, 41, 42, 43, 44, 45, 46, 47, 48, 49, 50, 51, 52, 53, 54, 55, 56, 57, 58, 59, 60, 61, 62, 63, 64, 65, 66, 67, 68, 69, 70, 71, 72, 73, 74, 75, 76, 77, 78, 79, 80, 81, 82, 83, 84, 85, 86, 87, 88, 89, 90, 91, 92, 93, 94, 95, 96, 97, 98, 99, 100, 101, 102, 103, 104, 105, 106, 107, 108, 109, 110, 111, 112, 113, 114, 115, 116, 117, 118, 119, 120, 121, 122, 123, 124, 125, 126, 127, 128, 129, 130, 131, 132, 133, 134, 135, 136, 137, 138, 139, 140, 141, 142, 143, 144, 145, 146, 147, 148, 149, 150, 151, 152, 153, 154, 155, 156, 157, 158, 159, 160, 161, 162, 163, 164, 165, 166, 167, 168, 169, 170, 171, 172, 173, 174, 175, 176, 177, 178, 179, 180, 181, 182, 183, 184, 185, 186, 187, 188, 189, 190, 191, 192, 193, 194, 195, 196, 197, 198, 199, 200, 201, 202, 203, 204, 205, 206, 207, 208, 209, 210, 211, 212, 213, 214, 215, 216, 217, 218, 219, 220, 221, 222, 223, 224, 225, 226, 227, 228, 229, 230, 231, 232, 233, 234, 235, 236, 237, 238, 239, 240, 241, 242, 243, 244, 245, 246, 247, 248, 249, 250, 251, 252, 253, 254, 255, 256, 257, 258, 259, 260, 261, 262, 263, 264, 265, 266, 267, 268, 269, 270, 271, 272, 273, 274, 275, 276, 277, 278, 279, 280, 281, 282, 283, 284, 285, 286, 287, 288, 289, 290, 291, 292, 293, 294, 295, 296, 297, 298, 299, 300, 301, 302, 303, 304, 305, 306, 307, 308, 309, 310, 311, 312, 313, 314, 315, 316, 317, 318, 319, 320, 321, 322, 323, 324, 325, 326, 327, 328, 329, 330, 331, 332, 333, 334, 335, 336, 337, 338, 339, 340, 341, 342, 343, 344, 345, 346, 347, 348, 349, 350, 351, 352, 353, 354, 355, 356, 357, 358, 359, 360, 361, 362, 363, 364, 365, 366, 367, 368, 369, 370, 371, 372, 373, 374, 375, 376, 377, 378, 379, 380, 381, 382, 383, 384, 385, 386, 387, 388, 389, 390, 391, 392, 393, 394, 395, 396, 397, 398, 399, 400, 401, 402, 403, 404, 405, 406, 407, 408, 409, 410, 411, 412, 413, 414, 415, 416, 417, 418, 419, 420, 421, 422, 423, 424, 425, 426, 427, 428, 429, 430, 431, 432, 433, 434, 435, 436, 437, 438, 439, 440, 441, 442, 443, 444, 445, 446, 447, 448, 449, 450, 451, 452, 453, 454, 455, 456, 457, 458, 459],
      "AcquisitionTime": ["145110.407500", "145111.897500", "145113.387500", "145114.877500", "145116.367500", "145117.857500", "145119.347500", "145120.837500", "145122.327500", "145123.817500", "145125.307500", "145126.797500", "145128.287500", "145129.777500", "145131.267500", "145132.757500", "145134.247500", "145135.737500", "145137.227500", "145138.717500", "145140.207500", "145141.697500", "145143.187500", "145144.677500", "145146.167500", "145147.657500", "145149.147500", "145150.637500", "145152.127500", "145153.617500", "145155.107500", "145156.597500", "145158.087500", "145159.577500", "145201.067500", "145202.557500", "145204.047500", "145205.537500", "145207.027500", "145208.517500", "145210.007500", "145211.497500", "145212.987500", "145214.477500", "145215.967500", "145217.457500", "145218.947500", "145220.437500", "145221.927500", "145223.417500", "145224.907500", "145226.397500", "145227.887500", "145229.377500", "145230.867500", "145232.357500", "145233.847500", "145235.337500", "145236.827500", "145238.317500", "145239.807500", "145241.297500", "145242.787500", "145244.277500", "145245.767500", "145247.257500", "145248.747500", "145250.237500", "145251.727500", "145253.217500", "145254.707500", "145256.197500", "145257.687500", "145259.177500", "145300.667500", "145302.157500", "145303.647500", "145305.137500", "145306.627500", "145308.117500", "145309.607500", "145311.097500", "145312.587500", "145314.077500", "145315.567500", "145317.057500", "145318.547500", "145320.037500", "145321.527500", "145323.017500", "145324.507500", "145325.997500", "145327.487500", "145328.977500", "145330.467500", "145331.957500", "145333.447500", "145334.937500", "145336.427500", "145337.917500", "145339.407500", "145340.897500", "145342.387500", "145343.877500", "145345.367500", "145346.857500", "145348.347500", "145349.837500", "145351.327500", "145352.817500", "145354.307500", "145355.797500", "145357.287500", "145358.777500", "145400.267500", "145401.757500", "145403.247500", "145404.737500", "145406.227500", "145407.717500", "145409.207500", "145410.697500", "145412.187500", "145413.677500", "145415.167500", "145416.657500", "145418.147500", "145419.637500", "145421.127500", "145422.617500", "145424.107500", "145425.597500", "145427.087500", "145428.577500", "145430.067500", "145431.557500", "145433.047500", "145434.537500", "145436.027500", "145437.517500", "145439.007500", "145440.497500", "145441.987500", "145443.477500", "145444.967500", "145446.457500", "145447.947500", "145449.437500", "145450.927500", "145452.417500", "145453.907500", "145455.397500", "145456.887500", "145458.377500", "145459.867500", "145501.357500", "145502.847500", "145504.337500", "145505.827500", "145507.317500", "145508.807500", "145510.297500", "145511.787500", "145513.277500", "145514.767500", "145516.257500", "145517.747500", "145519.237500", "145520.727500", "145522.217500", "145523.707500", "145525.197500", "145526.687500", "145528.177500", "145529.667500", "145531.157500", "145532.647500", "145534.137500", "145535.627500", "145537.117500", "145538.607500", "145540.097500", "145541.587500", "145543.077500", "145544.567500", "145546.057500", "145547.547500", "145549.037500", "145550.527500", "145552.017500", "145553.507500", "145554.997500", "145556.487500", "145557.977500", "145559.467500", "145600.957500", "145602.447500", "145603.937500", "145605.427500", "145606.917500", "145608.407500", "145609.897500", "145611.387500", "145612.877500", "145614.367500", "145615.857500", "145617.347500", "145618.837500", "145620.327500", "145621.817500", "145623.307500", "145624.797500", "145626.287500", "145627.777500", "145629.267500", "145630.757500", "145632.247500", "145633.737500", "145635.227500", "145636.717500", "145638.207500", "145639.697500", "145641.187500", "145642.677500", "145644.167500", "145645.657500", "145647.147500", "145648.637500", "145650.127500", "145651.617500", "145653.107500", "145654.597500", "145656.087500", "145657.577500", "145659.067500", "145700.557500", "145702.047500", "145703.537500", "145705.027500", "145706.517500", "145708.007500", "145709.497500", "145710.987500", "145712.477500", "145713.967500", "145715.457500", "145716.947500", "145718.437500", "145719.927500", "145721.417500", "145722.907500", "145724.397500", "145725.887500", "145727.377500", "145728.867500", "145730.357500", "145731.847500", "145733.337500", "145734.827500", "145736.317500", "145737.807500", "145739.297500", "145740.787500", "145742.277500", "145743.767500", "145745.257500", "145746.747500", "145748.237500", "145749.727500", "145751.217500", "145752.707500", "145754.197500", "145755.687500", "145757.177500", "145758.667500", "145800.157500", "145801.647500", "145803.137500", "145804.627500", "145806.117500", "145807.607500", "145809.097500", "145810.587500", "145812.077500", "145813.567500", "145815.057500", "145816.547500", "145818.037500", "145819.527500", "145821.017500", "145822.507500", "145823.997500", "145825.487500", "145826.977500", "145828.467500", "145829.957500", "145831.447500", "145832.937500", "145834.427500", "145835.917500", "145837.407500", "145838.897500", "145840.387500", "145841.877500", "145843.367500", "145844.857500", "145846.347500", "145847.837500", "145849.327500", "145850.817500", "145852.307500", "145853.797500", "145855.287500", "145856.777500", "145858.267500", "145859.757500", "145901.247500", "145902.737500", "145904.227500", "145905.717500", "145907.207500", "145908.697500", "145910.187500", "145911.677500", "145913.167500", "145914.657500", "145916.147500", "145917.637500", "145919.127500", "145920.617500", "145922.107500", "145923.597500", "145925.087500", "145926.577500", "145928.067500", "145929.557500", "145931.047500", "145932.537500", "145934.027500", "145935.517500", "145937.007500", "145938.497500", "145939.987500", "145941.477500", "145942.967500", "145944.457500", "145945.947500", "145947.437500", "145948.927500", "145950.417500", "145951.907500", "145953.397500", "145954.887500", "145956.377500", "145957.867500", "145959.357500", "150000.847500", "150002.337500", "150003.827500", "150005.317500", "150006.807500", "150008.297500", "150009.787500", "150011.277500", "150012.767500", "150014.257500", "150015.747500", "150017.237500", "150018.727500", "150020.217500", "150021.707500", "150023.197500", "150024.687500", "150026.177500", "150027.667500", "150029.157500", "150030.647500", "150032.137500", "150033.627500", "150035.117500", "150036.607500", "150038.097500", "150039.587500", "150041.077500", "150042.567500", "150044.057500", "150045.547500", "150047.037500", "150048.527500", "150050.017500", "150051.507500", "150052.997500", "150054.487500", "150055.977500", "150057.467500", "150058.957500", "150100.447500", "150101.937500", "150103.427500", "150104.917500", "150106.407500", "150107.897500", "150109.387500", "150110.877500", "150112.367500", "150113.857500", "150115.347500", "150116.837500", "150118.327500", "150119.817500", "150121.307500", "150122.797500", "150124.287500", "150125.777500", "150127.267500", "150128.757500", "150130.247500", "150131.737500", "150133.227500", "150134.717500", "150136.207500", "150137.697500", "150139.187500", "150140.677500", "150142.167500", "150143.657500", "150145.147500", "150146.637500", "150148.127500", "150149.617500", "150151.107500", "150152.597500", "150154.087500", "150155.577500", "150157.067500", "150158.557500", "150200.047500", "150201.537500", "150203.027500", "150204.517500", "150206.007500", "150207.497500", "150208.987500", "150210.477500", "150211.967500", "150213.457500", "150214.947500", "150216.437500", "150217.927500", "150219.417500", "150220.907500", "150222.397500", "150223.887500", "150225.377500", "150226.867500", "150228.357500", "150229.847500", "150231.337500", "150232.827500"],
      "ContentTime": ["145228.524000", "145228.527000", "145228.530000", "145228.533000", "145228.536000", "145228.539000", "145228.542000", "145228.545000", "145228.548000", "145228.551000", "145228.554000", "145228.556000", "145228.559000", "145228.562000", "145228.565000", "145228.568000", "145228.571000", "145228.574000", "145228.577000", "145228.580000", "145228.590000", "145228.593000", "145228.596000", "145228.599000", "145228.602000", "145248.493000", "145248.496000", "145248.499000", "145248.502000", "145248.505000", "145248.508000", "145248.510000", "145248.513000", "145248.516000", "145248.519000", "145248.522000", "145248.525000", "145248.528000", "145248.531000", "145248.534000", "145248.547000", "145248.550000", "145248.553000", "145248.560000", "145248.564000", "145308.493000", "145308.496000", "145308.499000", "145308.502000", "145308.505000", "145308.508000", "145308.511000", "145308.514000", "145308.516000", "145308.519000", "145308.522000", "145308.525000", "145308.528000", "145308.537000", "145308.540000", "145308.543000", "145308.546000", "145308.549000", "145308.552000", "145308.570000", "145308.573000", "145328.493000", "145328.496000", "145328.499000", "145328.501000", "145328.505000", "145328.508000", "145328.510000", "145328.513000", "145328.521000", "145328.524000", "145328.527000", "145328.530000", "145328.533000", "145328.536000", "145328.539000", "145328.542000", "145328.545000", "145328.548000", "145328.550000", "145328.553000", "145408.492000", "145408.495000", "145408.498000", "145408.501000", "145408.504000", "145408.507000", "145408.510000", "145408.512000", "145408.515000", "145408.518000", "145408.521000", "145408.524000", "145408.527000", "145408.530000", "145408.533000", "145408.536000", "145408.539000", "145408.542000", "145408.545000", "145408.547000", "145408.550000", "145408.553000", "145408.557000", "145408.560000", "145408.563000", "145408.565000", "145408.569000", "145408.571000", "145408.575000", "145408.577000", "145408.581000", "145408.583000", "145408.586000", "145448.493000", "145448.496000", "145448.499000", "145448.502000", "145448.505000", "145448.508000", "145448.511000", "145448.514000", "145448.517000", "145448.520000", "145448.523000", "145448.526000", "145448.529000", "145448.532000", "145448.535000", "145448.538000", "145448.540000", "145448.543000", "145448.546000", "145448.549000", "145448.552000", "145448.555000", "145448.558000", "145448.561000", "145448.564000", "145448.567000", "145448.570000", "145528.493000", "145528.496000", "145528.499000", "145528.502000", "145528.505000", "145528.508000", "145528.511000", "145528.514000", "145528.517000", "145528.520000", "145528.523000", "145528.526000", "145528.529000", "145528.532000", "145528.535000", "145528.538000", "145528.540000", "145528.544000", "145528.546000", "145528.554000", "145528.557000", "145528.560000", "145528.562000", "145528.565000", "145528.568000", "145528.571000", "145528.574000", "145608.492000", "145608.495000", "145608.498000", "145608.501000", "145608.505000", "145608.508000", "145608.511000", "145608.514000", "145608.517000", "145608.520000", "145608.523000", "145608.526000", "145608.529000", "145608.532000", "145608.535000", "145608.538000", "145608.541000", "145608.544000", "145608.547000", "145608.550000", "145608.553000", "145608.555000", "145608.559000", "145608.562000", "145608.565000", "145608.568000", "145648.492000", "145648.495000", "145648.498000", "145648.501000", "145648.504000", "145648.507000", "145648.510000", "145648.513000", "145648.516000", "145648.519000", "145648.522000", "145648.525000", "145648.528000", "145648.531000", "145648.534000", "145648.537000", "145648.540000", "145648.543000", "145648.557000", "145648.560000", "145648.563000", "145648.566000", "145648.579000", "145648.582000", "145648.585000", "145648.588000", "145648.596000", "145728.493000", "145728.496000", "145728.499000", "145728.502000", "145728.505000", "145728.508000", "145728.511000", "145728.514000", "145728.517000", "145728.520000", "145728.523000", "145728.526000", "145728.529000", "145728.532000", "145728.535000", "145728.538000", "145728.541000", "145728.544000", "145728.547000", "145728.550000", "145728.553000", "145728.556000", "145728.559000", "145728.562000", "145728.565000", "145728.568000", "145728.571000", "145808.492000", "145808.495000", "145808.502000", "145808.505000", "145808.509000", "145808.511000", "145808.514000", "145808.517000", "145808.520000", "145808.523000", "145808.526000", "145808.529000", "145808.532000", "145808.535000", "145808.538000", "145808.541000", "145808.544000", "145808.547000", "145808.550000", "145808.553000", "145808.556000", "145808.559000", "145808.562000", "145808.565000", "145808.568000", "145808.571000", "145808.574000", "145848.492000", "145848.495000", "145848.498000", "145848.501000", "145848.504000", "145848.507000", "145848.510000", "145848.514000", "145848.517000", "145848.520000", "145848.522000", "145848.526000", "145848.529000", "145848.532000", "145848.534000", "145848.538000", "145848.540000", "145848.543000", "145848.546000", "145848.549000", "145848.552000", "145848.555000", "145848.558000", "145848.561000", "145848.564000", "145848.567000", "145848.570000", "145928.493000", "145928.496000", "145928.499000", "145928.502000", "145928.505000", "145928.508000", "145928.511000", "145928.514000", "145928.517000", "145928.520000", "145928.523000", "145928.526000", "145928.529000", "145928.531000", "145928.535000", "145928.538000", "145928.540000", "145928.543000", "145928.546000", "145928.549000", "145928.552000", "145928.555000", "145928.558000", "145928.561000", "145928.564000", "145928.567000", "145928.570000", "150008.494000", "150008.498000", "150008.502000", "150008.506000", "150008.511000", "150008.515000", "150008.519000", "150008.522000", "150008.525000", "150008.528000", "150008.532000", "150008.535000", "150008.537000", "150008.541000", "150008.544000", "150008.547000", "150008.550000", "150008.553000", "150008.556000", "150008.559000", "150008.561000", "150008.564000", "150008.567000", "150008.570000", "150008.573000", "150008.576000", "150048.492000", "150048.495000", "150048.498000", "150048.501000", "150048.504000", "150048.507000", "150048.510000", "150048.513000", "150048.516000", "150048.519000", "150048.522000", "150048.525000", "150048.528000", "150048.531000", "150048.534000", "150048.537000", "150048.540000", "150048.543000", "150048.546000", "150048.549000", "150048.552000", "150048.555000", "150048.559000", "150048.562000", "150048.565000", "150048.568000", "150048.571000", "150128.492000", "150128.504000", "150128.514000", "150128.517000", "150128.519000", "150128.522000", "150128.526000", "150128.528000", "150128.531000", "150128.534000", "150128.537000", "150128.540000", "150128.543000", "150128.546000", "150128.549000", "150128.552000", "150128.555000", "150128.558000", "150128.575000", "150128.579000", "150128.581000", "150128.584000", "150128.587000", "150128.590000", "150128.594000", "150128.598000", "150128.601000", "150208.493000", "150208.496000", "150208.499000", "150208.502000", "150208.505000", "150208.508000", "150208.511000", "150208.514000", "150208.517000", "150208.520000", "150208.523000", "150208.526000", "150208.529000", "150208.532000", "150208.535000", "150208.538000", "150208.541000", "150208.544000", "150208.547000", "150208.550000", "150208.552000", "150208.555000", "150208.558000", "150208.561000", "150208.564000", "150208.567000", "150208.570000", "150234.586000", "150234.589000", "150234.592000", "150234.595000", "150234.598000", "150234.601000", "150234.604000", "150234.607000", "150234.610000", "150234.613000", "150234.616000", "150234.619000", "150234.622000", "150234.625000", "150234.628000", "150234.631000", "150234.634000", "150234.637000"],
