{
  "AcquisitionMatrixPE": 104,
  "AcquisitionNumber": 1,
  "AcquisitionTime": "14:57:15.522500",
  "BandwidthPerPixelPhaseEncode": 17.17,
  "BaseResolution": 104,
  "BodyPartExamined": "BRAIN",
  "CoilCombinationMethod": "Sum of Squares",
  "ConsistencyInfo": "N4_VE11C_LATEST_20160120",
  "ConversionSoftware": "dcm2niix",
  "ConversionSoftwareVersion": "v1.0.20230411",
  "DerivedVendorReportedEchoSpacing": 0.000560011,
  "DeviceSerialNumber": "167006",
  "DwellTime": 2.1e-06,
  "EchoTime": 0.037,
  "EchoTrainLength": 104,
  "EffectiveEchoSpacing": 0.000560011,
  "FlipAngle": 52,
  "HeudiconvVersion": "0.5.3.post861+ge7d3c7f",
  "ImageComments": "Unaliased MB4/PE3/LB",
  "ImageOrientationPatientDICOM": [0.999262, -0.0384138, -0.000450078, 0.0357681, 0.934586, -0.353934],
  "ImageOrientationText": "Tra>Cor(-20.7)>Sag(-0.8)",
  "ImageType": [
    "ORIGINAL",
    "PRIMARY",
    "M",
    "MB",
    "ND",
    "MOSAIC"
],
  "ImagingFrequency": 123.249748,
  "InPlanePhaseEncodingDirectionDICOM": "COL",
  "InstitutionAddress": "Chemin Queen-Mary 4565,Montreal,District,CA,H3W 1W5",
  "InstitutionName": "IUGM",
  "InstitutionalDepartmentName": "Department",
  "MRAcquisitionType": "2D",
  "MagneticFieldStrength": 3,
  "Manufacturer": "Siemens",
  "ManufacturersModelName": "Prisma_fit",
  "MatrixCoilMode": "SENSE",
  "Modality": "MR",
  "MultibandAccelerationFactor": 4,
  "NonlinearGradientCorrection": false,
  "PartialFourier": 1,
  "PatientPosition": "HFS",
  "PercentPhaseFOV": 100,
  "PercentSampling": 100,
  "PhaseEncodingDirection": "j",
  "PhaseEncodingSteps": 104,
  "PhaseResolution": 1,
  "PixelBandwidth": 2290,
  "ProcedureStepDescription": "video^friends",
  "ProtocolName": "func_task-friends-s07e08a",
  "PulseSequenceDetails": "%CustomerSeq%\\cmrr_mbep2d_bold",
  "ReceiveCoilActiveElements": "HC1-7;NC1,2",
  "ReceiveCoilName": "HeadNeck_64",
  "ReconMatrixPE": 104,
  "RepetitionTime": 1.49,
  "SAR": 0.0689564,
  "ScanOptions": "FS",
  "ScanningSequence": "EP",
  "SequenceName": "epfid2d1_104",
  "SequenceVariant": "SK\\SS",
  "SeriesDescription": "func_task-friends-s07e08a",
  "SeriesNumber": 16,
  "ShimSetting": [598, -7289, -8799, 541, 10, -257, -93, 33],
  "SliceThickness": 2,
  "SliceTiming": [0, 0.7825, 0.0975, 0.88, 0.195, 0.98, 0.2925, 1.0775, 0.39, 1.175, 0.49, 1.2725, 0.5875, 1.37, 0.685, 0, 0.7825, 0.0975, 0.88, 0.195, 0.98, 0.2925, 1.0775, 0.39, 1.175, 0.49, 1.2725, 0.5875, 1.37, 0.685, 0, 0.7825, 0.0975, 0.88, 0.195, 0.98, 0.2925, 1.0775, 0.39, 1.175, 0.49, 1.2725, 0.5875, 1.37, 0.685, 0, 0.7825, 0.0975, 0.88, 0.195, 0.98, 0.2925, 1.0775, 0.39, 1.175, 0.49, 1.2725, 0.5875, 1.37, 0.685],
  "SoftwareVersions": "syngo MR E11",
  "SpacingBetweenSlices": 2,
  "StationName": "MRC35049",
  "TaskName": "s07e08a",
  "TotalReadoutTime": 0.0576811,
  "TxRefAmp": 266.434,
  "WipMemBlock": "2ee0ac45-ae80-4a64-a71e-4d18dd9310de||Sequence: R017 ve11c/master r/75a17815+; Jun 28 2022 16:32:11 by eja",
  "dcmmeta_affine": [
    [-1.9985235929489136, 0.07153622061014175, -0.028033213689923286, 99.80186462402344],
    [0.07682760804891586, 1.8691720962524414, -0.7073141932487488, -71.85704040527344],
    [-0.0009001560974866152, 0.7078689336776733, 1.8705401420593262, -57.935447692871094],
    [0.0, 0.0, 0.0, 1.0]
],
  "dcmmeta_reorient_transform": [
    [0.0, -1.0, 0.0, 103.0],
    [1.0, 0.0, 0.0, 0.0],
    [0.0, 0.0, 1.0, 0.0],
    [0.0, 0.0, 0.0, 1.0]
],
  "dcmmeta_shape": [104, 104, 60, 474],
  "dcmmeta_slice_dim": 2,
  "dcmmeta_version": 0.6,
  "global": {
    "const": {
      "AcquisitionMatrix": [104, 0, 0, 104],
      "AngioFlag": "N",
      "BitsAllocated": 16,
      "BitsStored": 16,
      "BodyPartExamined": "BRAIN",
      "Columns": 832,
      "EchoNumbers": 1,
      "EchoTime": 37.0,
      "EchoTrainLength": 104,
      "FlipAngle": 52.0,
      "HighBit": 15,
      "ImageOrientationPatient": [0.99926181604752, -0.0384138050598, -0.0004500780388, 0.03576811046096, 0.93458601916295, -0.3539344784832],
      "ImagePositionPatient": [-860.67187859949, -773.08105094791, 272.96701345002],
      "ImageType": [
        "ORIGINAL",
        "PRIMARY",
        "M",
        "MB",
        "ND",
        "MOSAIC"
],
      "ImagedNucleus": "1H",
      "ImagingFrequency": 123.249748,
      "InPlanePhaseEncodingDirection": "COL",
      "MRAcquisitionType": "2D",
      "MagneticFieldStrength": 3.0,
      "Manufacturer": "SIEMENS",
      "ManufacturerModelName": "Prisma_fit",
      "Modality": "MR",
      "NumberOfAverages": 1.0,
      "NumberOfPhaseEncodingSteps": 104,
      "PercentPhaseFieldOfView": 100.0,
      "PercentSampling": 100.0,
      "PerformedProcedureStepStartTime": "135859.705000",
      "PhotometricInterpretation": "MONOCHROME2",
      "PixelBandwidth": 2290.0,
      "PixelRepresentation": 0,
      "PixelSpacing": [2.0, 2.0],
      "ProtocolName": "func_task-friends-s07e08a",
      "RepetitionTime": 1490.0,
      "Rows": 832,
      "SAR": 0.06895640205147,
      "SamplesPerPixel": 1,
      "ScanOptions": "FS",
      "ScanningSequence": "EP",
      "SequenceName": "epfid2d1_104",
      "SequenceVariant": [
        "SK",
        "SS"
],
      "SeriesDescription": "func_task-friends-s07e08a",
      "SeriesNumber": 16,
      "SeriesTime": "145833.133000",
      "SliceLocation": -30.171421256559,
      "SliceThickness": 2.0,
      "SmallestImagePixelValue": 0,
      "SoftwareVersions": "syngo MR E11",
      "SpacingBetweenSlices": 1.9999999684285,
      "SpecificCharacterSet": "ISO_IR 100",
      "StudyID": "1",
      "StudyTime": "135859.628000",
      "TransmitCoilName": "Body",
      "VariableFlipAngleFlag": "N",
      "WindowCenterWidthExplanation": "Algo1",
      "dBdt": 0.0},
    "slices": {}
  },
  "time": {
    "samples": {
      "AcquisitionNumber": [1, 2, 3, 4, 5, 6, 7, 8, 9, 10, 11, 12, 13, 14, 15, 16, 17, 18, 19, 20, 21, 22, 23, 24, 25, 26, 27, 28, 29, 30, 31, 32, 33, 34, 35, 36, 37, 38, 39, 40, 41, 42, 43, 44, 45, 46, 47, 48, 49, 50, 51, 52, 53, 54, 55, 56, 57, 58, 59, 60, 61, 62, 63, 64, 65, 66, 67, 68, 69, 70, 71, 72, 73, 74, 75, 76, 77, 78, 79, 80, 81, 82, 83, 84, 85, 86, 87, 88, 89, 90, 91, 92, 93, 94, 95, 96, 97, 98, 99, 100, 101, 102, 103, 104, 105, 106, 107, 108, 109, 110, 111, 112, 113, 114, 115, 116, 117, 118, 119, 120, 121, 122, 123, 124, 125, 126, 127, 128, 129, 130, 131, 132, 133, 134, 135, 136, 137, 138, 139, 140, 141, 142, 143, 144, 145, 146, 147, 148, 149, 150, 151, 152, 153, 154, 155, 156, 157, 158, 159, 160, 161, 162, 163, 164, 165, 166, 167, 168, 169, 170, 171, 172, 173, 174, 175, 176, 177, 178, 179, 180, 181, 182, 183, 184, 185, 186, 187, 188, 189, 190, 191, 192, 193, 194, 195, 196, 197, 198, 199, 200, 201, 202, 203, 204, 205, 206, 207, 208, 209, 210, 211, 212, 213, 214, 215, 216, 217, 218, 219, 220, 221, 222, 223, 224, 225, 226, 227, 228, 229, 230, 231, 232, 233, 234, 235, 236, 237, 238, 239, 240, 241, 242, 243, 244, 245, 246, 247, 248, 249, 250, 251, 252, 253, 254, 255, 256, 257, 258, 259, 260, 261, 262, 263, 264, 265, 266, 267, 268, 269, 270, 271, 272, 273, 274, 275, 276, 277, 278, 279, 280, 281, 282, 283, 284, 285, 286, 287, 288, 289, 290, 291, 292, 293, 294, 295, 296, 297, 298, 299, 300, 301, 302, 303, 304, 305, 306, 307, 308, 309, 310, 311, 312, 313, 314, 315, 316, 317, 318, 319, 320, 321, 322, 323, 324, 325, 326, 327, 328, 329, 330, 331, 332, 333, 334, 335, 336, 337, 338, 339, 340, 341, 342, 343, 344, 345, 346, 347, 348, 349, 350, 351, 352, 353, 354, 355, 356, 357, 358, 359, 360, 361, 362, 363, 364, 365, 366, 367, 368, 369, 370, 371, 372, 373, 374, 375, 376, 377, 378, 379, 380, 381, 382, 383, 384, 385, 386, 387, 388, 389, 390, 391, 392, 393, 394, 395, 396, 397, 398, 399, 400, 401, 402, 403, 404, 405, 406, 407, 408, 409, 410, 411, 412, 413, 414, 415, 416, 417, 418, 419, 420, 421, 422, 423, 424, 425, 426, 427, 428, 429, 430, 431, 432, 433, 434, 435, 436, 437, 438, 439, 440, 441, 442, 443, 444, 445, 446, 447, 448, 449, 450, 451, 452, 453, 454, 455, 456, 457, 458, 459, 460, 461, 462, 463, 464, 465, 466, 467, 468, 469, 470, 471, 472, 473, 474],
      "AcquisitionTime": ["145715.522500", "145717.012500", "145718.502500", "145719.992500", "145721.482500", "145722.972500", "145724.462500", "145725.952500", "145727.442500", "145728.932500", "145730.422500", "145731.912500", "145733.402500", "145734.892500", "145736.382500", "145737.872500", "145739.362500", "145740.852500", "145742.342500", "145743.832500", "145745.322500", "145746.812500", "145748.302500", "145749.792500", "145751.282500", "145752.772500", "145754.262500", "145755.752500", "145757.242500", "145758.732500", "145800.222500", "145801.712500", "145803.202500", "145804.692500", "145806.182500", "145807.672500", "145809.162500", "145810.652500", "145812.142500", "145813.632500", "145815.122500", "145816.612500", "145818.102500", "145819.592500", "145821.082500", "145822.572500", "145824.062500", "145825.552500", "145827.042500", "145828.532500", "145830.022500", "145831.512500", "145833.002500", "145834.492500", "145835.982500", "145837.472500", "145838.962500", "145840.452500", "145841.942500", "145843.432500", "145844.922500", "145846.412500", "145847.902500", "145849.392500", "145850.882500", "145852.372500", "145853.862500", "145855.352500", "145856.842500", "145858.332500", "145859.822500", "145901.312500", "145902.802500", "145904.292500", "145905.782500", "145907.272500", "145908.762500", "145910.252500", "145911.742500", "145913.232500", "145914.722500", "145916.212500", "145917.702500", "145919.192500", "145920.682500", "145922.172500", "145923.662500", "145925.152500", "145926.642500", "145928.132500", "145929.622500", "145931.112500", "145932.602500", "145934.092500", "145935.582500", "145937.072500", "145938.562500", "145940.052500", "145941.542500", "145943.032500", "145944.522500", "145946.012500", "145947.502500", "145948.992500", "145950.482500", "145951.972500", "145953.462500", "145954.952500", "145956.442500", "145957.932500", "145959.422500", "150000.912500", "150002.402500", "150003.892500", "150005.382500", "150006.872500", "150008.362500", "150009.852500", "150011.342500", "150012.832500", "150014.322500", "150015.812500", "150017.302500", "150018.792500", "150020.282500", "150021.772500", "150023.262500", "150024.752500", "150026.242500", "150027.732500", "150029.222500", "150030.712500", "150032.202500", "150033.692500", "150035.182500", "150036.672500", "150038.162500", "150039.652500", "150041.142500", "150042.632500", "150044.122500", "150045.612500", "150047.102500", "150048.592500", "150050.082500", "150051.572500", "150053.062500", "150054.552500", "150056.042500", "150057.532500", "150059.022500", "150100.512500", "150102.002500", "150103.492500", "150104.982500", "150106.472500", "150107.962500", "150109.452500", "150110.942500", "150112.432500", "150113.922500", "150115.412500", "150116.902500", "150118.392500", "150119.882500", "150121.372500", "150122.862500", "150124.352500", "150125.842500", "150127.332500", "150128.822500", "150130.312500", "150131.802500", "150133.292500", "150134.782500", "150136.272500", "150137.762500", "150139.252500", "150140.742500", "150142.232500", "150143.722500", "150145.212500", "150146.702500", "150148.192500", "150149.682500", "150151.172500", "150152.662500", "150154.152500", "150155.642500", "150157.132500", "150158.622500", "150200.112500", "150201.602500", "150203.092500", "150204.582500", "150206.072500", "150207.562500", "150209.052500", "150210.542500", "150212.032500", "150213.522500", "150215.012500", "150216.502500", "150217.992500", "150219.482500", "150220.972500", "150222.462500", "150223.952500", "150225.442500", "150226.932500", "150228.422500", "150229.912500", "150231.402500", "150232.892500", "150234.382500", "150235.872500", "150237.362500", "150238.852500", "150240.342500", "150241.832500", "150243.322500", "150244.812500", "150246.302500", "150247.792500", "150249.282500", "150250.772500", "150252.262500", "150253.752500", "150255.242500", "150256.732500", "150258.222500", "150259.712500", "150301.202500", "150302.692500", "150304.182500", "150305.672500", "150307.162500", "150308.652500", "150310.142500", "150311.632500", "150313.122500", "150314.612500", "150316.102500", "150317.592500", "150319.082500", "150320.572500", "150322.062500", "150323.552500", "150325.042500", "150326.532500", "150328.022500", "150329.512500", "150331.002500", "150332.492500", "150333.982500", "150335.472500", "150336.962500", "150338.452500", "150339.942500", "150341.432500", "150342.922500", "150344.412500", "150345.902500", "150347.392500", "150348.882500", "150350.372500", "150351.862500", "150353.352500", "150354.842500", "150356.332500", "150357.822500", "150359.312500", "150400.802500", "150402.292500", "150403.782500", "150405.272500", "150406.762500", "150408.252500", "150409.742500", "150411.232500", "150412.722500", "150414.212500", "150415.702500", "150417.192500", "150418.682500", "150420.172500", "150421.662500", "150423.152500", "150424.642500", "150426.132500", "150427.622500", "150429.112500", "150430.602500", "150432.092500", "150433.582500", "150435.072500", "150436.562500", "150438.052500", "150439.542500", "150441.032500", "150442.522500", "150444.012500", "150445.502500", "150446.992500", "150448.482500", "150449.972500", "150451.462500", "150452.952500", "150454.442500", "150455.932500", "150457.422500", "150458.912500", "150500.402500", "150501.892500", "150503.382500", "150504.872500", "150506.362500", "150507.852500", "150509.342500", "150510.832500", "150512.322500", "150513.812500", "150515.302500", "150516.792500", "150518.282500", "150519.772500", "150521.262500", "150522.752500", "150524.242500", "150525.732500", "150527.222500", "150528.712500", "150530.202500", "150531.692500", "150533.182500", "150534.672500", "150536.162500", "150537.652500", "150539.142500", "150540.632500", "150542.122500", "150543.612500", "150545.102500", "150546.592500", "150548.082500", "150549.572500", "150551.062500", "150552.552500", "150554.042500", "150555.532500", "150557.022500", "150558.512500", "150600.002500", "150601.492500", "150602.982500", "150604.472500", "150605.962500", "150607.452500", "150608.942500", "150610.432500", "150611.922500", "150613.412500", "150614.902500", "150616.392500", "150617.882500", "150619.372500", "150620.862500", "150622.352500", "150623.842500", "150625.332500", "150626.822500", "150628.312500", "150629.802500", "150631.292500", "150632.782500", "150634.272500", "150635.762500", "150637.252500", "150638.742500", "150640.232500", "150641.722500", "150643.212500", "150644.702500", "150646.192500", "150647.682500", "150649.172500", "150650.662500", "150652.152500", "150653.642500", "150655.132500", "150656.622500", "150658.112500", "150659.602500", "150701.092500", "150702.582500", "150704.072500", "150705.562500", "150707.052500", "150708.542500", "150710.032500", "150711.522500", "150713.012500", "150714.502500", "150715.992500", "150717.482500", "150718.972500", "150720.462500", "150721.952500", "150723.442500", "150724.932500", "150726.422500", "150727.912500", "150729.402500", "150730.892500", "150732.382500", "150733.872500", "150735.362500", "150736.852500", "150738.342500", "150739.832500", "150741.322500", "150742.812500", "150744.302500", "150745.792500", "150747.282500", "150748.772500", "150750.262500", "150751.752500", "150753.242500", "150754.732500", "150756.222500", "150757.712500", "150759.202500", "150800.692500", "150802.182500", "150803.672500", "150805.162500", "150806.652500", "150808.142500", "150809.632500", "150811.122500", "150812.612500", "150814.102500", "150815.592500", "150817.082500", "150818.572500", "150820.062500", "150821.552500", "150823.042500", "150824.532500", "150826.022500", "150827.512500", "150829.002500", "150830.492500", "150831.982500", "150833.472500", "150834.962500", "150836.452500", "150837.942500", "150839.432500", "150840.922500", "150842.412500", "150843.902500", "150845.392500", "150846.882500", "150848.372500", "150849.862500", "150851.352500", "150852.842500", "150854.332500", "150855.822500", "150857.312500", "150858.802500", "150900.292500"],
      "ContentTime": ["145833.136000", "145833.139000", "145833.142000", "145833.145000", "145833.148000", "145833.151000", "145833.154000", "145833.156000", "145833.168000", "145833.171000", "145833.173000", "145833.176000", "145833.179000", "145833.182000", "145833.185000", "145833.188000", "145833.191000", "145833.193000", "145833.196000", "145833.199000", "145833.202000", "145833.205000", "145833.208000", "145833.211000", "145833.214000", "145833.216000", "145833.219000", "145833.222000", "145853.092000", "145853.095000", "145853.098000", "145853.101000", "145853.104000", "145853.107000", "145853.109000", "145853.112000", "145853.115000", "145853.118000", "145853.121000", "145853.124000", "145853.127000", "145853.130000", "145853.132000", "145853.135000", "145853.138000", "145853.141000", "145853.144000", "145853.147000", "145913.092000", "145913.095000", "145913.098000", "145913.101000", "145913.103000", "145913.106000", "145913.109000", "145913.112000", "145913.115000", "145913.118000", "145913.121000", "145913.123000", "145913.126000", "145913.129000", "145913.132000", "145913.135000", "145913.138000", "145913.141000", "145913.143000", "145913.146000", "145933.092000", "145933.095000", "145933.098000", "145933.101000", "145933.103000", "145933.106000", "145933.109000", "145933.112000", "145933.115000", "145933.118000", "145933.121000", "145933.123000", "145933.126000", "145933.129000", "145933.141000", "145933.144000", "145933.147000", "145933.150000", "145933.153000", "145933.155000", "150013.092000", "150013.095000", "150013.098000", "150013.101000", "150013.103000", "150013.106000", "150013.109000", "150013.117000", "150013.120000", "150013.123000", "150013.126000", "150013.128000", "150013.131000", "150013.134000", "150013.137000", "150013.140000", "150013.143000", "150013.146000", "150013.149000", "150013.151000", "150013.154000", "150013.157000", "150013.160000", "150013.163000", "150013.166000", "150013.169000", "150013.172000", "150013.174000", "150013.177000", "150013.180000", "150053.092000", "150053.095000", "150053.098000", "150053.101000", "150053.104000", "150053.106000", "150053.109000", "150053.112000", "150053.115000", "150053.118000", "150053.121000", "150053.124000", "150053.126000", "150053.129000", "150053.132000", "150053.135000", "150053.138000", "150053.141000", "150053.144000", "150053.146000", "150053.149000", "150053.152000", "150053.155000", "150053.158000", "150053.161000", "150053.163000", "150053.166000", "150133.091000", "150133.094000", "150133.097000", "150133.100000", "150133.102000", "150133.105000", "150133.108000", "150133.111000", "150133.114000", "150133.117000", "150133.120000", "150133.123000", "150133.125000", "150133.128000", "150133.131000", "150133.134000", "150133.137000", "150133.140000", "150133.143000", "150133.145000", "150133.148000", "150133.151000", "150133.154000", "150133.157000", "150133.160000", "150133.163000", "150133.165000", "150153.092000", "150153.095000", "150153.098000", "150153.101000", "150153.104000", "150153.107000", "150153.110000", "150153.113000", "150153.115000", "150153.118000", "150153.121000", "150153.124000", "150153.127000", "150233.092000", "150233.095000", "150233.098000", "150233.101000", "150233.104000", "150233.107000", "150233.109000", "150233.112000", "150233.115000", "150233.118000", "150233.121000", "150233.124000", "150233.127000", "150233.130000", "150233.132000", "150233.135000", "150233.138000", "150233.141000", "150233.144000", "150233.147000", "150233.149000", "150233.152000", "150233.155000", "150233.158000", "150233.161000", "150233.164000", "150233.167000", "150313.092000", "150313.095000", "150313.098000", "150313.101000", "150313.104000", "150313.107000", "150313.110000", "150313.112000", "150313.115000", "150313.118000", "150313.121000", "150313.124000", "150313.127000", "150313.130000", "150313.133000", "150313.135000", "150313.138000", "150313.141000", "150313.144000", "150313.147000", "150313.150000", "150313.153000", "150313.156000", "150313.159000", "150313.161000", "150313.164000", "150313.167000", "150353.091000", "150353.094000", "150353.097000", "150353.100000", "150353.103000", "150353.106000", "150353.108000", "150353.111000", "150353.114000", "150353.117000", "150353.120000", "150353.123000", "150353.126000", "150353.129000", "150353.132000", "150353.134000", "150353.137000", "150353.140000", "150353.143000", "150353.146000", "150353.149000", "150353.152000", "150353.159000", "150353.162000", "150353.165000", "150353.168000", "150353.171000", "150433.092000", "150433.095000", "150433.098000", "150433.101000", "150433.104000", "150433.107000", "150433.109000", "150433.112000", "150433.115000", "150433.118000", "150433.121000", "150433.124000", "150433.127000", "150433.130000", "150433.133000", "150433.136000", "150433.138000", "150433.141000", "150433.144000", "150433.147000", "150433.150000", "150433.153000", "150433.156000", "150433.159000", "150433.162000", "150433.165000", "150433.168000", "150513.092000", "150513.095000", "150513.098000", "150513.101000", "150513.104000", "150513.106000", "150513.109000", "150513.112000", "150513.115000", "150513.118000", "150513.121000", "150513.124000", "150513.127000", "150513.129000", "150513.132000", "150513.135000", "150513.138000", "150513.141000", "150513.144000", "150513.147000", "150513.165000", "150513.168000", "150513.171000", "150513.174000", "150513.176000", "150513.179000", "150513.182000", "150553.092000", "150553.095000", "150553.098000", "150553.101000", "150553.103000", "150553.106000", "150553.109000", "150553.112000", "150553.115000", "150553.118000", "150553.121000", "150553.124000", "150553.126000", "150553.129000", "150553.132000", "150553.135000", "150553.138000", "150553.141000", "150553.144000", "150553.147000", "150553.149000", "150553.152000", "150553.155000", "150553.158000", "150553.161000", "150553.164000", "150553.167000", "150633.092000", "150633.095000", "150633.098000", "150633.101000", "150633.104000", "150633.107000", "150633.110000", "150633.113000", "150633.115000", "150633.118000", "150633.121000", "150633.124000", "150633.127000", "150633.130000", "150633.133000", "150633.135000", "150633.138000", "150633.141000", "150633.144000", "150633.147000", "150633.150000", "150633.153000", "150633.156000", "150633.160000", "150633.163000", "150633.166000", "150713.092000", "150713.095000", "150713.098000", "150713.101000", "150713.104000", "150713.107000", "150713.110000", "150713.113000", "150713.116000", "150713.118000", "150713.121000", "150713.124000", "150713.127000", "150713.130000", "150713.133000", "150713.136000", "150713.139000", "150713.141000", "150713.144000", "150713.147000", "150713.150000", "150713.153000", "150713.156000", "150713.159000", "150713.162000", "150713.164000", "150713.167000", "150753.092000", "150753.095000", "150753.098000", "150753.101000", "150753.104000", "150753.107000", "150753.110000", "150753.113000", "150753.115000", "150753.118000", "150753.121000", "150753.124000", "150753.127000", "150753.130000", "150753.133000", "150753.136000", "150753.139000", "150753.141000", "150753.144000", "150753.147000", "150753.150000", "150753.153000", "150753.156000", "150753.159000", "150753.162000", "150753.164000", "150753.167000", "150833.091000", "150833.094000", "150833.097000", "150833.100000", "150833.103000", "150833.106000", "150833.109000", "150833.112000", "150833.114000", "150833.117000", "150833.120000", "150833.123000", "150833.126000", "150833.129000", "150833.132000", "150833.134000", "150833.137000", "150833.140000", "150833.143000", "150833.146000", "150833.149000", "150833.152000", "150833.155000", "150833.158000", "150833.161000", "150833.164000", "150833.166000", "150902.333000", "150902.336000", "150902.339000", "150902.342000", "150902.345000", "150902.348000", "150902.351000", "150902.353000", "150902.356000", "150902.359000", "150902.362000", "150902.365000", "150902.368000", "150902.371000", "150902.374000", "150902.377000", "150902.380000", "150902.383000", "150902.385000", "150902.388000"],
