{
  "AcquisitionMatrixPE": 104,
  "AcquisitionNumber": 1,
  "AcquisitionTime": "14:42:47.105000",
  "BandwidthPerPixelPhaseEncode": 17.17,
  "BaseResolution": 104,
  "BodyPartExamined": "BRAIN",
  "CoilCombinationMethod": "Sum of Squares",
  "ConsistencyInfo": "N4_VE11C_LATEST_20160120",
  "ConversionSoftware": "dcm2niix",
  "ConversionSoftwareVersion": "v1.0.20230411",
  "DerivedVendorReportedEchoSpacing": 0.000560011,
  "DeviceSerialNumber": "167006",
  "DwellTime": 2.1e-06,
  "EchoTime": 0.037,
  "EchoTrainLength": 104,
  "EffectiveEchoSpacing": 0.000560011,
  "FlipAngle": 52,
  "HeudiconvVersion": "0.5.3.post861+ge7d3c7f",
  "ImageComments": "Unaliased MB4/PE3/LB",
  "ImageOrientationPatientDICOM": [0.999262, -0.0384138, -0.000450078, 0.0357681, 0.934586, -0.353934],
  "ImageOrientationText": "Tra>Cor(-20.7)>Sag(-0.8)",
  "ImageType": [
    "ORIGINAL",
    "PRIMARY",
    "M",
    "MB",
    "ND",
    "MOSAIC"
],
  "ImagingFrequency": 123.249742,
  "InPlanePhaseEncodingDirectionDICOM": "COL",
  "InstitutionAddress": "Chemin Queen-Mary 4565,Montreal,District,CA,H3W 1W5",
  "InstitutionName": "IUGM",
  "InstitutionalDepartmentName": "Department",
  "MRAcquisitionType": "2D",
  "MagneticFieldStrength": 3,
  "Manufacturer": "Siemens",
  "ManufacturersModelName": "Prisma_fit",
  "MatrixCoilMode": "SENSE",
  "Modality": "MR",
  "MultibandAccelerationFactor": 4,
  "NonlinearGradientCorrection": false,
  "PartialFourier": 1,
  "PatientPosition": "HFS",
  "PercentPhaseFOV": 100,
  "PercentSampling": 100,
  "PhaseEncodingDirection": "j",
  "PhaseEncodingSteps": 104,
  "PhaseResolution": 1,
  "PixelBandwidth": 2290,
  "ProcedureStepDescription": "video^friends",
  "ProtocolName": "func_task-friends-s07e07b",
  "PulseSequenceDetails": "%CustomerSeq%\\cmrr_mbep2d_bold",
  "ReceiveCoilActiveElements": "HC1-7;NC1,2",
  "ReceiveCoilName": "HeadNeck_64",
  "ReconMatrixPE": 104,
  "RepetitionTime": 1.49,
  "SAR": 0.0689564,
  "ScanOptions": "FS",
  "ScanningSequence": "EP",
  "SequenceName": "epfid2d1_104",
  "SequenceVariant": "SK\\SS",
  "SeriesDescription": "func_task-friends-s07e07b",
  "SeriesNumber": 14,
  "ShimSetting": [598, -7289, -8799, 541, 10, -257, -93, 33],
  "SliceThickness": 2,
  "SliceTiming": [0, 0.785, 0.1, 0.8825, 0.1975, 0.98, 0.295, 1.08, 0.3925, 1.1775, 0.49, 1.275, 0.59, 1.3725, 0.6875, 0, 0.785, 0.1, 0.8825, 0.1975, 0.98, 0.295, 1.08, 0.3925, 1.1775, 0.49, 1.275, 0.59, 1.3725, 0.6875, 0, 0.785, 0.1, 0.8825, 0.1975, 0.98, 0.295, 1.08, 0.3925, 1.1775, 0.49, 1.275, 0.59, 1.3725, 0.6875, 0, 0.785, 0.1, 0.8825, 0.1975, 0.98, 0.295, 1.08, 0.3925, 1.1775, 0.49, 1.275, 0.59, 1.3725, 0.6875],
  "SoftwareVersions": "syngo MR E11",
  "SpacingBetweenSlices": 2,
  "StationName": "MRC35049",
  "TaskName": "s07e07b",
  "TotalReadoutTime": 0.0576811,
  "TxRefAmp": 266.434,
  "WipMemBlock": "ca0726a7-c76a-405d-8ff7-9f3b6a5f3c96||Sequence: R017 ve11c/master r/75a17815+; Jun 28 2022 16:32:11 by eja",
  "dcmmeta_affine": [
    [-1.9985235929489136, 0.07153622061014175, -0.028033213689923286, 99.80186462402344],
    [0.07682760804891586, 1.8691720962524414, -0.7073141932487488, -71.85704040527344],
    [-0.0009001560974866152, 0.7078689336776733, 1.8705401420593262, -57.935447692871094],
    [0.0, 0.0, 0.0, 1.0]
],
  "dcmmeta_reorient_transform": [
    [0.0, -1.0, 0.0, 103.0],
    [1.0, 0.0, 0.0, 0.0],
    [0.0, 0.0, 1.0, 0.0],
    [0.0, 0.0, 0.0, 1.0]
],
  "dcmmeta_shape": [104, 104, 60, 507],
  "dcmmeta_slice_dim": 2,
  "dcmmeta_version": 0.6,
  "global": {
    "const": {
      "AcquisitionMatrix": [104, 0, 0, 104],
      "AngioFlag": "N",
      "BitsAllocated": 16,
      "BitsStored": 16,
      "BodyPartExamined": "BRAIN",
      "Columns": 832,
      "EchoNumbers": 1,
      "EchoTime": 37.0,
      "EchoTrainLength": 104,
      "FlipAngle": 52.0,
      "HighBit": 15,
      "ImageOrientationPatient": [0.99926181604752, -0.0384138050598, -0.0004500780388, 0.03576811046096, 0.93458601916295, -0.3539344784832],
      "ImagePositionPatient": [-860.67187859949, -773.08105094791, 272.96701345002],
      "ImageType": [
        "ORIGINAL",
        "PRIMARY",
        "M",
        "MB",
        "ND",
        "MOSAIC"
],
      "ImagedNucleus": "1H",
      "ImagingFrequency": 123.249742,
      "InPlanePhaseEncodingDirection": "COL",
      "MRAcquisitionType": "2D",
      "MagneticFieldStrength": 3.0,
      "Manufacturer": "SIEMENS",
      "ManufacturerModelName": "Prisma_fit",
      "Modality": "MR",
      "NumberOfAverages": 1.0,
      "NumberOfPhaseEncodingSteps": 104,
      "PercentPhaseFieldOfView": 100.0,
      "PercentSampling": 100.0,
      "PerformedProcedureStepStartTime": "135859.705000",
      "PhotometricInterpretation": "MONOCHROME2",
      "PixelBandwidth": 2290.0,
      "PixelRepresentation": 0,
      "PixelSpacing": [2.0, 2.0],
      "ProtocolName": "func_task-friends-s07e07b",
      "RepetitionTime": 1490.0,
      "Rows": 832,
      "SAR": 0.06895639697267,
      "SamplesPerPixel": 1,
      "ScanOptions": "FS",
      "ScanningSequence": "EP",
      "SequenceName": "epfid2d1_104",
      "SequenceVariant": [
        "SK",
        "SS"
],
      "SeriesDescription": "func_task-friends-s07e07b",
      "SeriesNumber": 14,
      "SeriesTime": "144351.508000",
      "SliceLocation": -30.171421256559,
      "SliceThickness": 2.0,
      "SmallestImagePixelValue": 0,
      "SoftwareVersions": "syngo MR E11",
      "SpacingBetweenSlices": 1.9999999684285,
      "SpecificCharacterSet": "ISO_IR 100",
      "StudyID": "1",
      "StudyTime": "135859.628000",
      "TransmitCoilName": "Body",
      "VariableFlipAngleFlag": "N",
      "WindowCenterWidthExplanation": "Algo1",
      "dBdt": 0.0},
    "slices": {}
  },
  "time": {
    "samples": {
      "AcquisitionNumber": [1, 2, 3, 4, 5, 6, 7, 8, 9, 10, 11, 12, 13, 14, 15, 16, 17, 18, 19, 20, 21, 22, 23, 24, 25, 26, 27, 28, 29, 30, 31, 32, 33, 34, 35, 36, 37, 38, 39, 40, 41, 42, 43, 44, 45, 46, 47, 48, 49, 50, 51, 52, 53, 54, 55, 56, 57, 58, 59, 60, 61, 62, 63, 64, 65, 66, 67, 68, 69, 70, 71, 72, 73, 74, 75, 76, 77, 78, 79, 80, 81, 82, 83, 84, 85, 86, 87, 88, 89, 90, 91, 92, 93, 94, 95, 96, 97, 98, 99, 100, 101, 102, 103, 104, 105, 106, 107, 108, 109, 110, 111, 112, 113, 114, 115, 116, 117, 118, 119, 120, 121, 122, 123, 124, 125, 126, 127, 128, 129, 130, 131, 132, 133, 134, 135, 136, 137, 138, 139, 140, 141, 142, 143, 144, 145, 146, 147, 148, 149, 150, 151, 152, 153, 154, 155, 156, 157, 158, 159, 160, 161, 162, 163, 164, 165, 166, 167, 168, 169, 170, 171, 172, 173, 174, 175, 176, 177, 178, 179, 180, 181, 182, 183, 184, 185, 186, 187, 188, 189, 190, 191, 192, 193, 194, 195, 196, 197, 198, 199, 200, 201, 202, 203, 204, 205, 206, 207, 208, 209, 210, 211, 212, 213, 214, 215, 216, 217, 218, 219, 220, 221, 222, 223, 224, 225, 226, 227, 228, 229, 230, 231, 232, 233, 234, 235, 236, 237, 238, 239, 240, 241, 242, 243, 244, 245, 246, 247, 248, 249, 250, 251, 252, 253, 254, 255, 256, 257, 258, 259, 260, 261, 262, 263, 264, 265, 266, 267, 268, 269, 270, 271, 272, 273, 274, 275, 276, 277, 278, 279, 280, 281, 282, 283, 284, 285, 286, 287, 288, 289, 290, 291, 292, 293, 294, 295, 296, 297, 298, 299, 300, 301, 302, 303, 304, 305, 306, 307, 308, 309, 310, 311, 312, 313, 314, 315, 316, 317, 318, 319, 320, 321, 322, 323, 324, 325, 326, 327, 328, 329, 330, 331, 332, 333, 334, 335, 336, 337, 338, 339, 340, 341, 342, 343, 344, 345, 346, 347, 348, 349, 350, 351, 352, 353, 354, 355, 356, 357, 358, 359, 360, 361, 362, 363, 364, 365, 366, 367, 368, 369, 370, 371, 372, 373, 374, 375, 376, 377, 378, 379, 380, 381, 382, 383, 384, 385, 386, 387, 388, 389, 390, 391, 392, 393, 394, 395, 396, 397, 398, 399, 400, 401, 402, 403, 404, 405, 406, 407, 408, 409, 410, 411, 412, 413, 414, 415, 416, 417, 418, 419, 420, 421, 422, 423, 424, 425, 426, 427, 428, 429, 430, 431, 432, 433, 434, 435, 436, 437, 438, 439, 440, 441, 442, 443, 444, 445, 446, 447, 448, 449, 450, 451, 452, 453, 454, 455, 456, 457, 458, 459, 460, 461, 462, 463, 464, 465, 466, 467, 468, 469, 470, 471, 472, 473, 474, 475, 476, 477, 478, 479, 480, 481, 482, 483, 484, 485, 486, 487, 488, 489, 490, 491, 492, 493, 494, 495, 496, 497, 498, 499, 500, 501, 502, 503, 504, 505, 506, 507],
      "AcquisitionTime": ["144247.105000", "144248.595000", "144250.085000", "144251.575000", "144253.065000", "144254.555000", "144256.045000", "144257.535000", "144259.025000", "144300.515000", "144302.005000", "144303.495000", "144304.985000", "144306.475000", "144307.965000", "144309.455000", "144310.945000", "144312.435000", "144313.925000", "144315.415000", "144316.905000", "144318.395000", "144319.885000", "144321.375000", "144322.865000", "144324.355000", "144325.845000", "144327.335000", "144328.825000", "144330.315000", "144331.805000", "144333.295000", "144334.785000", "144336.275000", "144337.765000", "144339.255000", "144340.745000", "144342.235000", "144343.725000", "144345.215000", "144346.705000", "144348.195000", "144349.685000", "144351.175000", "144352.665000", "144354.155000", "144355.645000", "144357.135000", "144358.625000", "144400.115000", "144401.605000", "144403.095000", "144404.585000", "144406.075000", "144407.565000", "144409.055000", "144410.545000", "144412.035000", "144413.525000", "144415.015000", "144416.505000", "144417.995000", "144419.485000", "144420.975000", "144422.465000", "144423.955000", "144425.445000", "144426.935000", "144428.425000", "144429.915000", "144431.405000", "144432.895000", "144434.385000", "144435.875000", "144437.365000", "144438.855000", "144440.345000", "144441.835000", "144443.325000", "144444.815000", "144446.305000", "144447.795000", "144449.285000", "144450.775000", "144452.265000", "144453.755000", "144455.245000", "144456.735000", "144458.225000", "144459.715000", "144501.205000", "144502.695000", "144504.185000", "144505.675000", "144507.165000", "144508.655000", "144510.145000", "144511.635000", "144513.125000", "144514.615000", "144516.105000", "144517.595000", "144519.085000", "144520.575000", "144522.065000", "144523.555000", "144525.045000", "144526.535000", "144528.025000", "144529.515000", "144531.005000", "144532.495000", "144533.985000", "144535.475000", "144536.965000", "144538.455000", "144539.945000", "144541.435000", "144542.925000", "144544.415000", "144545.905000", "144547.395000", "144548.885000", "144550.375000", "144551.865000", "144553.355000", "144554.845000", "144556.335000", "144557.825000", "144559.315000", "144600.805000", "144602.295000", "144603.785000", "144605.275000", "144606.765000", "144608.255000", "144609.745000", "144611.235000", "144612.725000", "144614.215000", "144615.705000", "144617.195000", "144618.685000", "144620.175000", "144621.665000", "144623.155000", "144624.645000", "144626.135000", "144627.625000", "144629.115000", "144630.605000", "144632.095000", "144633.585000", "144635.075000", "144636.565000", "144638.055000", "144639.545000", "144641.035000", "144642.525000", "144644.015000", "144645.505000", "144646.995000", "144648.485000", "144649.975000", "144651.465000", "144652.955000", "144654.445000", "144655.935000", "144657.425000", "144658.915000", "144700.405000", "144701.895000", "144703.385000", "144704.875000", "144706.365000", "144707.855000", "144709.345000", "144710.835000", "144712.325000", "144713.815000", "144715.305000", "144716.795000", "144718.285000", "144719.775000", "144721.265000", "144722.755000", "144724.245000", "144725.735000", "144727.225000", "144728.715000", "144730.205000", "144731.695000", "144733.185000", "144734.675000", "144736.165000", "144737.655000", "144739.145000", "144740.635000", "144742.125000", "144743.615000", "144745.105000", "144746.595000", "144748.085000", "144749.575000", "144751.065000", "144752.555000", "144754.045000", "144755.535000", "144757.025000", "144758.515000", "144800.005000", "144801.495000", "144802.985000", "144804.475000", "144805.965000", "144807.455000", "144808.945000", "144810.435000", "144811.925000", "144813.415000", "144814.905000", "144816.395000", "144817.885000", "144819.375000", "144820.865000", "144822.355000", "144823.845000", "144825.335000", "144826.825000", "144828.315000", "144829.805000", "144831.295000", "144832.785000", "144834.275000", "144835.765000", "144837.255000", "144838.745000", "144840.235000", "144841.725000", "144843.215000", "144844.705000", "144846.195000", "144847.685000", "144849.175000", "144850.665000", "144852.155000", "144853.645000", "144855.135000", "144856.625000", "144858.115000", "144859.605000", "144901.095000", "144902.585000", "144904.075000", "144905.565000", "144907.055000", "144908.545000", "144910.035000", "144911.525000", "144913.015000", "144914.505000", "144915.995000", "144917.485000", "144918.975000", "144920.465000", "144921.955000", "144923.445000", "144924.935000", "144926.425000", "144927.915000", "144929.405000", "144930.895000", "144932.385000", "144933.875000", "144935.365000", "144936.855000", "144938.345000", "144939.835000", "144941.325000", "144942.815000", "144944.305000", "144945.795000", "144947.285000", "144948.775000", "144950.265000", "144951.755000", "144953.245000", "144954.735000", "144956.225000", "144957.715000", "144959.205000", "145000.695000", "145002.185000", "145003.675000", "145005.165000", "145006.655000", "145008.145000", "145009.635000", "145011.125000", "145012.615000", "145014.105000", "145015.595000", "145017.085000", "145018.575000", "145020.065000", "145021.555000", "145023.045000", "145024.535000", "145026.025000", "145027.515000", "145029.005000", "145030.495000", "145031.985000", "145033.475000", "145034.965000", "145036.455000", "145037.945000", "145039.435000", "145040.925000", "145042.415000", "145043.905000", "145045.395000", "145046.885000", "145048.375000", "145049.865000", "145051.355000", "145052.845000", "145054.335000", "145055.825000", "145057.315000", "145058.805000", "145100.295000", "145101.785000", "145103.275000", "145104.765000", "145106.255000", "145107.745000", "145109.235000", "145110.725000", "145112.215000", "145113.705000", "145115.195000", "145116.685000", "145118.175000", "145119.665000", "145121.155000", "145122.645000", "145124.135000", "145125.625000", "145127.115000", "145128.605000", "145130.095000", "145131.585000", "145133.075000", "145134.565000", "145136.055000", "145137.545000", "145139.035000", "145140.525000", "145142.015000", "145143.505000", "145144.995000", "145146.485000", "145147.975000", "145149.465000", "145150.955000", "145152.445000", "145153.935000", "145155.425000", "145156.915000", "145158.405000", "145159.895000", "145201.385000", "145202.875000", "145204.365000", "145205.855000", "145207.345000", "145208.835000", "145210.325000", "145211.815000", "145213.305000", "145214.795000", "145216.285000", "145217.775000", "145219.265000", "145220.755000", "145222.245000", "145223.735000", "145225.225000", "145226.715000", "145228.205000", "145229.695000", "145231.185000", "145232.675000", "145234.165000", "145235.655000", "145237.145000", "145238.635000", "145240.125000", "145241.615000", "145243.105000", "145244.595000", "145246.085000", "145247.575000", "145249.065000", "145250.555000", "145252.045000", "145253.535000", "145255.025000", "145256.515000", "145258.005000", "145259.495000", "145300.985000", "145302.475000", "145303.965000", "145305.455000", "145306.945000", "145308.435000", "145309.925000", "145311.415000", "145312.905000", "145314.395000", "145315.885000", "145317.375000", "145318.865000", "145320.355000", "145321.845000", "145323.335000", "145324.825000", "145326.315000", "145327.805000", "145329.295000", "145330.785000", "145332.275000", "145333.765000", "145335.255000", "145336.745000", "145338.235000", "145339.725000", "145341.215000", "145342.705000", "145344.195000", "145345.685000", "145347.175000", "145348.665000", "145350.155000", "145351.645000", "145353.135000", "145354.625000", "145356.115000", "145357.605000", "145359.095000", "145400.585000", "145402.075000", "145403.565000", "145405.055000", "145406.545000", "145408.035000", "145409.525000", "145411.015000", "145412.505000", "145413.995000", "145415.485000", "145416.975000", "145418.465000", "145419.955000", "145421.445000", "145422.935000", "145424.425000", "145425.915000", "145427.405000", "145428.895000", "145430.385000", "145431.875000", "145433.365000", "145434.855000", "145436.345000", "145437.835000", "145439.325000", "145440.815000", "145442.305000", "145443.795000", "145445.285000", "145446.775000", "145448.265000", "145449.755000", "145451.245000", "145452.735000", "145454.225000", "145455.715000", "145457.205000", "145458.695000", "145500.185000", "145501.675000", "145503.165000", "145504.655000", "145506.145000", "145507.635000", "145509.125000", "145510.615000", "145512.105000", "145513.595000", "145515.085000", "145516.575000", "145518.065000", "145519.555000", "145521.045000"],
      "ContentTime": ["144351.511000", "144351.514000", "144351.517000", "144351.520000", "144351.523000", "144351.531000", "144351.534000", "144351.536000", "144351.539000", "144351.542000", "144351.552000", "144351.554000", "144351.557000", "144351.560000", "144351.563000", "144411.480000", "144411.483000", "144411.486000", "144411.489000", "144411.491000", "144411.494000", "144411.497000", "144411.500000", "144411.503000", "144411.506000", "144411.509000", "144411.511000", "144411.514000", "144411.517000", "144411.520000", "144411.523000", "144411.528000", "144411.531000", "144411.534000", "144411.537000", "144411.540000", "144431.479000", "144431.482000", "144431.485000", "144431.488000", "144431.490000", "144431.493000", "144431.496000", "144431.499000", "144431.502000", "144431.505000", "144431.507000", "144431.510000", "144431.514000", "144431.517000", "144431.520000", "144431.523000", "144431.526000", "144431.528000", "144431.531000", "144431.534000", "144451.479000", "144451.482000", "144451.485000", "144451.488000", "144451.490000", "144451.493000", "144451.496000", "144451.499000", "144451.502000", "144451.505000", "144451.508000", "144451.511000", "144451.513000", "144451.516000", "144451.519000", "144451.522000", "144451.525000", "144451.528000", "144451.531000", "144451.534000", "144511.479000", "144511.482000", "144511.485000", "144511.488000", "144511.490000", "144511.493000", "144511.496000", "144511.499000", "144511.502000", "144511.505000", "144511.508000", "144511.510000", "144511.513000", "144511.516000", "144511.528000", "144511.531000", "144511.534000", "144511.537000", "144511.545000", "144511.548000", "144551.480000", "144551.483000", "144551.486000", "144551.489000", "144551.491000", "144551.494000", "144551.497000", "144551.500000", "144551.503000", "144551.506000", "144551.509000", "144551.511000", "144551.514000", "144551.517000", "144551.520000", "144551.523000", "144551.526000", "144551.528000", "144551.531000", "144551.534000", "144551.537000", "144551.540000", "144551.543000", "144551.546000", "144551.549000", "144551.551000", "144551.554000", "144631.480000", "144631.483000", "144631.486000", "144631.489000", "144631.491000", "144631.494000", "144631.497000", "144631.500000", "144631.503000", "144631.506000", "144631.509000", "144631.512000", "144631.515000", "144631.517000", "144631.520000", "144631.523000", "144631.526000", "144631.529000", "144631.532000", "144631.535000", "144631.538000", "144631.541000", "144631.543000", "144631.546000", "144631.549000", "144631.552000", "144631.555000", "144711.479000", "144711.482000", "144711.485000", "144711.488000", "144711.491000", "144711.494000", "144711.497000", "144711.499000", "144711.502000", "144711.505000", "144711.508000", "144711.511000", "144711.514000", "144711.517000", "144711.519000", "144711.522000", "144711.525000", "144711.528000", "144711.531000", "144711.534000", "144711.537000", "144711.540000", "144711.543000", "144711.545000", "144711.548000", "144711.551000", "144711.554000", "144751.479000", "144751.482000", "144751.485000", "144751.488000", "144751.490000", "144751.493000", "144751.496000", "144751.499000", "144751.502000", "144751.505000", "144751.508000", "144751.511000", "144751.514000", "144751.516000", "144751.519000", "144751.522000", "144751.525000", "144751.528000", "144751.531000", "144751.534000", "144751.537000", "144751.540000", "144751.542000", "144751.545000", "144751.548000", "144751.551000", "144751.554000", "144831.480000", "144831.483000", "144831.486000", "144831.489000", "144831.492000", "144831.495000", "144831.498000", "144831.501000", "144831.504000", "144831.507000", "144831.516000", "144831.518000", "144831.521000", "144831.524000", "144831.527000", "144831.530000", "144831.533000", "144831.536000", "144831.539000", "144831.542000", "144831.544000", "144831.547000", "144831.550000", "144831.553000", "144831.556000", "144831.559000", "144911.479000", "144911.482000", "144911.485000", "144911.488000", "144911.491000", "144911.494000", "144911.496000", "144911.499000", "144911.502000", "144911.505000", "144911.508000", "144911.511000", "144911.514000", "144911.525000", "144911.528000", "144911.531000", "144911.534000", "144911.537000", "144911.540000", "144911.543000", "144911.546000", "144911.548000", "144911.551000", "144911.554000", "144911.557000", "144911.560000", "144911.563000", "144951.479000", "144951.482000", "144951.485000", "144951.488000", "144951.491000", "144951.493000", "144951.496000", "144951.499000", "144951.502000", "144951.505000", "144951.508000", "144951.511000", "144951.514000", "144951.517000", "144951.520000", "144951.523000", "144951.525000", "144951.547000", "144951.550000", "144951.553000", "144951.556000", "144951.559000", "144951.562000", "144951.565000", "144951.568000", "144951.570000", "144951.573000", "145031.480000", "145031.483000", "145031.486000", "145031.489000", "145031.492000", "145031.494000", "145031.497000", "145031.500000", "145031.503000", "145031.506000", "145031.509000", "145031.512000", "145031.514000", "145031.517000", "145031.520000", "145031.523000", "145031.526000", "145031.529000", "145031.532000", "145031.535000", "145031.538000", "145031.540000", "145031.543000", "145031.546000", "145031.549000", "145031.552000", "145031.555000", "145111.480000", "145111.483000", "145111.486000", "145111.489000", "145111.492000", "145111.495000", "145111.498000", "145111.500000", "145111.503000", "145111.506000", "145111.509000", "145111.512000", "145111.515000", "145111.518000", "145111.521000", "145111.524000", "145111.526000", "145111.529000", "145111.532000", "145111.535000", "145111.538000", "145111.541000", "145111.544000", "145111.547000", "145111.549000", "145111.552000", "145111.555000", "145151.479000", "145151.482000", "145151.490000", "145151.493000", "145151.496000", "145151.498000", "145151.501000", "145151.504000", "145151.507000", "145151.510000", "145151.513000", "145151.516000", "145151.518000", "145151.521000", "145151.524000", "145151.527000", "145151.530000", "145151.533000", "145151.536000", "145151.539000", "145151.542000", "145151.545000", "145151.547000", "145151.550000", "145151.553000", "145151.556000", "145151.559000", "145231.479000", "145231.482000", "145231.485000", "145231.488000", "145231.491000", "145231.494000", "145231.497000", "145231.500000", "145231.504000", "145231.507000", "145231.510000", "145231.513000", "145231.516000", "145231.519000", "145231.522000", "145231.525000", "145231.528000", "145231.531000", "145231.534000", "145231.536000", "145231.539000", "145231.542000", "145231.545000", "145231.548000", "145231.551000", "145231.554000", "145311.480000", "145311.483000", "145311.486000", "145311.489000", "145311.492000", "145311.494000", "145311.497000", "145311.500000", "145311.503000", "145311.506000", "145311.509000", "145311.512000", "145311.515000", "145311.518000", "145311.521000", "145311.524000", "145311.527000", "145311.530000", "145311.533000", "145311.535000", "145311.538000", "145311.541000", "145311.544000", "145311.547000", "145311.550000", "145311.553000", "145311.555000", "145351.479000", "145351.482000", "145351.485000", "145351.488000", "145351.491000", "145351.494000", "145351.497000", "145351.499000", "145351.502000", "145351.505000", "145351.508000", "145351.511000", "145351.514000", "145351.517000", "145351.520000", "145351.523000", "145351.525000", "145351.528000", "145351.531000", "145351.534000", "145351.537000", "145351.540000", "145351.543000", "145351.545000", "145351.548000", "145351.551000", "145351.554000", "145431.479000", "145431.482000", "145431.485000", "145431.488000", "145431.491000", "145431.493000", "145431.496000", "145431.499000", "145431.502000", "145431.505000", "145431.508000", "145431.511000", "145431.514000", "145431.517000", "145431.519000", "145431.522000", "145431.525000", "145431.528000", "145431.531000", "145431.534000", "145431.537000", "145431.540000", "145431.543000", "145431.545000", "145431.548000", "145431.551000", "145431.554000", "145511.480000", "145511.483000", "145511.486000", "145511.489000", "145511.492000", "145511.494000", "145511.497000", "145511.500000", "145511.503000", "145511.506000", "145511.509000", "145511.512000", "145511.515000", "145511.518000", "145511.521000", "145511.524000", "145511.526000", "145511.529000", "145511.532000", "145511.535000", "145511.538000", "145511.541000", "145511.544000", "145511.546000", "145511.549000", "145511.552000", "145511.555000", "145522.925000", "145522.928000", "145522.931000", "145522.934000", "145522.936000", "145522.939000", "145522.942000", "145522.945000"],
