{
  "AcquisitionMatrixPE": 104,
  "AcquisitionNumber": 1,
  "AcquisitionTime": "13:33:2.807500",
  "BandwidthPerPixelPhaseEncode": 17.17,
  "BaseResolution": 104,
  "BodyPartExamined": "BRAIN",
  "CoilString": "HC1-7;NC1_2",
  "ConsistencyInfo": "N4_VE11C_LATEST_20160120",
  "ConversionSoftware": "dcm2niix",
  "ConversionSoftwareVersion": "v1.0.20190902",
  "DerivedVendorReportedEchoSpacing": 0.000560011,
  "DeviceSerialNumber": "167006",
  "DwellTime": 2.1e-06,
  "EchoTime": 0.037,
  "EchoTrainLength": 104,
  "EffectiveEchoSpacing": 0.000560011,
  "FlipAngle": 52,
  "ImageComments": "Unaliased_MB4_PE3_LB",
  "ImageOrientationPatientDICOM": [0.999921, 0.00134721, -0.0125013, -0.00488651, 0.957727, -0.287639],
  "ImageType": [
    "ORIGINAL",
    "PRIMARY",
    "M",
    "MB",
    "ND",
    "MOSAIC"
],
  "ImagingFrequency": 123.259,
  "InPlanePhaseEncodingDirectionDICOM": "COL",
  "InstitutionAddress": "Chemin_Queen-Mary_4565_Montreal_District_CA_H3W_1W5",
  "InstitutionName": "IUGM",
  "InstitutionalDepartmentName": "Department",
  "MRAcquisitionType": "2D",
  "MagneticFieldStrength": 3,
  "Manufacturer": "Siemens",
  "ManufacturersModelName": "Prisma_fit",
  "Modality": "MR",
  "MultibandAccelerationFactor": 4,
  "PartialFourier": 1,
  "PatientPosition": "HFS",
  "PercentPhaseFOV": 100,
  "PhaseEncodingDirection": "j",
  "PhaseEncodingSteps": 104,
  "PhaseResolution": 1,
  "PixelBandwidth": 2290,
  "ProcedureStepDescription": "video_friends",
  "ProtocolName": "func_task-friends-s03e12a",
  "PulseSequenceDetails": "%CustomerSeq%_cmrr_mbep2d_bold",
  "ReceiveCoilActiveElements": "HC1-7;NC1,2",
  "ReceiveCoilName": "HeadNeck_64",
  "ReconMatrixPE": 104,
  "RepetitionTime": 1.49,
  "SAR": 0.0289702,
  "ScanOptions": "FS",
  "ScanningSequence": "EP",
  "SequenceName": "epfid2d1_104",
  "SequenceVariant": "SK_SS",
  "SeriesDescription": "func_task-friends-s03e12a",
  "SeriesNumber": 9,
  "ShimSetting": [625, -7224, -8821, 697, 44, -44, 63, -3],
  "SliceThickness": 2,
  "SliceTiming": [0, 0.7825, 0.0975, 0.88, 0.195, 0.98, 0.2925, 1.0775, 0.39, 1.175, 0.49, 1.2725, 0.5875, 1.37, 0.685, 0, 0.7825, 0.0975, 0.88, 0.195, 0.98, 0.2925, 1.0775, 0.39, 1.175, 0.49, 1.2725, 0.5875, 1.37, 0.685, 0, 0.7825, 0.0975, 0.88, 0.195, 0.98, 0.2925, 1.0775, 0.39, 1.175, 0.49, 1.2725, 0.5875, 1.37, 0.685, 0, 0.7825, 0.0975, 0.88, 0.195, 0.98, 0.2925, 1.0775, 0.39, 1.175, 0.49, 1.2725, 0.5875, 1.37, 0.685],
  "SoftwareVersions": "syngo_MR_E11",
  "SpacingBetweenSlices": 2,
  "StationName": "MRC35049",
  "TaskName": "s03e12a",
  "TotalReadoutTime": 0.0576811,
  "TxRefAmp": 207.835,
  "WipMemBlock": "a73c520a-82da-426d-a66a-99e61ce271d6||Sequence: R016 ve11c/master r/e634e98; Dec 19 2017 11:00:25 by eja",
  "dcmmeta_affine": [
    [-1.9998419284820557, -0.009773021563887596, -0.023170679807662964, 106.1462631225586],
    [-0.0026944242417812347, 1.9154530763626099, -0.5753538608551025, -81.21833038330078],
    [-0.025002649053931236, 0.5752772092819214, 1.915314793586731, -70.11740112304688],
    [0.0, 0.0, 0.0, 1.0]
],
  "dcmmeta_reorient_transform": [
    [0.0, -1.0, 0.0, 103.0],
    [1.0, 0.0, 0.0, 0.0],
    [0.0, 0.0, 1.0, 0.0],
    [0.0, 0.0, 0.0, 1.0]
],
  "dcmmeta_shape": [104, 104, 60, 464],
  "dcmmeta_slice_dim": 2,
  "dcmmeta_version": 0.6,
  "global": {
    "const": {
      "AcquisitionMatrix": [104, 0, 0, 104],
      "AngioFlag": "N",
      "BitsAllocated": 16,
      "BitsStored": 16,
      "BodyPartExamined": "BRAIN",
      "Columns": 832,
      "EchoNumbers": 1,
      "EchoTime": 37.0,
      "EchoTrainLength": 104,
      "FlipAngle": 52.0,
      "HighBit": 15,
      "ImageOrientationPatient": [0.99992094782687, 0.0013472121723, -0.0125013245847, -0.0048865105568, 0.95772655962117, -0.2876385909623],
      "ImagePositionPatient": [-829.52471178906, -814.27904617721, 207.6380062622],
      "ImageType": [
        "ORIGINAL",
        "PRIMARY",
        "M",
        "MB",
        "ND",
        "MOSAIC"
],
      "ImagedNucleus": "1H",
      "ImagingFrequency": 123.259069,
      "InPlanePhaseEncodingDirection": "COL",
      "MRAcquisitionType": "2D",
      "MagneticFieldStrength": 3.0,
      "Manufacturer": "SIEMENS",
      "ManufacturerModelName": "Prisma_fit",
      "Modality": "MR",
      "NumberOfAverages": 1.0,
      "NumberOfPhaseEncodingSteps": 104,
      "PercentPhaseFieldOfView": 100.0,
      "PercentSampling": 100.0,
      "PerformedProcedureStepStartTime": "125912.505000",
      "PhotometricInterpretation": "MONOCHROME2",
      "PixelBandwidth": 2290.0,
      "PixelRepresentation": 0,
      "PixelSpacing": [2.0, 2.0],
      "ProtocolName": "func_task-friends-s03e12a",
      "RepetitionTime": 1490.0,
      "Rows": 832,
      "SAR": 0.02897018674973,
      "SamplesPerPixel": 1,
      "ScanOptions": "FS",
      "ScanningSequence": "EP",
      "SequenceName": "epfid2d1_104",
      "SequenceVariant": [
        "SK",
        "SS"
],
      "SeriesDescription": "func_task-friends-s03e12a",
      "SeriesNumber": 9,
      "SeriesTime": "133445.194000",
      "SliceLocation": -45.013550789134,
      "SliceThickness": 2.0,
      "SmallestImagePixelValue": 0,
      "SoftwareVersions": "syngo MR E11",
      "SpacingBetweenSlices": 1.9999999568954,
      "SpecificCharacterSet": "ISO_IR 100",
      "StudyID": "1",
      "StudyTime": "125912.410000",
      "TransmitCoilName": "Body",
      "VariableFlipAngleFlag": "N",
      "WindowCenterWidthExplanation": "Algo1",
      "dBdt": 0.0},
    "slices": {}
  },
  "time": {
    "samples": {
      "AcquisitionNumber": [1, 2, 3, 4, 5, 6, 7, 8, 9, 10, 11, 12, 13, 14, 15, 16, 17, 18, 19, 20, 21, 22, 23, 24, 25, 26, 27, 28, 29, 30, 31, 32, 33, 34, 35, 36, 37, 38, 39, 40, 41, 42, 43, 44, 45, 46, 47, 48, 49, 50, 51, 52, 53, 54, 55, 56, 57, 58, 59, 60, 61, 62, 63, 64, 65, 66, 67, 68, 69, 70, 71, 72, 73, 74, 75, 76, 77, 78, 79, 80, 81, 82, 83, 84, 85, 86, 87, 88, 89, 90, 91, 92, 93, 94, 95, 96, 97, 98, 99, 100, 101, 102, 103, 104, 105, 106, 107, 108, 109, 110, 111, 112, 113, 114, 115, 116, 117, 118, 119, 120, 121, 122, 123, 124, 125, 126, 127, 128, 129, 130, 131, 132, 133, 134, 135, 136, 137, 138, 139, 140, 141, 142, 143, 144, 145, 146, 147, 148, 149, 150, 151, 152, 153, 154, 155, 156, 157, 158, 159, 160, 161, 162, 163, 164, 165, 166, 167, 168, 169, 170, 171, 172, 173, 174, 175, 176, 177, 178, 179, 180, 181, 182, 183, 184, 185, 186, 187, 188, 189, 190, 191, 192, 193, 194, 195, 196, 197, 198, 199, 200, 201, 202, 203, 204, 205, 206, 207, 208, 209, 210, 211, 212, 213, 214, 215, 216, 217, 218, 219, 220, 221, 222, 223, 224, 225, 226, 227, 228, 229, 230, 231, 232, 233, 234, 235, 236, 237, 238, 239, 240, 241, 242, 243, 244, 245, 246, 247, 248, 249, 250, 251, 252, 253, 254, 255, 256, 257, 258, 259, 260, 261, 262, 263, 264, 265, 266, 267, 268, 269, 270, 271, 272, 273, 274, 275, 276, 277, 278, 279, 280, 281, 282, 283, 284, 285, 286, 287, 288, 289, 290, 291, 292, 293, 294, 295, 296, 297, 298, 299, 300, 301, 302, 303, 304, 305, 306, 307, 308, 309, 310, 311, 312, 313, 314, 315, 316, 317, 318, 319, 320, 321, 322, 323, 324, 325, 326, 327, 328, 329, 330, 331, 332, 333, 334, 335, 336, 337, 338, 339, 340, 341, 342, 343, 344, 345, 346, 347, 348, 349, 350, 351, 352, 353, 354, 355, 356, 357, 358, 359, 360, 361, 362, 363, 364, 365, 366, 367, 368, 369, 370, 371, 372, 373, 374, 375, 376, 377, 378, 379, 380, 381, 382, 383, 384, 385, 386, 387, 388, 389, 390, 391, 392, 393, 394, 395, 396, 397, 398, 399, 400, 401, 402, 403, 404, 405, 406, 407, 408, 409, 410, 411, 412, 413, 414, 415, 416, 417, 418, 419, 420, 421, 422, 423, 424, 425, 426, 427, 428, 429, 430, 431, 432, 433, 434, 435, 436, 437, 438, 439, 440, 441, 442, 443, 444, 445, 446, 447, 448, 449, 450, 451, 452, 453, 454, 455, 456, 457, 458, 459, 460, 461, 462, 463, 464],
      "AcquisitionTime": ["133302.807500", "133304.297500", "133305.787500", "133307.277500", "133308.767500", "133310.257500", "133311.747500", "133313.237500", "133314.727500", "133316.217500", "133317.707500", "133319.197500", "133320.687500", "133322.177500", "133323.667500", "133325.157500", "133326.647500", "133328.137500", "133329.627500", "133331.117500", "133332.607500", "133334.097500", "133335.587500", "133337.077500", "133338.567500", "133340.057500", "133341.547500", "133343.037500", "133344.527500", "133346.017500", "133347.507500", "133348.997500", "133350.487500", "133351.977500", "133353.467500", "133354.957500", "133356.447500", "133357.937500", "133359.427500", "133400.917500", "133402.407500", "133403.897500", "133405.387500", "133406.877500", "133408.367500", "133409.857500", "133411.347500", "133412.837500", "133414.327500", "133415.817500", "133417.307500", "133418.797500", "133420.287500", "133421.777500", "133423.267500", "133424.757500", "133426.247500", "133427.737500", "133429.227500", "133430.717500", "133432.207500", "133433.697500", "133435.187500", "133436.677500", "133438.167500", "133439.657500", "133441.147500", "133442.637500", "133444.127500", "133445.617500", "133447.107500", "133448.597500", "133450.087500", "133451.577500", "133453.067500", "133454.557500", "133456.047500", "133457.537500", "133459.027500", "133500.517500", "133502.007500", "133503.497500", "133504.987500", "133506.477500", "133507.967500", "133509.457500", "133510.947500", "133512.437500", "133513.927500", "133515.417500", "133516.907500", "133518.397500", "133519.887500", "133521.377500", "133522.867500", "133524.357500", "133525.847500", "133527.337500", "133528.827500", "133530.317500", "133531.807500", "133533.297500", "133534.787500", "133536.277500", "133537.767500", "133539.257500", "133540.747500", "133542.237500", "133543.727500", "133545.217500", "133546.707500", "133548.197500", "133549.687500", "133551.177500", "133552.667500", "133554.157500", "133555.647500", "133557.137500", "133558.627500", "133600.117500", "133601.607500", "133603.097500", "133604.587500", "133606.077500", "133607.567500", "133609.057500", "133610.547500", "133612.037500", "133613.527500", "133615.017500", "133616.507500", "133617.997500", "133619.487500", "133620.977500", "133622.467500", "133623.957500", "133625.447500", "133626.937500", "133628.427500", "133629.917500", "133631.407500", "133632.897500", "133634.387500", "133635.877500", "133637.367500", "133638.857500", "133640.347500", "133641.837500", "133643.327500", "133644.817500", "133646.307500", "133647.797500", "133649.287500", "133650.777500", "133652.267500", "133653.757500", "133655.247500", "133656.737500", "133658.227500", "133659.717500", "133701.207500", "133702.697500", "133704.187500", "133705.677500", "133707.167500", "133708.657500", "133710.147500", "133711.637500", "133713.127500", "133714.617500", "133716.107500", "133717.597500", "133719.087500", "133720.577500", "133722.067500", "133723.557500", "133725.047500", "133726.537500", "133728.027500", "133729.517500", "133731.007500", "133732.497500", "133733.987500", "133735.477500", "133736.967500", "133738.457500", "133739.947500", "133741.437500", "133742.927500", "133744.417500", "133745.907500", "133747.397500", "133748.887500", "133750.377500", "133751.867500", "133753.357500", "133754.847500", "133756.337500", "133757.827500", "133759.317500", "133800.807500", "133802.297500", "133803.787500", "133805.277500", "133806.767500", "133808.257500", "133809.747500", "133811.237500", "133812.727500", "133814.217500", "133815.707500", "133817.197500", "133818.687500", "133820.177500", "133821.667500", "133823.157500", "133824.647500", "133826.137500", "133827.627500", "133829.117500", "133830.607500", "133832.097500", "133833.587500", "133835.077500", "133836.567500", "133838.057500", "133839.547500", "133841.037500", "133842.527500", "133844.017500", "133845.507500", "133846.997500", "133848.487500", "133849.977500", "133851.467500", "133852.957500", "133854.447500", "133855.937500", "133857.427500", "133858.917500", "133900.407500", "133901.897500", "133903.387500", "133904.877500", "133906.367500", "133907.857500", "133909.347500", "133910.837500", "133912.327500", "133913.817500", "133915.307500", "133916.797500", "133918.287500", "133919.777500", "133921.267500", "133922.757500", "133924.247500", "133925.737500", "133927.227500", "133928.717500", "133930.207500", "133931.697500", "133933.187500", "133934.677500", "133936.167500", "133937.657500", "133939.147500", "133940.637500", "133942.127500", "133943.617500", "133945.107500", "133946.597500", "133948.087500", "133949.577500", "133951.067500", "133952.557500", "133954.047500", "133955.537500", "133957.027500", "133958.517500", "134000.007500", "134001.497500", "134002.987500", "134004.477500", "134005.967500", "134007.457500", "134008.947500", "134010.437500", "134011.927500", "134013.417500", "134014.907500", "134016.397500", "134017.887500", "134019.377500", "134020.867500", "134022.357500", "134023.847500", "134025.337500", "134026.827500", "134028.317500", "134029.807500", "134031.297500", "134032.787500", "134034.277500", "134035.767500", "134037.257500", "134038.747500", "134040.237500", "134041.727500", "134043.217500", "134044.707500", "134046.197500", "134047.687500", "134049.177500", "134050.667500", "134052.157500", "134053.647500", "134055.137500", "134056.627500", "134058.117500", "134059.607500", "134101.097500", "134102.587500", "134104.077500", "134105.567500", "134107.057500", "134108.547500", "134110.037500", "134111.527500", "134113.017500", "134114.507500", "134115.997500", "134117.487500", "134118.977500", "134120.467500", "134121.957500", "134123.447500", "134124.937500", "134126.427500", "134127.917500", "134129.407500", "134130.897500", "134132.387500", "134133.877500", "134135.367500", "134136.857500", "134138.347500", "134139.837500", "134141.327500", "134142.817500", "134144.307500", "134145.797500", "134147.287500", "134148.777500", "134150.267500", "134151.757500", "134153.247500", "134154.737500", "134156.227500", "134157.717500", "134159.207500", "134200.697500", "134202.187500", "134203.677500", "134205.167500", "134206.657500", "134208.147500", "134209.637500", "134211.127500", "134212.617500", "134214.107500", "134215.597500", "134217.087500", "134218.577500", "134220.067500", "134221.557500", "134223.047500", "134224.537500", "134226.027500", "134227.517500", "134229.007500", "134230.497500", "134231.987500", "134233.477500", "134234.967500", "134236.457500", "134237.947500", "134239.437500", "134240.927500", "134242.417500", "134243.907500", "134245.397500", "134246.887500", "134248.377500", "134249.867500", "134251.357500", "134252.847500", "134254.337500", "134255.827500", "134257.317500", "134258.807500", "134300.297500", "134301.787500", "134303.277500", "134304.767500", "134306.257500", "134307.747500", "134309.237500", "134310.727500", "134312.217500", "134313.707500", "134315.197500", "134316.687500", "134318.177500", "134319.667500", "134321.157500", "134322.647500", "134324.137500", "134325.627500", "134327.117500", "134328.607500", "134330.097500", "134331.587500", "134333.077500", "134334.567500", "134336.057500", "134337.547500", "134339.037500", "134340.527500", "134342.017500", "134343.507500", "134344.997500", "134346.487500", "134347.977500", "134349.467500", "134350.957500", "134352.447500", "134353.937500", "134355.427500", "134356.917500", "134358.407500", "134359.897500", "134401.387500", "134402.877500", "134404.367500", "134405.857500", "134407.347500", "134408.837500", "134410.327500", "134411.817500", "134413.307500", "134414.797500", "134416.287500", "134417.777500", "134419.267500", "134420.757500", "134422.247500", "134423.737500", "134425.227500", "134426.717500", "134428.207500", "134429.697500", "134431.187500", "134432.677500"],
      "ContentTime": ["133445.197000", "133445.207000", "133445.210000", "133445.213000", "133445.216000", "133445.219000", "133445.222000", "133445.230000", "133445.233000", "133445.236000", "133445.239000", "133445.242000", "133445.245000", "133445.248000", "133445.251000", "133445.255000", "133445.265000", "133445.268000", "133445.271000", "133445.274000", "133445.277000", "133445.280000", "133445.283000", "133445.286000", "133445.289000", "133445.292000", "133445.295000", "133445.298000", "133445.301000", "133445.304000", "133505.165000", "133505.168000", "133505.171000", "133505.174000", "133505.177000", "133505.180000", "133505.183000", "133505.186000", "133505.189000", "133505.202000", "133505.205000", "133505.208000", "133505.211000", "133505.214000", "133505.217000", "133505.220000", "133505.223000", "133505.226000", "133505.229000", "133505.232000", "133525.166000", "133525.169000", "133525.179000", "133525.182000", "133525.185000", "133525.188000", "133525.191000", "133525.194000", "133525.197000", "133525.200000", "133525.203000", "133525.206000", "133525.209000", "133525.221000", "133525.224000", "133525.227000", "133525.230000", "133525.233000", "133525.236000", "133525.239000", "133525.242000", "133545.166000", "133545.169000", "133545.172000", "133545.175000", "133545.178000", "133545.181000", "133545.184000", "133545.187000", "133545.190000", "133545.193000", "133545.196000", "133545.199000", "133545.202000", "133545.205000", "133545.208000", "133545.214000", "133545.217000", "133545.220000", "133545.223000", "133545.226000", "133605.165000", "133605.168000", "133605.171000", "133605.174000", "133605.177000", "133605.181000", "133605.183000", "133605.186000", "133605.189000", "133605.192000", "133605.195000", "133605.198000", "133605.201000", "133605.205000", "133605.208000", "133605.211000", "133605.214000", "133605.217000", "133605.220000", "133605.223000", "133625.165000", "133625.168000", "133625.171000", "133625.174000", "133625.181000", "133625.184000", "133625.187000", "133625.190000", "133625.193000", "133625.197000", "133625.200000", "133625.202000", "133625.205000", "133625.209000", "133625.212000", "133625.214000", "133625.217000", "133625.221000", "133625.223000", "133625.226000", "133705.165000", "133705.182000", "133705.185000", "133705.188000", "133705.191000", "133705.194000", "133705.197000", "133705.200000", "133705.203000", "133705.206000", "133705.209000", "133705.212000", "133705.215000", "133705.218000", "133705.221000", "133705.224000", "133705.227000", "133705.230000", "133705.233000", "133705.236000", "133705.239000", "133705.242000", "133705.245000", "133705.248000", "133705.251000", "133705.254000", "133705.257000", "133705.260000", "133705.263000", "133705.266000", "133705.269000", "133745.166000", "133745.169000", "133745.181000", "133745.184000", "133745.187000", "133745.190000", "133745.193000", "133745.196000", "133745.199000", "133745.202000", "133745.205000", "133745.208000", "133745.211000", "133745.214000", "133745.217000", "133745.220000", "133745.223000", "133745.226000", "133745.229000", "133745.232000", "133745.235000", "133745.238000", "133745.241000", "133745.244000", "133745.247000", "133745.250000", "133745.253000", "133825.165000", "133825.168000", "133825.171000", "133825.174000", "133825.177000", "133825.180000", "133825.192000", "133825.195000", "133825.198000", "133825.201000", "133825.205000", "133825.217000", "133825.220000", "133825.223000", "133825.226000", "133825.230000", "133825.233000", "133825.236000", "133825.239000", "133825.242000", "133825.245000", "133825.248000", "133825.251000", "133825.254000", "133825.257000", "133825.260000", "133905.165000", "133905.168000", "133905.171000", "133905.174000", "133905.177000", "133905.180000", "133905.183000", "133905.186000", "133905.189000", "133905.193000", "133905.195000", "133905.199000", "133905.202000", "133905.205000", "133905.208000", "133905.211000", "133905.214000", "133905.217000", "133905.220000", "133905.223000", "133905.226000", "133905.229000", "133905.232000", "133905.235000", "133905.238000", "133905.241000", "133905.244000", "133945.165000", "133945.168000", "133945.171000", "133945.174000", "133945.177000", "133945.180000", "133945.184000", "133945.187000", "133945.190000", "133945.192000", "133945.196000", "133945.199000", "133945.202000", "133945.205000", "133945.208000", "133945.211000", "133945.214000", "133945.217000", "133945.220000", "133945.223000", "133945.226000", "133945.229000", "133945.232000", "133945.235000", "133945.238000", "133945.242000", "133945.245000", "134025.166000", "134025.169000", "134025.172000", "134025.175000", "134025.178000", "134025.182000", "134025.185000", "134025.188000", "134025.191000", "134025.194000", "134025.197000", "134025.200000", "134025.203000", "134025.206000", "134025.209000", "134025.212000", "134025.215000", "134025.218000", "134025.221000", "134025.224000", "134025.227000", "134025.230000", "134025.233000", "134025.236000", "134025.239000", "134025.242000", "134025.245000", "134105.165000", "134105.263000", "134105.266000", "134105.269000", "134105.272000", "134105.275000", "134105.278000", "134105.281000", "134105.284000", "134105.287000", "134105.290000", "134105.293000", "134105.296000", "134105.299000", "134105.302000", "134105.305000", "134105.308000", "134105.311000", "134105.314000", "134105.317000", "134105.320000", "134105.323000", "134105.326000", "134105.329000", "134105.332000", "134105.337000", "134105.340000", "134145.165000", "134145.168000", "134145.171000", "134145.174000", "134145.177000", "134145.180000", "134145.183000", "134145.187000", "134145.191000", "134145.194000", "134145.197000", "134145.201000", "134145.204000", "134145.207000", "134145.210000", "134145.213000", "134145.216000", "134145.219000", "134145.222000", "134145.225000", "134145.228000", "134145.231000", "134145.234000", "134145.237000", "134145.240000", "134145.243000", "134145.246000", "134225.166000", "134225.169000", "134225.172000", "134225.175000", "134225.178000", "134225.181000", "134225.184000", "134225.187000", "134225.190000", "134225.194000", "134225.197000", "134225.200000", "134225.203000", "134225.206000", "134225.209000", "134225.212000", "134225.215000", "134225.218000", "134225.222000", "134225.225000", "134225.228000", "134225.232000", "134225.235000", "134225.238000", "134225.241000", "134225.244000", "134305.165000", "134305.168000", "134305.171000", "134305.174000", "134305.177000", "134305.180000", "134305.183000", "134305.186000", "134305.189000", "134305.192000", "134305.195000", "134305.198000", "134305.202000", "134305.204000", "134305.207000", "134305.210000", "134305.214000", "134305.217000", "134305.220000", "134305.223000", "134305.226000", "134305.229000", "134305.232000", "134305.235000", "134305.238000", "134305.241000", "134305.244000", "134345.165000", "134345.168000", "134345.171000", "134345.181000", "134345.184000", "134345.187000", "134345.190000", "134345.193000", "134345.196000", "134345.199000", "134345.202000", "134345.205000", "134345.208000", "134345.211000", "134345.214000", "134345.218000", "134345.221000", "134345.224000", "134345.227000", "134345.230000", "134345.233000", "134345.236000", "134345.239000", "134345.242000", "134345.245000", "134345.248000", "134345.251000", "134425.165000", "134425.174000", "134425.178000", "134425.181000", "134425.184000", "134425.187000", "134425.190000", "134425.193000", "134425.196000", "134425.199000", "134425.202000", "134425.205000", "134425.208000", "134425.211000", "134425.214000", "134425.217000", "134425.220000", "134425.223000", "134425.226000", "134425.229000", "134425.232000", "134425.235000", "134425.239000", "134425.242000", "134425.244000", "134425.247000", "134425.251000", "134434.901000", "134434.905000", "134434.908000", "134434.911000", "134434.914000", "134434.917000", "134434.920000"],
