{
  "AcquisitionMatrixPE": 104,
  "AcquisitionNumber": 1,
  "AcquisitionTime": "13:45:32.390000",
  "BandwidthPerPixelPhaseEncode": 17.17,
  "BaseResolution": 104,
  "BodyPartExamined": "BRAIN",
  "CoilString": "HC1-7;NC1_2",
  "ConsistencyInfo": "N4_VE11C_LATEST_20160120",
  "ConversionSoftware": "dcm2niix",
  "ConversionSoftwareVersion": "v1.0.20190902",
  "DerivedVendorReportedEchoSpacing": 0.000560011,
  "DeviceSerialNumber": "167006",
  "DwellTime": 2.1e-06,
  "EchoTime": 0.037,
  "EchoTrainLength": 104,
  "EffectiveEchoSpacing": 0.000560011,
  "FlipAngle": 52,
  "ImageComments": "Unaliased_MB4_PE3_LB",
  "ImageOrientationPatientDICOM": [0.999921, 0.00134721, -0.0125013, -0.00488651, 0.957727, -0.287639],
  "ImageType": [
    "ORIGINAL",
    "PRIMARY",
    "M",
    "MB",
    "ND",
    "MOSAIC"
],
  "ImagingFrequency": 123.259,
  "InPlanePhaseEncodingDirectionDICOM": "COL",
  "InstitutionAddress": "Chemin_Queen-Mary_4565_Montreal_District_CA_H3W_1W5",
  "InstitutionName": "IUGM",
  "InstitutionalDepartmentName": "Department",
  "MRAcquisitionType": "2D",
  "MagneticFieldStrength": 3,
  "Manufacturer": "Siemens",
  "ManufacturersModelName": "Prisma_fit",
  "Modality": "MR",
  "MultibandAccelerationFactor": 4,
  "PartialFourier": 1,
  "PatientPosition": "HFS",
  "PercentPhaseFOV": 100,
  "PhaseEncodingDirection": "j",
  "PhaseEncodingSteps": 104,
  "PhaseResolution": 1,
  "PixelBandwidth": 2290,
  "ProcedureStepDescription": "video_friends",
  "ProtocolName": "func_task-friends-s03e12b",
  "PulseSequenceDetails": "%CustomerSeq%_cmrr_mbep2d_bold",
  "ReceiveCoilActiveElements": "HC1-7;NC1,2",
  "ReceiveCoilName": "HeadNeck_64",
  "ReconMatrixPE": 104,
  "RepetitionTime": 1.49,
  "SAR": 0.0289702,
  "ScanOptions": "FS",
  "ScanningSequence": "EP",
  "SequenceName": "epfid2d1_104",
  "SequenceVariant": "SK_SS",
  "SeriesDescription": "func_task-friends-s03e12b",
  "SeriesNumber": 11,
  "ShimSetting": [625, -7224, -8821, 697, 44, -44, 63, -3],
  "SliceThickness": 2,
  "SliceTiming": [0, 0.7825, 0.0975, 0.8825, 0.195, 0.98, 0.295, 1.0775, 0.3925, 1.175, 0.49, 1.2725, 0.5875, 1.3725, 0.685, 0, 0.7825, 0.0975, 0.8825, 0.195, 0.98, 0.295, 1.0775, 0.3925, 1.175, 0.49, 1.2725, 0.5875, 1.3725, 0.685, 0, 0.7825, 0.0975, 0.8825, 0.195, 0.98, 0.295, 1.0775, 0.3925, 1.175, 0.49, 1.2725, 0.5875, 1.3725, 0.685, 0, 0.7825, 0.0975, 0.8825, 0.195, 0.98, 0.295, 1.0775, 0.3925, 1.175, 0.49, 1.2725, 0.5875, 1.3725, 0.685],
  "SoftwareVersions": "syngo_MR_E11",
  "SpacingBetweenSlices": 2,
  "StationName": "MRC35049",
  "TaskName": "s03e12b",
  "TotalReadoutTime": 0.0576811,
  "TxRefAmp": 207.835,
  "WipMemBlock": "10d10896-c3ac-4347-a571-ae6de796d929||Sequence: R016 ve11c/master r/e634e98; Dec 19 2017 11:00:25 by eja",
  "dcmmeta_affine": [
    [-1.9998419284820557, -0.009773021563887596, -0.023170679807662964, 106.1462631225586],
    [-0.0026944242417812347, 1.9154530763626099, -0.5753538608551025, -81.21833038330078],
    [-0.025002649053931236, 0.5752772092819214, 1.915314793586731, -70.11740112304688],
    [0.0, 0.0, 0.0, 1.0]
],
  "dcmmeta_reorient_transform": [
    [0.0, -1.0, 0.0, 103.0],
    [1.0, 0.0, 0.0, 0.0],
    [0.0, 0.0, 1.0, 0.0],
    [0.0, 0.0, 0.0, 1.0]
],
  "dcmmeta_shape": [104, 104, 60, 464],
  "dcmmeta_slice_dim": 2,
  "dcmmeta_version": 0.6,
  "global": {
    "const": {
      "AcquisitionMatrix": [104, 0, 0, 104],
      "AngioFlag": "N",
      "BitsAllocated": 16,
      "BitsStored": 16,
      "BodyPartExamined": "BRAIN",
      "Columns": 832,
      "EchoNumbers": 1,
      "EchoTime": 37.0,
      "EchoTrainLength": 104,
      "FlipAngle": 52.0,
      "HighBit": 15,
      "ImageOrientationPatient": [0.99992094782687, 0.0013472121723, -0.0125013245847, -0.0048865105568, 0.95772655962117, -0.2876385909623],
      "ImagePositionPatient": [-829.52471178906, -814.27904617721, 207.6380062622],
      "ImageType": [
        "ORIGINAL",
        "PRIMARY",
        "M",
        "MB",
        "ND",
        "MOSAIC"
],
      "ImagedNucleus": "1H",
      "ImagingFrequency": 123.259081,
      "InPlanePhaseEncodingDirection": "COL",
      "MRAcquisitionType": "2D",
      "MagneticFieldStrength": 3.0,
      "Manufacturer": "SIEMENS",
      "ManufacturerModelName": "Prisma_fit",
      "Modality": "MR",
      "NumberOfAverages": 1.0,
      "NumberOfPhaseEncodingSteps": 104,
      "PercentPhaseFieldOfView": 100.0,
      "PercentSampling": 100.0,
      "PerformedProcedureStepStartTime": "125912.505000",
      "PhotometricInterpretation": "MONOCHROME2",
      "PixelBandwidth": 2290.0,
      "PixelRepresentation": 0,
      "PixelSpacing": [2.0, 2.0],
      "ProtocolName": "func_task-friends-s03e12b",
      "RepetitionTime": 1490.0,
      "Rows": 832,
      "SAR": 0.02897018674973,
      "SamplesPerPixel": 1,
      "ScanOptions": "FS",
      "ScanningSequence": "EP",
      "SequenceName": "epfid2d1_104",
      "SequenceVariant": [
        "SK",
        "SS"
],
      "SeriesDescription": "func_task-friends-s03e12b",
      "SeriesNumber": 11,
      "SeriesTime": "134640.907000",
      "SliceLocation": -45.013550789134,
      "SliceThickness": 2.0,
      "SmallestImagePixelValue": 0,
      "SoftwareVersions": "syngo MR E11",
      "SpacingBetweenSlices": 1.9999999568954,
      "SpecificCharacterSet": "ISO_IR 100",
      "StudyID": "1",
      "StudyTime": "125912.410000",
      "TransmitCoilName": "Body",
      "VariableFlipAngleFlag": "N",
      "WindowCenterWidthExplanation": "Algo1",
      "dBdt": 0.0},
    "slices": {}
  },
  "time": {
    "samples": {
      "AcquisitionNumber": [1, 2, 3, 4, 5, 6, 7, 8, 9, 10, 11, 12, 13, 14, 15, 16, 17, 18, 19, 20, 21, 22, 23, 24, 25, 26, 27, 28, 29, 30, 31, 32, 33, 34, 35, 36, 37, 38, 39, 40, 41, 42, 43, 44, 45, 46, 47, 48, 49, 50, 51, 52, 53, 54, 55, 56, 57, 58, 59, 60, 61, 62, 63, 64, 65, 66, 67, 68, 69, 70, 71, 72, 73, 74, 75, 76, 77, 78, 79, 80, 81, 82, 83, 84, 85, 86, 87, 88, 89, 90, 91, 92, 93, 94, 95, 96, 97, 98, 99, 100, 101, 102, 103, 104, 105, 106, 107, 108, 109, 110, 111, 112, 113, 114, 115, 116, 117, 118, 119, 120, 121, 122, 123, 124, 125, 126, 127, 128, 129, 130, 131, 132, 133, 134, 135, 136, 137, 138, 139, 140, 141, 142, 143, 144, 145, 146, 147, 148, 149, 150, 151, 152, 153, 154, 155, 156, 157, 158, 159, 160, 161, 162, 163, 164, 165, 166, 167, 168, 169, 170, 171, 172, 173, 174, 175, 176, 177, 178, 179, 180, 181, 182, 183, 184, 185, 186, 187, 188, 189, 190, 191, 192, 193, 194, 195, 196, 197, 198, 199, 200, 201, 202, 203, 204, 205, 206, 207, 208, 209, 210, 211, 212, 213, 214, 215, 216, 217, 218, 219, 220, 221, 222, 223, 224, 225, 226, 227, 228, 229, 230, 231, 232, 233, 234, 235, 236, 237, 238, 239, 240, 241, 242, 243, 244, 245, 246, 247, 248, 249, 250, 251, 252, 253, 254, 255, 256, 257, 258, 259, 260, 261, 262, 263, 264, 265, 266, 267, 268, 269, 270, 271, 272, 273, 274, 275, 276, 277, 278, 279, 280, 281, 282, 283, 284, 285, 286, 287, 288, 289, 290, 291, 292, 293, 294, 295, 296, 297, 298, 299, 300, 301, 302, 303, 304, 305, 306, 307, 308, 309, 310, 311, 312, 313, 314, 315, 316, 317, 318, 319, 320, 321, 322, 323, 324, 325, 326, 327, 328, 329, 330, 331, 332, 333, 334, 335, 336, 337, 338, 339, 340, 341, 342, 343, 344, 345, 346, 347, 348, 349, 350, 351, 352, 353, 354, 355, 356, 357, 358, 359, 360, 361, 362, 363, 364, 365, 366, 367, 368, 369, 370, 371, 372, 373, 374, 375, 376, 377, 378, 379, 380, 381, 382, 383, 384, 385, 386, 387, 388, 389, 390, 391, 392, 393, 394, 395, 396, 397, 398, 399, 400, 401, 402, 403, 404, 405, 406, 407, 408, 409, 410, 411, 412, 413, 414, 415, 416, 417, 418, 419, 420, 421, 422, 423, 424, 425, 426, 427, 428, 429, 430, 431, 432, 433, 434, 435, 436, 437, 438, 439, 440, 441, 442, 443, 444, 445, 446, 447, 448, 449, 450, 451, 452, 453, 454, 455, 456, 457, 458, 459, 460, 461, 462, 463, 464],
      "AcquisitionTime": ["134532.390000", "134533.880000", "134535.370000", "134536.860000", "134538.350000", "134539.840000", "134541.330000", "134542.820000", "134544.310000", "134545.800000", "134547.290000", "134548.780000", "134550.270000", "134551.760000", "134553.250000", "134554.740000", "134556.230000", "134557.720000", "134559.210000", "134600.700000", "134602.190000", "134603.680000", "134605.170000", "134606.660000", "134608.150000", "134609.640000", "134611.130000", "134612.620000", "134614.110000", "134615.600000", "134617.090000", "134618.580000", "134620.070000", "134621.560000", "134623.050000", "134624.540000", "134626.030000", "134627.520000", "134629.010000", "134630.500000", "134631.990000", "134633.480000", "134634.970000", "134636.460000", "134637.950000", "134639.440000", "134640.930000", "134642.420000", "134643.910000", "134645.400000", "134646.890000", "134648.380000", "134649.870000", "134651.360000", "134652.850000", "134654.340000", "134655.830000", "134657.320000", "134658.810000", "134700.300000", "134701.790000", "134703.280000", "134704.770000", "134706.260000", "134707.750000", "134709.240000", "134710.730000", "134712.220000", "134713.710000", "134715.200000", "134716.690000", "134718.180000", "134719.670000", "134721.160000", "134722.650000", "134724.140000", "134725.630000", "134727.120000", "134728.610000", "134730.100000", "134731.590000", "134733.080000", "134734.570000", "134736.060000", "134737.550000", "134739.040000", "134740.530000", "134742.020000", "134743.510000", "134745.000000", "134746.490000", "134747.980000", "134749.470000", "134750.960000", "134752.450000", "134753.940000", "134755.430000", "134756.920000", "134758.410000", "134759.900000", "134801.390000", "134802.880000", "134804.370000", "134805.860000", "134807.350000", "134808.840000", "134810.330000", "134811.820000", "134813.310000", "134814.800000", "134816.290000", "134817.780000", "134819.270000", "134820.760000", "134822.250000", "134823.740000", "134825.230000", "134826.720000", "134828.210000", "134829.700000", "134831.190000", "134832.680000", "134834.170000", "134835.660000", "134837.150000", "134838.640000", "134840.130000", "134841.620000", "134843.110000", "134844.600000", "134846.090000", "134847.580000", "134849.070000", "134850.560000", "134852.050000", "134853.540000", "134855.030000", "134856.520000", "134858.010000", "134859.500000", "134900.990000", "134902.480000", "134903.970000", "134905.460000", "134906.950000", "134908.440000", "134909.930000", "134911.420000", "134912.910000", "134914.400000", "134915.890000", "134917.380000", "134918.870000", "134920.360000", "134921.850000", "134923.340000", "134924.830000", "134926.320000", "134927.810000", "134929.300000", "134930.790000", "134932.280000", "134933.770000", "134935.260000", "134936.750000", "134938.240000", "134939.730000", "134941.220000", "134942.710000", "134944.200000", "134945.690000", "134947.180000", "134948.670000", "134950.160000", "134951.650000", "134953.140000", "134954.630000", "134956.120000", "134957.610000", "134959.100000", "135000.590000", "135002.080000", "135003.570000", "135005.060000", "135006.550000", "135008.040000", "135009.530000", "135011.020000", "135012.510000", "135014.000000", "135015.490000", "135016.980000", "135018.470000", "135019.960000", "135021.450000", "135022.940000", "135024.430000", "135025.920000", "135027.410000", "135028.900000", "135030.390000", "135031.880000", "135033.370000", "135034.860000", "135036.350000", "135037.840000", "135039.330000", "135040.820000", "135042.310000", "135043.800000", "135045.290000", "135046.780000", "135048.270000", "135049.760000", "135051.250000", "135052.740000", "135054.230000", "135055.720000", "135057.210000", "135058.700000", "135100.190000", "135101.680000", "135103.170000", "135104.660000", "135106.150000", "135107.640000", "135109.130000", "135110.620000", "135112.110000", "135113.600000", "135115.090000", "135116.580000", "135118.070000", "135119.560000", "135121.050000", "135122.540000", "135124.030000", "135125.520000", "135127.010000", "135128.500000", "135129.990000", "135131.480000", "135132.970000", "135134.460000", "135135.950000", "135137.440000", "135138.930000", "135140.420000", "135141.910000", "135143.400000", "135144.890000", "135146.380000", "135147.870000", "135149.360000", "135150.850000", "135152.340000", "135153.830000", "135155.320000", "135156.810000", "135158.300000", "135159.790000", "135201.280000", "135202.770000", "135204.260000", "135205.750000", "135207.240000", "135208.730000", "135210.220000", "135211.710000", "135213.200000", "135214.690000", "135216.180000", "135217.670000", "135219.160000", "135220.650000", "135222.140000", "135223.630000", "135225.120000", "135226.610000", "135228.100000", "135229.590000", "135231.080000", "135232.570000", "135234.060000", "135235.550000", "135237.040000", "135238.530000", "135240.020000", "135241.510000", "135243.000000", "135244.490000", "135245.980000", "135247.470000", "135248.960000", "135250.450000", "135251.940000", "135253.430000", "135254.920000", "135256.410000", "135257.900000", "135259.390000", "135300.880000", "135302.370000", "135303.860000", "135305.350000", "135306.840000", "135308.330000", "135309.820000", "135311.310000", "135312.800000", "135314.290000", "135315.780000", "135317.270000", "135318.760000", "135320.250000", "135321.740000", "135323.230000", "135324.720000", "135326.210000", "135327.700000", "135329.190000", "135330.680000", "135332.170000", "135333.660000", "135335.150000", "135336.640000", "135338.130000", "135339.620000", "135341.110000", "135342.600000", "135344.090000", "135345.580000", "135347.070000", "135348.560000", "135350.050000", "135351.540000", "135353.030000", "135354.520000", "135356.010000", "135357.500000", "135358.990000", "135400.480000", "135401.970000", "135403.460000", "135404.950000", "135406.440000", "135407.930000", "135409.420000", "135410.910000", "135412.400000", "135413.890000", "135415.380000", "135416.870000", "135418.360000", "135419.850000", "135421.340000", "135422.830000", "135424.320000", "135425.810000", "135427.300000", "135428.790000", "135430.280000", "135431.770000", "135433.260000", "135434.750000", "135436.240000", "135437.730000", "135439.220000", "135440.710000", "135442.200000", "135443.690000", "135445.180000", "135446.670000", "135448.160000", "135449.650000", "135451.140000", "135452.630000", "135454.120000", "135455.610000", "135457.100000", "135458.590000", "135500.080000", "135501.570000", "135503.060000", "135504.550000", "135506.040000", "135507.530000", "135509.020000", "135510.510000", "135512.000000", "135513.490000", "135514.980000", "135516.470000", "135517.960000", "135519.450000", "135520.940000", "135522.430000", "135523.920000", "135525.410000", "135526.900000", "135528.390000", "135529.880000", "135531.370000", "135532.860000", "135534.350000", "135535.840000", "135537.330000", "135538.820000", "135540.310000", "135541.800000", "135543.290000", "135544.780000", "135546.270000", "135547.760000", "135549.250000", "135550.740000", "135552.230000", "135553.720000", "135555.210000", "135556.700000", "135558.190000", "135559.680000", "135601.170000", "135602.660000", "135604.150000", "135605.640000", "135607.130000", "135608.620000", "135610.110000", "135611.600000", "135613.090000", "135614.580000", "135616.070000", "135617.560000", "135619.050000", "135620.540000", "135622.030000", "135623.520000", "135625.010000", "135626.500000", "135627.990000", "135629.480000", "135630.970000", "135632.460000", "135633.950000", "135635.440000", "135636.930000", "135638.420000", "135639.910000", "135641.400000", "135642.890000", "135644.380000", "135645.870000", "135647.360000", "135648.850000", "135650.340000", "135651.830000", "135653.320000", "135654.810000", "135656.300000", "135657.790000", "135659.280000", "135700.770000", "135702.260000"],
      "ContentTime": ["134640.910000", "134640.914000", "134640.917000", "134640.920000", "134640.923000", "134640.926000", "134640.929000", "134640.932000", "134640.935000", "134640.938000", "134640.942000", "134640.954000", "134640.957000", "134640.960000", "134700.879000", "134700.883000", "134700.886000", "134700.889000", "134700.892000", "134700.895000", "134700.898000", "134700.901000", "134700.904000", "134700.911000", "134700.914000", "134700.917000", "134700.920000", "134700.924000", "134700.927000", "134700.929000", "134700.933000", "134700.935000", "134700.939000", "134700.941000", "134720.879000", "134720.882000", "134720.885000", "134720.888000", "134720.891000", "134720.894000", "134720.897000", "134720.900000", "134720.903000", "134720.906000", "134720.911000", "134720.914000", "134720.917000", "134720.920000", "134720.923000", "134720.926000", "134720.929000", "134720.932000", "134720.935000", "134720.938000", "134720.941000", "134740.880000", "134740.883000", "134740.886000", "134740.889000", "134740.892000", "134740.895000", "134740.898000", "134740.901000", "134740.904000", "134740.907000", "134740.910000", "134740.913000", "134740.916000", "134740.919000", "134740.922000", "134740.925000", "134740.928000", "134740.931000", "134740.934000", "134740.937000", "134800.880000", "134800.883000", "134800.886000", "134800.889000", "134800.892000", "134800.895000", "134800.898000", "134800.901000", "134800.904000", "134800.907000", "134800.910000", "134800.913000", "134800.916000", "134800.919000", "134800.922000", "134800.925000", "134800.928000", "134800.949000", "134800.952000", "134800.955000", "134840.879000", "134840.882000", "134840.885000", "134840.888000", "134840.891000", "134840.894000", "134840.897000", "134840.900000", "134840.903000", "134840.906000", "134840.909000", "134840.927000", "134840.930000", "134840.933000", "134840.936000", "134840.939000", "134840.942000", "134840.945000", "134840.948000", "134840.951000", "134840.954000", "134840.957000", "134840.960000", "134840.963000", "134840.966000", "134840.969000", "134840.972000", "134840.975000", "134840.985000", "134840.988000", "134840.991000", "134920.879000", "134920.882000", "134920.885000", "134920.888000", "134920.891000", "134920.894000", "134920.897000", "134920.900000", "134920.903000", "134920.906000", "134920.909000", "134920.912000", "134920.915000", "134920.918000", "134920.921000", "134920.924000", "134920.927000", "134920.930000", "134920.933000", "134920.936000", "134920.940000", "134920.943000", "134920.945000", "134920.948000", "134920.952000", "134920.955000", "134920.958000", "135000.880000", "135000.883000", "135000.886000", "135000.889000", "135000.892000", "135000.895000", "135000.898000", "135000.902000", "135000.905000", "135000.908000", "135000.913000", "135000.916000", "135000.919000", "135000.922000", "135000.925000", "135000.928000", "135000.931000", "135000.934000", "135000.937000", "135000.940000", "135000.943000", "135000.947000", "135000.950000", "135000.953000", "135000.956000", "135000.959000", "135000.962000", "135040.879000", "135040.882000", "135040.886000", "135040.889000", "135040.892000", "135040.895000", "135040.898000", "135040.901000", "135040.904000", "135040.907000", "135040.910000", "135040.913000", "135040.916000", "135040.919000", "135040.922000", "135040.925000", "135040.928000", "135040.931000", "135040.934000", "135040.937000", "135040.940000", "135040.943000", "135040.946000", "135040.949000", "135040.953000", "135040.956000", "135120.879000", "135120.882000", "135120.885000", "135120.888000", "135120.891000", "135120.894000", "135120.897000", "135120.900000", "135120.904000", "135120.907000", "135120.909000", "135120.912000", "135120.916000", "135120.919000", "135120.922000", "135120.924000", "135120.928000", "135120.952000", "135120.955000", "135120.958000", "135120.961000", "135120.964000", "135120.967000", "135120.970000", "135120.973000", "135120.976000", "135120.979000", "135200.880000", "135200.883000", "135200.886000", "135200.890000", "135200.893000", "135200.896000", "135200.899000", "135200.902000", "135200.905000", "135200.908000", "135200.911000", "135200.914000", "135200.917000", "135200.920000", "135200.923000", "135200.926000", "135200.929000", "135200.932000", "135200.935000", "135200.938000", "135200.941000", "135200.944000", "135200.947000", "135200.950000", "135200.953000", "135200.956000", "135200.959000", "135240.880000", "135240.883000", "135240.886000", "135240.889000", "135240.892000", "135240.895000", "135240.899000", "135240.902000", "135240.905000", "135240.908000", "135240.911000", "135240.914000", "135240.917000", "135240.920000", "135240.923000", "135240.926000", "135240.929000", "135240.932000", "135240.935000", "135240.938000", "135240.941000", "135240.944000", "135240.947000", "135240.950000", "135240.953000", "135240.956000", "135240.959000", "135320.879000", "135320.882000", "135320.885000", "135320.888000", "135320.891000", "135320.895000", "135320.898000", "135320.901000", "135320.904000", "135320.907000", "135320.910000", "135320.913000", "135320.916000", "135320.919000", "135320.922000", "135320.925000", "135320.928000", "135320.931000", "135320.934000", "135320.937000", "135320.940000", "135320.956000", "135320.959000", "135320.962000", "135320.965000", "135320.968000", "135320.971000", "135400.879000", "135400.882000", "135400.885000", "135400.888000", "135400.892000", "135400.894000", "135400.898000", "135400.901000", "135400.904000", "135400.907000", "135400.910000", "135400.913000", "135400.916000", "135400.919000", "135400.922000", "135400.925000", "135400.928000", "135400.931000", "135400.934000", "135400.937000", "135400.940000", "135400.943000", "135400.946000", "135400.949000", "135400.952000", "135400.955000", "135400.958000", "135440.880000", "135440.883000", "135440.886000", "135440.890000", "135440.893000", "135440.896000", "135440.899000", "135440.902000", "135440.905000", "135440.908000", "135440.911000", "135440.914000", "135440.917000", "135440.920000", "135440.923000", "135440.926000", "135440.929000", "135440.932000", "135440.935000", "135440.938000", "135440.941000", "135440.944000", "135440.947000", "135440.950000", "135440.953000", "135440.956000", "135440.959000", "135520.879000", "135520.882000", "135520.885000", "135520.888000", "135520.891000", "135520.894000", "135520.897000", "135520.900000", "135520.904000", "135520.907000", "135520.910000", "135520.913000", "135520.916000", "135520.919000", "135520.922000", "135520.925000", "135520.928000", "135520.931000", "135520.934000", "135520.937000", "135520.940000", "135520.943000", "135520.946000", "135520.949000", "135520.952000", "135520.956000", "135600.879000", "135600.882000", "135600.885000", "135600.888000", "135600.892000", "135600.895000", "135600.898000", "135600.901000", "135600.904000", "135600.907000", "135600.910000", "135600.920000", "135600.923000", "135600.926000", "135600.929000", "135600.932000", "135600.935000", "135600.938000", "135600.941000", "135600.944000", "135600.947000", "135600.950000", "135600.953000", "135600.956000", "135600.960000", "135600.962000", "135600.965000", "135640.880000", "135640.883000", "135640.886000", "135640.890000", "135640.892000", "135640.895000", "135640.898000", "135640.902000", "135640.905000", "135640.908000", "135640.911000", "135640.914000", "135640.917000", "135640.920000", "135640.923000", "135640.926000", "135640.929000", "135640.932000", "135640.935000", "135640.938000", "135640.941000", "135640.944000", "135640.947000", "135640.950000", "135640.953000", "135640.956000", "135640.959000", "135703.951000", "135703.955000", "135703.958000", "135703.961000", "135703.970000", "135703.973000", "135703.976000", "135703.979000", "135703.983000", "135703.986000", "135703.989000", "135703.992000", "135703.995000", "135703.998000", "135704.002000", "135704.005000"],
