{
  "AcquisitionMatrixPE": 104,
  "AcquisitionNumber": 1,
  "AcquisitionTime": "14:41:5.822500",
  "BandwidthPerPixelPhaseEncode": 17.17,
  "BaseResolution": 104,
  "BodyPartExamined": "BRAIN",
  "CoilCombinationMethod": "Sum of Squares",
  "ConsistencyInfo": "N4_VE11C_LATEST_20160120",
  "ConversionSoftware": "dcm2niix",
  "ConversionSoftwareVersion": "v1.0.20230411",
  "DerivedVendorReportedEchoSpacing": 0.000560011,
  "DeviceSerialNumber": "167006",
  "DwellTime": 2.1e-06,
  "EchoTime": 0.037,
  "EchoTrainLength": 104,
  "EffectiveEchoSpacing": 0.000560011,
  "FlipAngle": 52,
  "HeudiconvVersion": "0.5.3.post861+ge7d3c7f",
  "ImageComments": "Unaliased MB4/PE3/LB",
  "ImageOrientationPatientDICOM": [0.999509, 0.0309045, -0.00520266, -0.0312363, 0.968946, -0.245291],
  "ImageOrientationText": "Tra>Cor(-14.2)>Sag(0.1)",
  "ImageType": [
    "ORIGINAL",
    "PRIMARY",
    "M",
    "MB",
    "ND",
    "MOSAIC"
],
  "ImagingFrequency": 123.249743,
  "InPlanePhaseEncodingDirectionDICOM": "COL",
  "InstitutionAddress": "Chemin Queen-Mary 4565,Montreal,District,CA,H3W 1W5",
  "InstitutionName": "IUGM",
  "InstitutionalDepartmentName": "Department",
  "MRAcquisitionType": "2D",
  "MagneticFieldStrength": 3,
  "Manufacturer": "Siemens",
  "ManufacturersModelName": "Prisma_fit",
  "MatrixCoilMode": "SENSE",
  "Modality": "MR",
  "MultibandAccelerationFactor": 4,
  "NonlinearGradientCorrection": false,
  "PartialFourier": 1,
  "PatientPosition": "HFS",
  "PercentPhaseFOV": 100,
  "PercentSampling": 100,
  "PhaseEncodingDirection": "j",
  "PhaseEncodingSteps": 104,
  "PhaseResolution": 1,
  "PixelBandwidth": 2290,
  "ProcedureStepDescription": "video^friends",
  "ProtocolName": "func_task-friends-s07e14b",
  "PulseSequenceDetails": "%CustomerSeq%\\cmrr_mbep2d_bold",
  "ReceiveCoilActiveElements": "HC1-7;NC1,2",
  "ReceiveCoilName": "HeadNeck_64",
  "ReconMatrixPE": 104,
  "RepetitionTime": 1.49,
  "SAR": 0.0616042,
  "ScanOptions": "FS",
  "ScanningSequence": "EP",
  "SequenceName": "epfid2d1_104",
  "SequenceVariant": "SK\\SS",
  "SeriesDescription": "func_task-friends-s07e14b",
  "SeriesNumber": 10,
  "ShimSetting": [603, -7251, -8725, 684, 42, -25, 21, 33],
  "SliceThickness": 2,
  "SliceTiming": [0, 0.7825, 0.0975, 0.8825, 0.195, 0.98, 0.2925, 1.0775, 0.3925, 1.175, 0.49, 1.2725, 0.5875, 1.3725, 0.685, 0, 0.7825, 0.0975, 0.8825, 0.195, 0.98, 0.2925, 1.0775, 0.3925, 1.175, 0.49, 1.2725, 0.5875, 1.3725, 0.685, 0, 0.7825, 0.0975, 0.8825, 0.195, 0.98, 0.2925, 1.0775, 0.3925, 1.175, 0.49, 1.2725, 0.5875, 1.3725, 0.685, 0, 0.7825, 0.0975, 0.8825, 0.195, 0.98, 0.2925, 1.0775, 0.3925, 1.175, 0.49, 1.2725, 0.5875, 1.3725, 0.685],
  "SoftwareVersions": "syngo MR E11",
  "SpacingBetweenSlices": 2,
  "StationName": "MRC35049",
  "TaskName": "s07e14b",
  "TotalReadoutTime": 0.0576811,
  "TxRefAmp": 229.058,
  "WipMemBlock": "85e81d91-6be0-4dd1-b35d-c0ddc24c1f0f||Sequence: R017 ve11c/master r/75a17815+; Jun 28 2022 16:32:11 by eja",
  "dcmmeta_affine": [
    [-1.999017596244812, -0.06247254088521004, 0.0050789667293429375, 108.28518676757812],
    [-0.06180892884731293, 1.9378923177719116, -0.49066591262817383, -71.94380187988281],
    [-0.010405329056084156, 0.4905818700790405, 1.9388710260391235, -38.27529525756836],
    [0.0, 0.0, 0.0, 1.0]
],
  "dcmmeta_reorient_transform": [
    [0.0, -1.0, 0.0, 103.0],
    [1.0, 0.0, 0.0, 0.0],
    [0.0, 0.0, 1.0, 0.0],
    [0.0, 0.0, 0.0, 1.0]
],
  "dcmmeta_shape": [104, 104, 60, 500],
  "dcmmeta_slice_dim": 2,
  "dcmmeta_version": 0.6,
  "global": {
    "const": {
      "AcquisitionMatrix": [104, 0, 0, 104],
      "AngioFlag": "N",
      "BitsAllocated": 16,
      "BitsStored": 16,
      "BodyPartExamined": "BRAIN",
      "Columns": 832,
      "EchoNumbers": 1,
      "EchoTime": 37.0,
      "EchoTrainLength": 104,
      "FlipAngle": 52.0,
      "HighBit": 15,
      "ImageOrientationPatient": [0.99950880255389, 0.0309044640964, -0.0052026643379, -0.0312362712465, 0.96894615479302, -0.2452909384189],
      "ImagePositionPatient": [-806.75291685079, -855.55035938621, 194.61397987712],
      "ImageType": [
        "ORIGINAL",
        "PRIMARY",
        "M",
        "MB",
        "ND",
        "MOSAIC"
],
      "ImagedNucleus": "1H",
      "ImagingFrequency": 123.249743,
      "InPlanePhaseEncodingDirection": "COL",
      "MRAcquisitionType": "2D",
      "MagneticFieldStrength": 3.0,
      "Manufacturer": "SIEMENS",
      "ManufacturerModelName": "Prisma_fit",
      "Modality": "MR",
      "NumberOfAverages": 1.0,
      "NumberOfPhaseEncodingSteps": 104,
      "PercentPhaseFieldOfView": 100.0,
      "PercentSampling": 100.0,
      "PerformedProcedureStepStartTime": "143652.330000",
      "PhotometricInterpretation": "MONOCHROME2",
      "PixelBandwidth": 2290.0,
      "PixelRepresentation": 0,
      "PixelSpacing": [2.0, 2.0],
      "ProtocolName": "func_task-friends-s07e14b",
      "RepetitionTime": 1490.0,
      "Rows": 832,
      "SAR": 0.06160418342337,
      "SamplesPerPixel": 1,
      "ScanOptions": "FS",
      "ScanningSequence": "EP",
      "SequenceName": "epfid2d1_104",
      "SequenceVariant": [
        "SK",
        "SS"
],
      "SeriesDescription": "func_task-friends-s07e14b",
      "SeriesNumber": 10,
      "SeriesTime": "144217.730000",
      "SliceLocation": -19.180259017012,
      "SliceThickness": 2.0,
      "SmallestImagePixelValue": 0,
      "SoftwareVersions": "syngo MR E11",
      "SpacingBetweenSlices": 1.9999999595706,
      "SpecificCharacterSet": "ISO_IR 100",
      "StudyID": "1",
      "StudyTime": "143652.265000",
      "TransmitCoilName": "Body",
      "VariableFlipAngleFlag": "N",
      "WindowCenterWidthExplanation": "Algo1",
      "dBdt": 0.0},
    "slices": {}
  },
  "time": {
    "samples": {
      "AcquisitionNumber": [1, 2, 3, 4, 5, 6, 7, 8, 9, 10, 11, 12, 13, 14, 15, 16, 17, 18, 19, 20, 21, 22, 23, 24, 25, 26, 27, 28, 29, 30, 31, 32, 33, 34, 35, 36, 37, 38, 39, 40, 41, 42, 43, 44, 45, 46, 47, 48, 49, 50, 51, 52, 53, 54, 55, 56, 57, 58, 59, 60, 61, 62, 63, 64, 65, 66, 67, 68, 69, 70, 71, 72, 73, 74, 75, 76, 77, 78, 79, 80, 81, 82, 83, 84, 85, 86, 87, 88, 89, 90, 91, 92, 93, 94, 95, 96, 97, 98, 99, 100, 101, 102, 103, 104, 105, 106, 107, 108, 109, 110, 111, 112, 113, 114, 115, 116, 117, 118, 119, 120, 121, 122, 123, 124, 125, 126, 127, 128, 129, 130, 131, 132, 133, 134, 135, 136, 137, 138, 139, 140, 141, 142, 143, 144, 145, 146, 147, 148, 149, 150, 151, 152, 153, 154, 155, 156, 157, 158, 159, 160, 161, 162, 163, 164, 165, 166, 167, 168, 169, 170, 171, 172, 173, 174, 175, 176, 177, 178, 179, 180, 181, 182, 183, 184, 185, 186, 187, 188, 189, 190, 191, 192, 193, 194, 195, 196, 197, 198, 199, 200, 201, 202, 203, 204, 205, 206, 207, 208, 209, 210, 211, 212, 213, 214, 215, 216, 217, 218, 219, 220, 221, 222, 223, 224, 225, 226, 227, 228, 229, 230, 231, 232, 233, 234, 235, 236, 237, 238, 239, 240, 241, 242, 243, 244, 245, 246, 247, 248, 249, 250, 251, 252, 253, 254, 255, 256, 257, 258, 259, 260, 261, 262, 263, 264, 265, 266, 267, 268, 269, 270, 271, 272, 273, 274, 275, 276, 277, 278, 279, 280, 281, 282, 283, 284, 285, 286, 287, 288, 289, 290, 291, 292, 293, 294, 295, 296, 297, 298, 299, 300, 301, 302, 303, 304, 305, 306, 307, 308, 309, 310, 311, 312, 313, 314, 315, 316, 317, 318, 319, 320, 321, 322, 323, 324, 325, 326, 327, 328, 329, 330, 331, 332, 333, 334, 335, 336, 337, 338, 339, 340, 341, 342, 343, 344, 345, 346, 347, 348, 349, 350, 351, 352, 353, 354, 355, 356, 357, 358, 359, 360, 361, 362, 363, 364, 365, 366, 367, 368, 369, 370, 371, 372, 373, 374, 375, 376, 377, 378, 379, 380, 381, 382, 383, 384, 385, 386, 387, 388, 389, 390, 391, 392, 393, 394, 395, 396, 397, 398, 399, 400, 401, 402, 403, 404, 405, 406, 407, 408, 409, 410, 411, 412, 413, 414, 415, 416, 417, 418, 419, 420, 421, 422, 423, 424, 425, 426, 427, 428, 429, 430, 431, 432, 433, 434, 435, 436, 437, 438, 439, 440, 441, 442, 443, 444, 445, 446, 447, 448, 449, 450, 451, 452, 453, 454, 455, 456, 457, 458, 459, 460, 461, 462, 463, 464, 465, 466, 467, 468, 469, 470, 471, 472, 473, 474, 475, 476, 477, 478, 479, 480, 481, 482, 483, 484, 485, 486, 487, 488, 489, 490, 491, 492, 493, 494, 495, 496, 497, 498, 499, 500],
      "AcquisitionTime": ["144105.822500", "144107.312500", "144108.802500", "144110.292500", "144111.782500", "144113.272500", "144114.762500", "144116.252500", "144117.742500", "144119.232500", "144120.722500", "144122.212500", "144123.702500", "144125.192500", "144126.682500", "144128.172500", "144129.662500", "144131.152500", "144132.642500", "144134.132500", "144135.622500", "144137.112500", "144138.602500", "144140.092500", "144141.582500", "144143.072500", "144144.562500", "144146.052500", "144147.542500", "144149.032500", "144150.522500", "144152.012500", "144153.502500", "144154.992500", "144156.482500", "144157.972500", "144159.462500", "144200.952500", "144202.442500", "144203.932500", "144205.422500", "144206.912500", "144208.402500", "144209.892500", "144211.382500", "144212.872500", "144214.362500", "144215.852500", "144217.342500", "144218.832500", "144220.322500", "144221.812500", "144223.302500", "144224.792500", "144226.282500", "144227.772500", "144229.262500", "144230.752500", "144232.242500", "144233.732500", "144235.222500", "144236.712500", "144238.202500", "144239.692500", "144241.182500", "144242.672500", "144244.162500", "144245.652500", "144247.142500", "144248.632500", "144250.122500", "144251.612500", "144253.102500", "144254.592500", "144256.082500", "144257.572500", "144259.062500", "144300.552500", "144302.042500", "144303.532500", "144305.022500", "144306.512500", "144308.002500", "144309.492500", "144310.982500", "144312.472500", "144313.962500", "144315.452500", "144316.942500", "144318.432500", "144319.922500", "144321.412500", "144322.902500", "144324.392500", "144325.882500", "144327.372500", "144328.862500", "144330.352500", "144331.842500", "144333.332500", "144334.822500", "144336.312500", "144337.802500", "144339.292500", "144340.782500", "144342.272500", "144343.762500", "144345.252500", "144346.742500", "144348.232500", "144349.722500", "144351.212500", "144352.702500", "144354.192500", "144355.682500", "144357.172500", "144358.662500", "144400.152500", "144401.642500", "144403.132500", "144404.622500", "144406.112500", "144407.602500", "144409.092500", "144410.582500", "144412.072500", "144413.562500", "144415.052500", "144416.542500", "144418.032500", "144419.522500", "144421.012500", "144422.502500", "144423.992500", "144425.482500", "144426.972500", "144428.462500", "144429.952500", "144431.442500", "144432.932500", "144434.422500", "144435.912500", "144437.402500", "144438.892500", "144440.382500", "144441.872500", "144443.362500", "144444.852500", "144446.342500", "144447.832500", "144449.322500", "144450.812500", "144452.302500", "144453.792500", "144455.282500", "144456.772500", "144458.262500", "144459.752500", "144501.242500", "144502.732500", "144504.222500", "144505.712500", "144507.202500", "144508.692500", "144510.182500", "144511.672500", "144513.162500", "144514.652500", "144516.142500", "144517.632500", "144519.122500", "144520.612500", "144522.102500", "144523.592500", "144525.082500", "144526.572500", "144528.062500", "144529.552500", "144531.042500", "144532.532500", "144534.022500", "144535.512500", "144537.002500", "144538.492500", "144539.982500", "144541.472500", "144542.962500", "144544.452500", "144545.942500", "144547.432500", "144548.922500", "144550.412500", "144551.902500", "144553.392500", "144554.882500", "144556.372500", "144557.862500", "144559.352500", "144600.842500", "144602.332500", "144603.822500", "144605.312500", "144606.802500", "144608.292500", "144609.782500", "144611.272500", "144612.762500", "144614.252500", "144615.742500", "144617.232500", "144618.722500", "144620.212500", "144621.702500", "144623.192500", "144624.682500", "144626.172500", "144627.662500", "144629.152500", "144630.642500", "144632.132500", "144633.622500", "144635.112500", "144636.602500", "144638.092500", "144639.582500", "144641.072500", "144642.562500", "144644.052500", "144645.542500", "144647.032500", "144648.522500", "144650.012500", "144651.502500", "144652.992500", "144654.482500", "144655.972500", "144657.462500", "144658.952500", "144700.442500", "144701.932500", "144703.422500", "144704.912500", "144706.402500", "144707.892500", "144709.382500", "144710.872500", "144712.362500", "144713.852500", "144715.342500", "144716.832500", "144718.322500", "144719.812500", "144721.302500", "144722.792500", "144724.282500", "144725.772500", "144727.262500", "144728.752500", "144730.242500", "144731.732500", "144733.222500", "144734.712500", "144736.202500", "144737.692500", "144739.182500", "144740.672500", "144742.162500", "144743.652500", "144745.142500", "144746.632500", "144748.122500", "144749.612500", "144751.102500", "144752.592500", "144754.082500", "144755.572500", "144757.062500", "144758.552500", "144800.042500", "144801.532500", "144803.022500", "144804.512500", "144806.002500", "144807.492500", "144808.982500", "144810.472500", "144811.962500", "144813.452500", "144814.942500", "144816.432500", "144817.922500", "144819.412500", "144820.902500", "144822.392500", "144823.882500", "144825.372500", "144826.862500", "144828.352500", "144829.842500", "144831.332500", "144832.822500", "144834.312500", "144835.802500", "144837.292500", "144838.782500", "144840.272500", "144841.762500", "144843.252500", "144844.742500", "144846.232500", "144847.722500", "144849.212500", "144850.702500", "144852.192500", "144853.682500", "144855.172500", "144856.662500", "144858.152500", "144859.642500", "144901.132500", "144902.622500", "144904.112500", "144905.602500", "144907.092500", "144908.582500", "144910.072500", "144911.562500", "144913.052500", "144914.542500", "144916.032500", "144917.522500", "144919.012500", "144920.502500", "144921.992500", "144923.482500", "144924.972500", "144926.462500", "144927.952500", "144929.442500", "144930.932500", "144932.422500", "144933.912500", "144935.402500", "144936.892500", "144938.382500", "144939.872500", "144941.362500", "144942.852500", "144944.342500", "144945.832500", "144947.322500", "144948.812500", "144950.302500", "144951.792500", "144953.282500", "144954.772500", "144956.262500", "144957.752500", "144959.242500", "145000.732500", "145002.222500", "145003.712500", "145005.202500", "145006.692500", "145008.182500", "145009.672500", "145011.162500", "145012.652500", "145014.142500", "145015.632500", "145017.122500", "145018.612500", "145020.102500", "145021.592500", "145023.082500", "145024.572500", "145026.062500", "145027.552500", "145029.042500", "145030.532500", "145032.022500", "145033.512500", "145035.002500", "145036.492500", "145037.982500", "145039.472500", "145040.962500", "145042.452500", "145043.942500", "145045.432500", "145046.922500", "145048.412500", "145049.902500", "145051.392500", "145052.882500", "145054.372500", "145055.862500", "145057.352500", "145058.842500", "145100.332500", "145101.822500", "145103.312500", "145104.802500", "145106.292500", "145107.782500", "145109.272500", "145110.762500", "145112.252500", "145113.742500", "145115.232500", "145116.722500", "145118.212500", "145119.702500", "145121.192500", "145122.682500", "145124.172500", "145125.662500", "145127.152500", "145128.642500", "145130.132500", "145131.622500", "145133.112500", "145134.602500", "145136.092500", "145137.582500", "145139.072500", "145140.562500", "145142.052500", "145143.542500", "145145.032500", "145146.522500", "145148.012500", "145149.502500", "145150.992500", "145152.482500", "145153.972500", "145155.462500", "145156.952500", "145158.442500", "145159.932500", "145201.422500", "145202.912500", "145204.402500", "145205.892500", "145207.382500", "145208.872500", "145210.362500", "145211.852500", "145213.342500", "145214.832500", "145216.322500", "145217.812500", "145219.302500", "145220.792500", "145222.282500", "145223.772500", "145225.262500", "145226.752500", "145228.242500", "145229.732500", "145231.222500", "145232.712500", "145234.202500", "145235.692500", "145237.182500", "145238.672500", "145240.162500", "145241.652500", "145243.142500", "145244.632500", "145246.122500", "145247.612500", "145249.102500", "145250.592500", "145252.082500", "145253.572500", "145255.062500", "145256.552500", "145258.042500", "145259.532500", "145301.022500", "145302.512500", "145304.002500", "145305.492500", "145306.982500", "145308.472500", "145309.962500", "145311.452500", "145312.942500", "145314.432500", "145315.922500", "145317.412500", "145318.902500", "145320.392500", "145321.882500", "145323.372500", "145324.862500", "145326.352500", "145327.842500", "145329.332500"],
      "ContentTime": ["144217.733000", "144217.737000", "144217.740000", "144217.743000", "144217.745000", "144217.748000", "144217.751000", "144217.754000", "144217.757000", "144217.760000", "144217.763000", "144217.766000", "144217.769000", "144217.771000", "144217.774000", "144217.777000", "144217.788000", "144217.791000", "144217.794000", "144217.796000", "144217.799000", "144217.802000", "144237.698000", "144237.701000", "144237.704000", "144237.707000", "144237.710000", "144237.712000", "144237.715000", "144237.718000", "144237.721000", "144237.724000", "144237.727000", "144237.730000", "144237.732000", "144237.735000", "144237.738000", "144237.741000", "144237.744000", "144237.747000", "144237.750000", "144237.752000", "144257.697000", "144257.700000", "144257.703000", "144257.706000", "144257.708000", "144257.711000", "144257.714000", "144257.726000", "144257.729000", "144257.745000", "144257.748000", "144257.750000", "144257.753000", "144257.756000", "144257.759000", "144257.762000", "144257.765000", "144257.768000", "144257.770000", "144257.773000", "144317.697000", "144317.700000", "144317.703000", "144317.705000", "144317.709000", "144317.711000", "144317.714000", "144317.717000", "144317.720000", "144317.723000", "144317.726000", "144317.729000", "144317.732000", "144317.735000", "144317.738000", "144317.741000", "144317.743000", "144317.746000", "144317.749000", "144317.752000", "144317.755000", "144357.697000", "144357.700000", "144357.703000", "144357.706000", "144357.708000", "144357.711000", "144357.714000", "144357.717000", "144357.720000", "144357.723000", "144357.728000", "144357.731000", "144357.734000", "144357.737000", "144357.740000", "144357.743000", "144357.746000", "144357.748000", "144357.751000", "144357.754000", "144357.757000", "144357.760000", "144357.763000", "144357.766000", "144357.768000", "144357.771000", "144357.774000", "144357.777000", "144357.780000", "144357.783000", "144357.786000", "144357.789000", "144437.698000", "144437.701000", "144437.704000", "144437.707000", "144437.710000", "144437.713000", "144437.715000", "144437.718000", "144437.721000", "144437.724000", "144437.727000", "144437.730000", "144437.733000", "144437.736000", "144437.739000", "144437.742000", "144437.744000", "144437.747000", "144437.750000", "144437.753000", "144437.756000", "144437.759000", "144437.762000", "144437.764000", "144437.767000", "144437.770000", "144437.773000", "144517.697000", "144517.700000", "144517.703000", "144517.706000", "144517.709000", "144517.712000", "144517.715000", "144517.718000", "144517.721000", "144517.724000", "144517.727000", "144517.729000", "144517.732000", "144517.735000", "144517.738000", "144517.741000", "144517.744000", "144517.747000", "144517.750000", "144517.752000", "144517.755000", "144517.758000", "144517.761000", "144517.764000", "144517.767000", "144517.770000", "144557.697000", "144557.700000", "144557.703000", "144557.706000", "144557.709000", "144557.711000", "144557.714000", "144557.717000", "144557.720000", "144557.723000", "144557.726000", "144557.729000", "144557.732000", "144557.734000", "144557.737000", "144557.740000", "144557.743000", "144557.746000", "144557.749000", "144557.752000", "144557.755000", "144557.757000", "144557.760000", "144557.763000", "144557.766000", "144557.769000", "144557.772000", "144637.697000", "144637.700000", "144637.703000", "144637.706000", "144637.709000", "144637.712000", "144637.714000", "144637.717000", "144637.720000", "144637.723000", "144637.726000", "144637.729000", "144637.732000", "144637.735000", "144637.737000", "144637.740000", "144637.743000", "144637.746000", "144637.749000", "144637.752000", "144637.755000", "144637.758000", "144637.761000", "144637.764000", "144637.766000", "144637.769000", "144637.772000", "144717.698000", "144717.701000", "144717.704000", "144717.707000", "144717.710000", "144717.713000", "144717.715000", "144717.718000", "144717.721000", "144717.724000", "144717.727000", "144717.730000", "144717.733000", "144717.736000", "144717.739000", "144717.742000", "144717.744000", "144717.747000", "144717.750000", "144717.753000", "144717.756000", "144717.759000", "144717.762000", "144717.764000", "144717.767000", "144717.786000", "144717.789000", "144757.697000", "144757.700000", "144757.703000", "144757.706000", "144757.709000", "144757.711000", "144757.714000", "144757.717000", "144757.720000", "144757.723000", "144757.726000", "144757.729000", "144757.732000", "144757.735000", "144757.738000", "144757.740000", "144757.743000", "144757.746000", "144757.749000", "144757.752000", "144757.755000", "144757.758000", "144757.760000", "144757.763000", "144757.766000", "144757.769000", "144757.772000", "144837.697000", "144837.700000", "144837.703000", "144837.706000", "144837.709000", "144837.712000", "144837.714000", "144837.717000", "144837.720000", "144837.723000", "144837.726000", "144837.729000", "144837.732000", "144837.735000", "144837.738000", "144837.740000", "144837.743000", "144837.746000", "144837.749000", "144837.752000", "144837.755000", "144837.758000", "144837.760000", "144837.763000", "144837.766000", "144837.769000", "144837.772000", "144917.698000", "144917.701000", "144917.704000", "144917.707000", "144917.709000", "144917.712000", "144917.715000", "144917.718000", "144917.721000", "144917.724000", "144917.727000", "144917.730000", "144917.733000", "144917.736000", "144917.738000", "144917.741000", "144917.744000", "144917.747000", "144917.750000", "144917.753000", "144917.756000", "144917.759000", "144917.762000", "144917.765000", "144917.767000", "144917.770000", "144917.773000", "144957.697000", "144957.700000", "144957.703000", "144957.706000", "144957.709000", "144957.712000", "144957.714000", "144957.717000", "144957.720000", "144957.723000", "144957.726000", "144957.729000", "144957.732000", "144957.735000", "144957.738000", "144957.740000", "144957.743000", "144957.746000", "144957.749000", "144957.752000", "144957.755000", "144957.758000", "144957.761000", "144957.764000", "144957.766000", "144957.770000", "145037.697000", "145037.700000", "145037.703000", "145037.706000", "145037.709000", "145037.712000", "145037.715000", "145037.717000", "145037.720000", "145037.723000", "145037.726000", "145037.729000", "145037.732000", "145037.735000", "145037.738000", "145037.741000", "145037.743000", "145037.746000", "145037.749000", "145037.752000", "145037.755000", "145037.758000", "145037.761000", "145037.763000", "145037.766000", "145037.769000", "145037.772000", "145117.698000", "145117.701000", "145117.704000", "145117.707000", "145117.710000", "145117.713000", "145117.716000", "145117.719000", "145117.722000", "145117.725000", "145117.728000", "145117.731000", "145117.733000", "145117.737000", "145117.740000", "145117.752000", "145117.755000", "145117.758000", "145117.760000", "145117.763000", "145117.766000", "145117.769000", "145117.772000", "145117.775000", "145117.778000", "145117.781000", "145117.783000", "145157.698000", "145157.701000", "145157.704000", "145157.707000", "145157.710000", "145157.713000", "145157.715000", "145157.718000", "145157.721000", "145157.724000", "145157.727000", "145157.730000", "145157.733000", "145157.736000", "145157.739000", "145157.741000", "145157.744000", "145157.747000", "145157.750000", "145157.753000", "145157.756000", "145157.771000", "145157.773000", "145157.776000", "145157.779000", "145157.782000", "145157.785000", "145237.697000", "145237.700000", "145237.703000", "145237.706000", "145237.709000", "145237.712000", "145237.714000", "145237.717000", "145237.720000", "145237.723000", "145237.726000", "145237.729000", "145237.732000", "145237.735000", "145237.738000", "145237.740000", "145237.743000", "145237.746000", "145237.749000", "145237.752000", "145237.755000", "145237.758000", "145237.761000", "145237.763000", "145237.766000", "145237.769000", "145237.772000", "145317.697000", "145317.700000", "145317.703000", "145317.706000", "145317.709000", "145317.712000", "145317.715000", "145317.718000", "145317.720000", "145317.723000", "145317.726000", "145317.729000", "145317.732000", "145317.735000", "145317.738000", "145317.741000", "145317.744000", "145317.746000", "145317.749000", "145317.752000", "145317.755000", "145317.758000", "145317.761000", "145317.764000", "145317.767000", "145317.770000", "145317.772000", "145331.032000", "145331.037000", "145331.040000", "145331.043000", "145331.046000", "145331.049000", "145331.053000", "145331.056000", "145331.061000"],
