{
  "AcquisitionMatrixPE": 104,
  "AcquisitionNumber": 1,
  "AcquisitionTime": "13:42:34.002500",
  "BandwidthPerPixelPhaseEncode": 17.17,
  "BaseResolution": 104,
  "BodyPartExamined": "BRAIN",
  "CoilCombinationMethod": "Sum of Squares",
  "ConsistencyInfo": "N4_VE11C_LATEST_20160120",
  "ConversionSoftware": "dcm2niix",
  "ConversionSoftwareVersion": "v1.0.20211006",
  "DerivedVendorReportedEchoSpacing": 0.000560011,
  "DeviceSerialNumber": "167006",
  "DwellTime": 2.1e-06,
  "EchoTime": 0.037,
  "EchoTrainLength": 104,
  "EffectiveEchoSpacing": 0.000560011,
  "FlipAngle": 52,
  "HeudiconvVersion": "0.11.3.post9+gc939bf8",
  "ImageComments": "Unaliased MB4/PE3/LB",
  "ImageOrientationPatientDICOM": [0.999987, -0.00224444, 0.00452383, 0.00331611, 0.967452, -0.253034],
  "ImageOrientationText": "Tra>Cor(-14.7)>Sag(0.2)",
  "ImageType": [
    "ORIGINAL",
    "PRIMARY",
    "M",
    "MB",
    "ND",
    "MOSAIC"
],
  "ImagingFrequency": 123.259,
  "InPlanePhaseEncodingDirectionDICOM": "COL",
  "InstitutionAddress": "Chemin Queen-Mary 4565,Montreal,District,CA,H3W 1W5",
  "InstitutionName": "IUGM",
  "InstitutionalDepartmentName": "Department",
  "MRAcquisitionType": "2D",
  "MagneticFieldStrength": 3,
  "Manufacturer": "Siemens",
  "ManufacturersModelName": "Prisma_fit",
  "MatrixCoilMode": "SENSE",
  "Modality": "MR",
  "MultibandAccelerationFactor": 4,
  "PartialFourier": 1,
  "PatientPosition": "HFS",
  "PercentPhaseFOV": 100,
  "PercentSampling": 100,
  "PhaseEncodingDirection": "j",
  "PhaseEncodingSteps": 104,
  "PhaseResolution": 1,
  "PixelBandwidth": 2290,
  "ProcedureStepDescription": "video^friends",
  "ProtocolName": "func_task-friends-s06e11b",
  "PulseSequenceDetails": "%CustomerSeq%\\cmrr_mbep2d_bold",
  "ReceiveCoilActiveElements": "HC1-7;NC1,2",
  "ReceiveCoilName": "HeadNeck_64",
  "ReconMatrixPE": 104,
  "RepetitionTime": 1.49,
  "SAR": 0.0639084,
  "ScanOptions": "FS",
  "ScanningSequence": "EP",
  "SequenceName": "epfid2d1_104",
  "SequenceVariant": "SK\\SS",
  "SeriesDescription": "func_task-friends-s06e11b",
  "SeriesNumber": 14,
  "ShimSetting": [630, -7211, -8775, 699, 27, 4, 47, -12],
  "SliceThickness": 2,
  "SliceTiming": [0, 0.7825, 0.0975, 0.8825, 0.195, 0.98, 0.2925, 1.0775, 0.3925, 1.175, 0.49, 1.2725, 0.5875, 1.3725, 0.685, 0, 0.7825, 0.0975, 0.8825, 0.195, 0.98, 0.2925, 1.0775, 0.3925, 1.175, 0.49, 1.2725, 0.5875, 1.3725, 0.685, 0, 0.7825, 0.0975, 0.8825, 0.195, 0.98, 0.2925, 1.0775, 0.3925, 1.175, 0.49, 1.2725, 0.5875, 1.3725, 0.685, 0, 0.7825, 0.0975, 0.8825, 0.195, 0.98, 0.2925, 1.0775, 0.3925, 1.175, 0.49, 1.2725, 0.5875, 1.3725, 0.685],
  "SoftwareVersions": "syngo MR E11",
  "SpacingBetweenSlices": 2,
  "StationName": "MRC35049",
  "TaskName": "s06e11b",
  "TotalReadoutTime": 0.0576811,
  "TxRefAmp": 262.028,
  "WipMemBlock": "5a26514e-6ec4-4c88-8b0e-87671d6690d2||Sequence: R016 ve11c/master r/e634e98; Dec 19 2017 11:00:25 by eja",
  "dcmmeta_affine": [
    [-1.9999744892120361, 0.0066322265192866325, 0.0076173292472958565, 104.7279281616211],
    [0.0044888826087117195, 1.9349033832550049, -0.5060915946960449, -83.55378723144531],
    [0.009047655388712883, 0.5060680508613586, 1.9348936080932617, -57.880245208740234],
    [0.0, 0.0, 0.0, 1.0]
],
  "dcmmeta_reorient_transform": [
    [0.0, -1.0, 0.0, 103.0],
    [1.0, 0.0, 0.0, 0.0],
    [0.0, 0.0, 1.0, 0.0],
    [0.0, 0.0, 0.0, 1.0]
],
  "dcmmeta_shape": [104, 104, 60, 484],
  "dcmmeta_slice_dim": 2,
  "dcmmeta_version": 0.6,
  "global": {
    "const": {
      "AcquisitionMatrix": [104, 0, 0, 104],
      "AngioFlag": "N",
      "BitsAllocated": 16,
      "BitsStored": 16,
      "BodyPartExamined": "BRAIN",
      "Columns": 832,
      "EchoNumbers": 1,
      "EchoTime": 37.0,
      "EchoTrainLength": 104,
      "FlipAngle": 52.0,
      "HighBit": 15,
      "ImageOrientationPatient": [0.99998724865165, -0.0022444413796, 0.0045238276942, 0.00331611327438, 0.96745169420903, -0.2530340347954],
      "ImagePositionPatient": [-835.81589687927, -818.41214027904, 175.16019628769],
      "ImageType": [
        "ORIGINAL",
        "PRIMARY",
        "M",
        "MB",
        "ND",
        "MOSAIC"
],
      "ImagedNucleus": "1H",
      "ImagingFrequency": 123.258836,
      "InPlanePhaseEncodingDirection": "COL",
      "MRAcquisitionType": "2D",
      "MagneticFieldStrength": 3.0,
      "Manufacturer": "SIEMENS",
      "ManufacturerModelName": "Prisma_fit",
      "Modality": "MR",
      "NumberOfAverages": 1.0,
      "NumberOfPhaseEncodingSteps": 104,
      "PercentPhaseFieldOfView": 100.0,
      "PercentSampling": 100.0,
      "PerformedProcedureStepStartTime": "131104.538000",
      "PhotometricInterpretation": "MONOCHROME2",
      "PixelBandwidth": 2290.0,
      "PixelRepresentation": 0,
      "PixelSpacing": [2.0, 2.0],
      "ProtocolName": "func_task-friends-s06e11b",
      "RepetitionTime": 1490.0,
      "Rows": 832,
      "SAR": 0.06390843791354,
      "SamplesPerPixel": 1,
      "ScanOptions": "FS",
      "ScanningSequence": "EP",
      "SequenceName": "epfid2d1_104",
      "SequenceVariant": [
        "SK",
        "SS"
],
      "SeriesDescription": "func_task-friends-s06e11b",
      "SeriesNumber": 14,
      "SeriesTime": "134355.072000",
      "SliceLocation": -34.454248762116,
      "SliceThickness": 2.0,
      "SmallestImagePixelValue": 0,
      "SoftwareVersions": "syngo MR E11",
      "SpacingBetweenSlices": 1.9999999865679,
      "SpecificCharacterSet": "ISO_IR 100",
      "StudyID": "1",
      "StudyTime": "131104.351000",
      "TransmitCoilName": "Body",
      "VariableFlipAngleFlag": "N",
      "WindowCenterWidthExplanation": "Algo1",
      "dBdt": 0.0},
    "slices": {}
  },
  "time": {
    "samples": {
      "AcquisitionNumber": [1, 2, 3, 4, 5, 6, 7, 8, 9, 10, 11, 12, 13, 14, 15, 16, 17, 18, 19, 20, 21, 22, 23, 24, 25, 26, 27, 28, 29, 30, 31, 32, 33, 34, 35, 36, 37, 38, 39, 40, 41, 42, 43, 44, 45, 46, 47, 48, 49, 50, 51, 52, 53, 54, 55, 56, 57, 58, 59, 60, 61, 62, 63, 64, 65, 66, 67, 68, 69, 70, 71, 72, 73, 74, 75, 76, 77, 78, 79, 80, 81, 82, 83, 84, 85, 86, 87, 88, 89, 90, 91, 92, 93, 94, 95, 96, 97, 98, 99, 100, 101, 102, 103, 104, 105, 106, 107, 108, 109, 110, 111, 112, 113, 114, 115, 116, 117, 118, 119, 120, 121, 122, 123, 124, 125, 126, 127, 128, 129, 130, 131, 132, 133, 134, 135, 136, 137, 138, 139, 140, 141, 142, 143, 144, 145, 146, 147, 148, 149, 150, 151, 152, 153, 154, 155, 156, 157, 158, 159, 160, 161, 162, 163, 164, 165, 166, 167, 168, 169, 170, 171, 172, 173, 174, 175, 176, 177, 178, 179, 180, 181, 182, 183, 184, 185, 186, 187, 188, 189, 190, 191, 192, 193, 194, 195, 196, 197, 198, 199, 200, 201, 202, 203, 204, 205, 206, 207, 208, 209, 210, 211, 212, 213, 214, 215, 216, 217, 218, 219, 220, 221, 222, 223, 224, 225, 226, 227, 228, 229, 230, 231, 232, 233, 234, 235, 236, 237, 238, 239, 240, 241, 242, 243, 244, 245, 246, 247, 248, 249, 250, 251, 252, 253, 254, 255, 256, 257, 258, 259, 260, 261, 262, 263, 264, 265, 266, 267, 268, 269, 270, 271, 272, 273, 274, 275, 276, 277, 278, 279, 280, 281, 282, 283, 284, 285, 286, 287, 288, 289, 290, 291, 292, 293, 294, 295, 296, 297, 298, 299, 300, 301, 302, 303, 304, 305, 306, 307, 308, 309, 310, 311, 312, 313, 314, 315, 316, 317, 318, 319, 320, 321, 322, 323, 324, 325, 326, 327, 328, 329, 330, 331, 332, 333, 334, 335, 336, 337, 338, 339, 340, 341, 342, 343, 344, 345, 346, 347, 348, 349, 350, 351, 352, 353, 354, 355, 356, 357, 358, 359, 360, 361, 362, 363, 364, 365, 366, 367, 368, 369, 370, 371, 372, 373, 374, 375, 376, 377, 378, 379, 380, 381, 382, 383, 384, 385, 386, 387, 388, 389, 390, 391, 392, 393, 394, 395, 396, 397, 398, 399, 400, 401, 402, 403, 404, 405, 406, 407, 408, 409, 410, 411, 412, 413, 414, 415, 416, 417, 418, 419, 420, 421, 422, 423, 424, 425, 426, 427, 428, 429, 430, 431, 432, 433, 434, 435, 436, 437, 438, 439, 440, 441, 442, 443, 444, 445, 446, 447, 448, 449, 450, 451, 452, 453, 454, 455, 456, 457, 458, 459, 460, 461, 462, 463, 464, 465, 466, 467, 468, 469, 470, 471, 472, 473, 474, 475, 476, 477, 478, 479, 480, 481, 482, 483, 484],
      "AcquisitionTime": ["134234.002500", "134235.492500", "134236.982500", "134238.472500", "134239.962500", "134241.452500", "134242.942500", "134244.432500", "134245.922500", "134247.412500", "134248.902500", "134250.392500", "134251.882500", "134253.372500", "134254.862500", "134256.352500", "134257.842500", "134259.332500", "134300.822500", "134302.312500", "134303.802500", "134305.292500", "134306.782500", "134308.272500", "134309.762500", "134311.252500", "134312.742500", "134314.232500", "134315.722500", "134317.212500", "134318.702500", "134320.192500", "134321.682500", "134323.172500", "134324.662500", "134326.152500", "134327.642500", "134329.132500", "134330.622500", "134332.112500", "134333.602500", "134335.092500", "134336.582500", "134338.072500", "134339.562500", "134341.052500", "134342.542500", "134344.032500", "134345.522500", "134347.012500", "134348.502500", "134349.992500", "134351.482500", "134352.972500", "134354.462500", "134355.952500", "134357.442500", "134358.932500", "134400.422500", "134401.912500", "134403.402500", "134404.892500", "134406.382500", "134407.872500", "134409.362500", "134410.852500", "134412.342500", "134413.832500", "134415.322500", "134416.812500", "134418.302500", "134419.792500", "134421.282500", "134422.772500", "134424.262500", "134425.752500", "134427.242500", "134428.732500", "134430.222500", "134431.712500", "134433.202500", "134434.692500", "134436.182500", "134437.672500", "134439.162500", "134440.652500", "134442.142500", "134443.632500", "134445.122500", "134446.612500", "134448.102500", "134449.592500", "134451.082500", "134452.572500", "134454.062500", "134455.552500", "134457.042500", "134458.532500", "134500.022500", "134501.512500", "134503.002500", "134504.492500", "134505.982500", "134507.472500", "134508.962500", "134510.452500", "134511.942500", "134513.432500", "134514.922500", "134516.412500", "134517.902500", "134519.392500", "134520.882500", "134522.372500", "134523.862500", "134525.352500", "134526.842500", "134528.332500", "134529.822500", "134531.312500", "134532.802500", "134534.292500", "134535.782500", "134537.272500", "134538.762500", "134540.252500", "134541.742500", "134543.232500", "134544.722500", "134546.212500", "134547.702500", "134549.192500", "134550.682500", "134552.172500", "134553.662500", "134555.152500", "134556.642500", "134558.132500", "134559.622500", "134601.112500", "134602.602500", "134604.092500", "134605.582500", "134607.072500", "134608.562500", "134610.052500", "134611.542500", "134613.032500", "134614.522500", "134616.012500", "134617.502500", "134618.992500", "134620.482500", "134621.972500", "134623.462500", "134624.952500", "134626.442500", "134627.932500", "134629.422500", "134630.912500", "134632.402500", "134633.892500", "134635.382500", "134636.872500", "134638.362500", "134639.852500", "134641.342500", "134642.832500", "134644.322500", "134645.812500", "134647.302500", "134648.792500", "134650.282500", "134651.772500", "134653.262500", "134654.752500", "134656.242500", "134657.732500", "134659.222500", "134700.712500", "134702.202500", "134703.692500", "134705.182500", "134706.672500", "134708.162500", "134709.652500", "134711.142500", "134712.632500", "134714.122500", "134715.612500", "134717.102500", "134718.592500", "134720.082500", "134721.572500", "134723.062500", "134724.552500", "134726.042500", "134727.532500", "134729.022500", "134730.512500", "134732.002500", "134733.492500", "134734.982500", "134736.472500", "134737.962500", "134739.452500", "134740.942500", "134742.432500", "134743.922500", "134745.412500", "134746.902500", "134748.392500", "134749.882500", "134751.372500", "134752.862500", "134754.352500", "134755.842500", "134757.332500", "134758.822500", "134800.312500", "134801.802500", "134803.292500", "134804.782500", "134806.272500", "134807.762500", "134809.252500", "134810.742500", "134812.232500", "134813.722500", "134815.212500", "134816.702500", "134818.192500", "134819.682500", "134821.172500", "134822.662500", "134824.152500", "134825.642500", "134827.132500", "134828.622500", "134830.112500", "134831.602500", "134833.092500", "134834.582500", "134836.072500", "134837.562500", "134839.052500", "134840.542500", "134842.032500", "134843.522500", "134845.012500", "134846.502500", "134847.992500", "134849.482500", "134850.972500", "134852.462500", "134853.952500", "134855.442500", "134856.932500", "134858.422500", "134859.912500", "134901.402500", "134902.892500", "134904.382500", "134905.872500", "134907.362500", "134908.852500", "134910.342500", "134911.832500", "134913.322500", "134914.812500", "134916.302500", "134917.792500", "134919.282500", "134920.772500", "134922.262500", "134923.752500", "134925.242500", "134926.732500", "134928.222500", "134929.712500", "134931.202500", "134932.692500", "134934.182500", "134935.672500", "134937.162500", "134938.652500", "134940.142500", "134941.632500", "134943.122500", "134944.612500", "134946.102500", "134947.592500", "134949.082500", "134950.572500", "134952.062500", "134953.552500", "134955.042500", "134956.532500", "134958.022500", "134959.512500", "135001.002500", "135002.492500", "135003.982500", "135005.472500", "135006.962500", "135008.452500", "135009.942500", "135011.432500", "135012.922500", "135014.412500", "135015.902500", "135017.392500", "135018.882500", "135020.372500", "135021.862500", "135023.352500", "135024.842500", "135026.332500", "135027.822500", "135029.312500", "135030.802500", "135032.292500", "135033.782500", "135035.272500", "135036.762500", "135038.252500", "135039.742500", "135041.232500", "135042.722500", "135044.212500", "135045.702500", "135047.192500", "135048.682500", "135050.172500", "135051.662500", "135053.152500", "135054.642500", "135056.132500", "135057.622500", "135059.112500", "135100.602500", "135102.092500", "135103.582500", "135105.072500", "135106.562500", "135108.052500", "135109.542500", "135111.032500", "135112.522500", "135114.012500", "135115.502500", "135116.992500", "135118.482500", "135119.972500", "135121.462500", "135122.952500", "135124.442500", "135125.932500", "135127.422500", "135128.912500", "135130.402500", "135131.892500", "135133.382500", "135134.872500", "135136.362500", "135137.852500", "135139.342500", "135140.832500", "135142.322500", "135143.812500", "135145.302500", "135146.792500", "135148.282500", "135149.772500", "135151.262500", "135152.752500", "135154.242500", "135155.732500", "135157.222500", "135158.712500", "135200.202500", "135201.692500", "135203.182500", "135204.672500", "135206.162500", "135207.652500", "135209.142500", "135210.632500", "135212.122500", "135213.612500", "135215.102500", "135216.592500", "135218.082500", "135219.572500", "135221.062500", "135222.552500", "135224.042500", "135225.532500", "135227.022500", "135228.512500", "135230.002500", "135231.492500", "135232.982500", "135234.472500", "135235.962500", "135237.452500", "135238.942500", "135240.432500", "135241.922500", "135243.412500", "135244.902500", "135246.392500", "135247.882500", "135249.372500", "135250.862500", "135252.352500", "135253.842500", "135255.332500", "135256.822500", "135258.312500", "135259.802500", "135301.292500", "135302.782500", "135304.272500", "135305.762500", "135307.252500", "135308.742500", "135310.232500", "135311.722500", "135313.212500", "135314.702500", "135316.192500", "135317.682500", "135319.172500", "135320.662500", "135322.152500", "135323.642500", "135325.132500", "135326.622500", "135328.112500", "135329.602500", "135331.092500", "135332.582500", "135334.072500", "135335.562500", "135337.052500", "135338.542500", "135340.032500", "135341.522500", "135343.012500", "135344.502500", "135345.992500", "135347.482500", "135348.972500", "135350.462500", "135351.952500", "135353.442500", "135354.932500", "135356.422500", "135357.912500", "135359.402500", "135400.892500", "135402.382500", "135403.872500", "135405.362500", "135406.852500", "135408.342500", "135409.832500", "135411.322500", "135412.812500", "135414.302500", "135415.792500", "135417.282500", "135418.772500", "135420.262500", "135421.752500", "135423.242500", "135424.732500", "135426.222500", "135427.712500", "135429.202500", "135430.692500", "135432.182500", "135433.672500"],
      "ContentTime": ["134355.075000", "134355.078000", "134355.081000", "134355.084000", "134355.087000", "134355.090000", "134355.093000", "134355.101000", "134355.104000", "134355.107000", "134355.110000", "134355.113000", "134355.116000", "134355.119000", "134355.128000", "134355.130000", "134355.133000", "134355.136000", "134355.139000", "134355.142000", "134355.145000", "134355.148000", "134355.151000", "134355.154000", "134355.157000", "134355.160000", "134415.039000", "134415.042000", "134415.045000", "134415.048000", "134415.051000", "134415.054000", "134415.057000", "134415.060000", "134415.063000", "134415.065000", "134415.068000", "134415.071000", "134415.074000", "134415.077000", "134415.080000", "134415.083000", "134415.086000", "134415.089000", "134415.092000", "134415.095000", "134435.039000", "134435.042000", "134435.045000", "134435.048000", "134435.051000", "134435.054000", "134435.057000", "134435.060000", "134435.063000", "134435.066000", "134435.068000", "134435.071000", "134435.074000", "134435.077000", "134435.080000", "134435.083000", "134435.086000", "134435.089000", "134435.092000", "134435.095000", "134455.039000", "134455.042000", "134455.045000", "134455.048000", "134455.051000", "134455.055000", "134455.058000", "134455.061000", "134455.064000", "134455.084000", "134455.087000", "134455.104000", "134455.107000", "134455.110000", "134455.113000", "134455.116000", "134455.118000", "134455.121000", "134455.124000", "134455.127000", "134515.039000", "134515.042000", "134515.045000", "134515.048000", "134515.051000", "134515.054000", "134515.057000", "134515.060000", "134515.062000", "134515.065000", "134515.068000", "134515.071000", "134515.074000", "134515.077000", "134515.080000", "134515.083000", "134515.086000", "134515.089000", "134515.092000", "134515.094000", "134515.097000", "134555.040000", "134555.043000", "134555.046000", "134555.049000", "134555.052000", "134555.055000", "134555.058000", "134555.061000", "134555.064000", "134555.067000", "134555.070000", "134555.073000", "134555.076000", "134555.079000", "134555.082000", "134555.085000", "134555.088000", "134555.090000", "134555.108000", "134555.111000", "134555.114000", "134555.117000", "134555.120000", "134555.122000", "134555.125000", "134555.128000", "134555.145000", "134635.039000", "134635.042000", "134635.045000", "134635.048000", "134635.051000", "134635.054000", "134635.057000", "134635.060000", "134635.063000", "134635.066000", "134635.068000", "134635.071000", "134635.074000", "134635.077000", "134635.080000", "134635.083000", "134635.086000", "134635.089000", "134635.092000", "134635.095000", "134635.097000", "134635.100000", "134635.103000", "134635.106000", "134635.109000", "134635.112000", "134635.115000", "134715.039000", "134715.042000", "134715.045000", "134715.048000", "134715.051000", "134715.054000", "134715.057000", "134715.060000", "134715.063000", "134715.066000", "134715.069000", "134715.072000", "134715.075000", "134715.078000", "134715.081000", "134715.084000", "134715.087000", "134715.090000", "134715.093000", "134715.095000", "134715.098000", "134715.101000", "134715.104000", "134715.107000", "134715.110000", "134715.113000", "134715.116000", "134755.040000", "134755.043000", "134755.046000", "134755.049000", "134755.052000", "134755.055000", "134755.058000", "134755.061000", "134755.064000", "134755.066000", "134755.069000", "134755.072000", "134755.075000", "134755.078000", "134755.081000", "134755.084000", "134755.087000", "134755.091000", "134755.094000", "134755.096000", "134755.099000", "134755.103000", "134755.105000", "134755.108000", "134755.111000", "134755.114000", "134755.117000", "134835.040000", "134835.043000", "134835.046000", "134835.049000", "134835.052000", "134835.055000", "134835.058000", "134835.061000", "134835.064000", "134835.067000", "134835.070000", "134835.073000", "134835.076000", "134835.079000", "134835.082000", "134835.084000", "134835.088000", "134835.091000", "134835.093000", "134835.096000", "134835.099000", "134835.102000", "134835.105000", "134835.108000", "134835.111000", "134835.114000", "134835.117000", "134915.039000", "134915.042000", "134915.045000", "134915.048000", "134915.051000", "134915.054000", "134915.057000", "134915.060000", "134915.063000", "134915.066000", "134915.069000", "134915.072000", "134915.075000", "134915.083000", "134915.086000", "134915.089000", "134915.092000", "134915.095000", "134915.098000", "134915.101000", "134915.104000", "134915.107000", "134915.110000", "134915.113000", "134915.116000", "134915.119000", "134915.122000", "134955.039000", "134955.042000", "134955.045000", "134955.048000", "134955.051000", "134955.054000", "134955.057000", "134955.060000", "134955.063000", "134955.066000", "134955.070000", "134955.073000", "134955.076000", "134955.079000", "134955.082000", "134955.085000", "134955.088000", "134955.091000", "134955.093000", "134955.096000", "134955.100000", "134955.102000", "134955.105000", "134955.108000", "134955.111000", "134955.114000", "135035.040000", "135035.043000", "135035.046000", "135035.049000", "135035.052000", "135035.055000", "135035.058000", "135035.061000", "135035.064000", "135035.067000", "135035.070000", "135035.073000", "135035.076000", "135035.079000", "135035.082000", "135035.085000", "135035.088000", "135035.090000", "135035.093000", "135035.096000", "135035.099000", "135035.102000", "135035.105000", "135035.108000", "135035.111000", "135035.114000", "135035.117000", "135115.039000", "135115.042000", "135115.045000", "135115.048000", "135115.051000", "135115.054000", "135115.057000", "135115.060000", "135115.063000", "135115.066000", "135115.069000", "135115.072000", "135115.075000", "135115.096000", "135115.099000", "135115.102000", "135115.105000", "135115.108000", "135115.111000", "135115.114000", "135115.117000", "135115.120000", "135115.123000", "135115.126000", "135115.129000", "135115.132000", "135115.135000", "135155.039000", "135155.042000", "135155.045000", "135155.048000", "135155.051000", "135155.054000", "135155.057000", "135155.060000", "135155.063000", "135155.066000", "135155.069000", "135155.072000", "135155.075000", "135155.078000", "135155.081000", "135155.084000", "135155.087000", "135155.090000", "135155.093000", "135155.096000", "135155.099000", "135155.102000", "135155.105000", "135155.108000", "135155.111000", "135155.114000", "135155.117000", "135235.040000", "135235.043000", "135235.046000", "135235.049000", "135235.052000", "135235.055000", "135235.058000", "135235.061000", "135235.064000", "135235.067000", "135235.069000", "135235.072000", "135235.075000", "135235.078000", "135235.081000", "135235.084000", "135235.087000", "135235.090000", "135235.093000", "135235.096000", "135235.099000", "135235.101000", "135235.104000", "135235.107000", "135235.110000", "135235.113000", "135235.116000", "135315.040000", "135315.043000", "135315.046000", "135315.049000", "135315.052000", "135315.055000", "135315.058000", "135315.061000", "135315.064000", "135315.066000", "135315.069000", "135315.072000", "135315.075000", "135315.078000", "135315.081000", "135315.084000", "135315.087000", "135315.090000", "135315.093000", "135315.096000", "135315.099000", "135315.102000", "135315.105000", "135315.108000", "135315.111000", "135315.113000", "135315.116000", "135355.039000", "135355.042000", "135355.045000", "135355.048000", "135355.051000", "135355.054000", "135355.057000", "135355.060000", "135355.063000", "135355.065000", "135355.068000", "135355.071000", "135355.075000", "135355.078000", "135355.081000", "135355.084000", "135355.087000", "135355.091000", "135355.094000", "135355.097000", "135355.100000", "135355.103000", "135355.106000", "135355.109000", "135355.112000", "135355.115000", "135435.039000", "135435.042000", "135435.045000", "135435.048000", "135435.051000", "135435.054000", "135435.057000", "135435.060000", "135435.063000", "135435.065000", "135435.074000", "135435.077000", "135435.080000", "135435.083000", "135435.086000", "135435.089000", "135435.092000", "135435.095000", "135435.098000", "135435.100000", "135435.103000", "135435.106000", "135435.109000", "135435.112000", "135435.115000", "135435.118000", "135435.121000", "135435.387000"],
