{
  "AcquisitionMatrixPE": 104,
  "AcquisitionNumber": 1,
  "AcquisitionTime": "13:29:38.432500",
  "BandwidthPerPixelPhaseEncode": 17.17,
  "BaseResolution": 104,
  "BodyPartExamined": "BRAIN",
  "CoilCombinationMethod": "Sum of Squares",
  "ConsistencyInfo": "N4_VE11C_LATEST_20160120",
  "ConversionSoftware": "dcm2niix",
  "ConversionSoftwareVersion": "v1.0.20211006",
  "DerivedVendorReportedEchoSpacing": 0.000560011,
  "DeviceSerialNumber": "167006",
  "DwellTime": 2.1e-06,
  "EchoTime": 0.037,
  "EchoTrainLength": 104,
  "EffectiveEchoSpacing": 0.000560011,
  "FlipAngle": 52,
  "HeudiconvVersion": "0.11.3.post9+gc939bf8",
  "ImageComments": "Unaliased MB4/PE3/LB",
  "ImageOrientationPatientDICOM": [0.999987, -0.00224444, 0.00452383, 0.00331611, 0.967452, -0.253034],
  "ImageOrientationText": "Tra>Cor(-14.7)>Sag(0.2)",
  "ImageType": [
    "ORIGINAL",
    "PRIMARY",
    "M",
    "MB",
    "ND",
    "MOSAIC"
],
  "ImagingFrequency": 123.259,
  "InPlanePhaseEncodingDirectionDICOM": "COL",
  "InstitutionAddress": "Chemin Queen-Mary 4565,Montreal,District,CA,H3W 1W5",
  "InstitutionName": "IUGM",
  "InstitutionalDepartmentName": "Department",
  "MRAcquisitionType": "2D",
  "MagneticFieldStrength": 3,
  "Manufacturer": "Siemens",
  "ManufacturersModelName": "Prisma_fit",
  "MatrixCoilMode": "SENSE",
  "Modality": "MR",
  "MultibandAccelerationFactor": 4,
  "PartialFourier": 1,
  "PatientPosition": "HFS",
  "PercentPhaseFOV": 100,
  "PercentSampling": 100,
  "PhaseEncodingDirection": "j",
  "PhaseEncodingSteps": 104,
  "PhaseResolution": 1,
  "PixelBandwidth": 2290,
  "ProcedureStepDescription": "video^friends",
  "ProtocolName": "func_task-friends-s06e11a",
  "PulseSequenceDetails": "%CustomerSeq%\\cmrr_mbep2d_bold",
  "ReceiveCoilActiveElements": "HC1-7;NC1,2",
  "ReceiveCoilName": "HeadNeck_64",
  "ReconMatrixPE": 104,
  "RepetitionTime": 1.49,
  "SAR": 0.0638887,
  "ScanOptions": "FS",
  "ScanningSequence": "EP",
  "SequenceName": "epfid2d1_104",
  "SequenceVariant": "SK\\SS",
  "SeriesDescription": "func_task-friends-s06e11a",
  "SeriesNumber": 12,
  "ShimSetting": [630, -7211, -8775, 699, 27, 4, 47, -12],
  "SliceThickness": 2,
  "SliceTiming": [0, 0.7825, 0.0975, 0.88, 0.195, 0.98, 0.2925, 1.0775, 0.39, 1.175, 0.49, 1.2725, 0.5875, 1.37, 0.685, 0, 0.7825, 0.0975, 0.88, 0.195, 0.98, 0.2925, 1.0775, 0.39, 1.175, 0.49, 1.2725, 0.5875, 1.37, 0.685, 0, 0.7825, 0.0975, 0.88, 0.195, 0.98, 0.2925, 1.0775, 0.39, 1.175, 0.49, 1.2725, 0.5875, 1.37, 0.685, 0, 0.7825, 0.0975, 0.88, 0.195, 0.98, 0.2925, 1.0775, 0.39, 1.175, 0.49, 1.2725, 0.5875, 1.37, 0.685],
  "SoftwareVersions": "syngo MR E11",
  "SpacingBetweenSlices": 2,
  "StationName": "MRC35049",
  "TaskName": "s06e11a",
  "TotalReadoutTime": 0.0576811,
  "TxRefAmp": 262.028,
  "WipMemBlock": "2f6c52b0-2eff-4e96-9c4f-08445f3b7685||Sequence: R016 ve11c/master r/e634e98; Dec 19 2017 11:00:25 by eja",
  "dcmmeta_affine": [
    [-1.9999744892120361, 0.0066322265192866325, 0.0076173292472958565, 104.7279281616211],
    [0.0044888826087117195, 1.9349033832550049, -0.5060915946960449, -83.55378723144531],
    [0.009047655388712883, 0.5060680508613586, 1.9348936080932617, -57.880245208740234],
    [0.0, 0.0, 0.0, 1.0]
],
  "dcmmeta_reorient_transform": [
    [0.0, -1.0, 0.0, 103.0],
    [1.0, 0.0, 0.0, 0.0],
    [0.0, 0.0, 1.0, 0.0],
    [0.0, 0.0, 0.0, 1.0]
],
  "dcmmeta_shape": [104, 104, 60, 450],
  "dcmmeta_slice_dim": 2,
  "dcmmeta_version": 0.6,
  "global": {
    "const": {
      "AcquisitionMatrix": [104, 0, 0, 104],
      "AngioFlag": "N",
      "BitsAllocated": 16,
      "BitsStored": 16,
      "BodyPartExamined": "BRAIN",
      "Columns": 832,
      "EchoNumbers": 1,
      "EchoTime": 37.0,
      "EchoTrainLength": 104,
      "FlipAngle": 52.0,
      "HighBit": 15,
      "ImageOrientationPatient": [0.99998724865165, -0.0022444413796, 0.0045238276942, 0.00331611327438, 0.96745169420903, -0.2530340347954],
      "ImagePositionPatient": [-835.81589687927, -818.41214027904, 175.16019628769],
      "ImageType": [
        "ORIGINAL",
        "PRIMARY",
        "M",
        "MB",
        "ND",
        "MOSAIC"
],
      "ImagedNucleus": "1H",
      "ImagingFrequency": 123.258827,
      "InPlanePhaseEncodingDirection": "COL",
      "MRAcquisitionType": "2D",
      "MagneticFieldStrength": 3.0,
      "Manufacturer": "SIEMENS",
      "ManufacturerModelName": "Prisma_fit",
      "Modality": "MR",
      "NumberOfAverages": 1.0,
      "NumberOfPhaseEncodingSteps": 104,
      "PercentPhaseFieldOfView": 100.0,
      "PercentSampling": 100.0,
      "PerformedProcedureStepStartTime": "131104.538000",
      "PhotometricInterpretation": "MONOCHROME2",
      "PixelBandwidth": 2290.0,
      "PixelRepresentation": 0,
      "PixelSpacing": [2.0, 2.0],
      "ProtocolName": "func_task-friends-s06e11a",
      "RepetitionTime": 1490.0,
      "Rows": 832,
      "SAR": 0.06388873888413,
      "SamplesPerPixel": 1,
      "ScanOptions": "FS",
      "ScanningSequence": "EP",
      "SequenceName": "epfid2d1_104",
      "SequenceVariant": [
        "SK",
        "SS"
],
      "SeriesDescription": "func_task-friends-s06e11a",
      "SeriesNumber": 12,
      "SeriesTime": "133053.630000",
      "SliceLocation": -34.454248762116,
      "SliceThickness": 2.0,
      "SmallestImagePixelValue": 0,
      "SoftwareVersions": "syngo MR E11",
      "SpacingBetweenSlices": 1.9999999865679,
      "SpecificCharacterSet": "ISO_IR 100",
      "StudyID": "1",
      "StudyTime": "131104.351000",
      "TransmitCoilName": "Body",
      "VariableFlipAngleFlag": "N",
      "WindowCenterWidthExplanation": "Algo1",
      "dBdt": 0.0},
    "slices": {}
  },
  "time": {
    "samples": {
      "AcquisitionNumber": [1, 2, 3, 4, 5, 6, 7, 8, 9, 10, 11, 12, 13, 14, 15, 16, 17, 18, 19, 20, 21, 22, 23, 24, 25, 26, 27, 28, 29, 30, 31, 32, 33, 34, 35, 36, 37, 38, 39, 40, 41, 42, 43, 44, 45, 46, 47, 48, 49, 50, 51, 52, 53, 54, 55, 56, 57, 58, 59, 60, 61, 62, 63, 64, 65, 66, 67, 68, 69, 70, 71, 72, 73, 74, 75, 76, 77, 78, 79, 80, 81, 82, 83, 84, 85, 86, 87, 88, 89, 90, 91, 92, 93, 94, 95, 96, 97, 98, 99, 100, 101, 102, 103, 104, 105, 106, 107, 108, 109, 110, 111, 112, 113, 114, 115, 116, 117, 118, 119, 120, 121, 122, 123, 124, 125, 126, 127, 128, 129, 130, 131, 132, 133, 134, 135, 136, 137, 138, 139, 140, 141, 142, 143, 144, 145, 146, 147, 148, 149, 150, 151, 152, 153, 154, 155, 156, 157, 158, 159, 160, 161, 162, 163, 164, 165, 166, 167, 168, 169, 170, 171, 172, 173, 174, 175, 176, 177, 178, 179, 180, 181, 182, 183, 184, 185, 186, 187, 188, 189, 190, 191, 192, 193, 194, 195, 196, 197, 198, 199, 200, 201, 202, 203, 204, 205, 206, 207, 208, 209, 210, 211, 212, 213, 214, 215, 216, 217, 218, 219, 220, 221, 222, 223, 224, 225, 226, 227, 228, 229, 230, 231, 232, 233, 234, 235, 236, 237, 238, 239, 240, 241, 242, 243, 244, 245, 246, 247, 248, 249, 250, 251, 252, 253, 254, 255, 256, 257, 258, 259, 260, 261, 262, 263, 264, 265, 266, 267, 268, 269, 270, 271, 272, 273, 274, 275, 276, 277, 278, 279, 280, 281, 282, 283, 284, 285, 286, 287, 288, 289, 290, 291, 292, 293, 294, 295, 296, 297, 298, 299, 300, 301, 302, 303, 304, 305, 306, 307, 308, 309, 310, 311, 312, 313, 314, 315, 316, 317, 318, 319, 320, 321, 322, 323, 324, 325, 326, 327, 328, 329, 330, 331, 332, 333, 334, 335, 336, 337, 338, 339, 340, 341, 342, 343, 344, 345, 346, 347, 348, 349, 350, 351, 352, 353, 354, 355, 356, 357, 358, 359, 360, 361, 362, 363, 364, 365, 366, 367, 368, 369, 370, 371, 372, 373, 374, 375, 376, 377, 378, 379, 380, 381, 382, 383, 384, 385, 386, 387, 388, 389, 390, 391, 392, 393, 394, 395, 396, 397, 398, 399, 400, 401, 402, 403, 404, 405, 406, 407, 408, 409, 410, 411, 412, 413, 414, 415, 416, 417, 418, 419, 420, 421, 422, 423, 424, 425, 426, 427, 428, 429, 430, 431, 432, 433, 434, 435, 436, 437, 438, 439, 440, 441, 442, 443, 444, 445, 446, 447, 448, 449, 450],
      "AcquisitionTime": ["132938.432500", "132939.922500", "132941.412500", "132942.902500", "132944.392500", "132945.882500", "132947.372500", "132948.862500", "132950.352500", "132951.842500", "132953.332500", "132954.822500", "132956.312500", "132957.802500", "132959.292500", "133000.782500", "133002.272500", "133003.762500", "133005.252500", "133006.742500", "133008.232500", "133009.722500", "133011.212500", "133012.702500", "133014.192500", "133015.682500", "133017.172500", "133018.662500", "133020.152500", "133021.642500", "133023.132500", "133024.622500", "133026.112500", "133027.602500", "133029.092500", "133030.582500", "133032.072500", "133033.562500", "133035.052500", "133036.542500", "133038.032500", "133039.522500", "133041.012500", "133042.502500", "133043.992500", "133045.482500", "133046.972500", "133048.462500", "133049.952500", "133051.442500", "133052.932500", "133054.422500", "133055.912500", "133057.402500", "133058.892500", "133100.382500", "133101.872500", "133103.362500", "133104.852500", "133106.342500", "133107.832500", "133109.322500", "133110.812500", "133112.302500", "133113.792500", "133115.282500", "133116.772500", "133118.262500", "133119.752500", "133121.242500", "133122.732500", "133124.222500", "133125.712500", "133127.202500", "133128.692500", "133130.182500", "133131.672500", "133133.162500", "133134.652500", "133136.142500", "133137.632500", "133139.122500", "133140.612500", "133142.102500", "133143.592500", "133145.082500", "133146.572500", "133148.062500", "133149.552500", "133151.042500", "133152.532500", "133154.022500", "133155.512500", "133157.002500", "133158.492500", "133159.982500", "133201.472500", "133202.962500", "133204.452500", "133205.942500", "133207.432500", "133208.922500", "133210.412500", "133211.902500", "133213.392500", "133214.882500", "133216.372500", "133217.862500", "133219.352500", "133220.842500", "133222.332500", "133223.822500", "133225.312500", "133226.802500", "133228.292500", "133229.782500", "133231.272500", "133232.762500", "133234.252500", "133235.742500", "133237.232500", "133238.722500", "133240.212500", "133241.702500", "133243.192500", "133244.682500", "133246.172500", "133247.662500", "133249.152500", "133250.642500", "133252.132500", "133253.622500", "133255.112500", "133256.602500", "133258.092500", "133259.582500", "133301.072500", "133302.562500", "133304.052500", "133305.542500", "133307.032500", "133308.522500", "133310.012500", "133311.502500", "133312.992500", "133314.482500", "133315.972500", "133317.462500", "133318.952500", "133320.442500", "133321.932500", "133323.422500", "133324.912500", "133326.402500", "133327.892500", "133329.382500", "133330.872500", "133332.362500", "133333.852500", "133335.342500", "133336.832500", "133338.322500", "133339.812500", "133341.302500", "133342.792500", "133344.282500", "133345.772500", "133347.262500", "133348.752500", "133350.242500", "133351.732500", "133353.222500", "133354.712500", "133356.202500", "133357.692500", "133359.182500", "133400.672500", "133402.162500", "133403.652500", "133405.142500", "133406.632500", "133408.122500", "133409.612500", "133411.102500", "133412.592500", "133414.082500", "133415.572500", "133417.062500", "133418.552500", "133420.042500", "133421.532500", "133423.022500", "133424.512500", "133426.002500", "133427.492500", "133428.982500", "133430.472500", "133431.962500", "133433.452500", "133434.942500", "133436.432500", "133437.922500", "133439.412500", "133440.902500", "133442.392500", "133443.882500", "133445.372500", "133446.862500", "133448.352500", "133449.842500", "133451.332500", "133452.822500", "133454.312500", "133455.802500", "133457.292500", "133458.782500", "133500.272500", "133501.762500", "133503.252500", "133504.742500", "133506.232500", "133507.722500", "133509.212500", "133510.702500", "133512.192500", "133513.682500", "133515.172500", "133516.662500", "133518.152500", "133519.642500", "133521.132500", "133522.622500", "133524.112500", "133525.602500", "133527.092500", "133528.582500", "133530.072500", "133531.562500", "133533.052500", "133534.542500", "133536.032500", "133537.522500", "133539.012500", "133540.502500", "133541.992500", "133543.482500", "133544.972500", "133546.462500", "133547.952500", "133549.442500", "133550.932500", "133552.422500", "133553.912500", "133555.402500", "133556.892500", "133558.382500", "133559.872500", "133601.362500", "133602.852500", "133604.342500", "133605.832500", "133607.322500", "133608.812500", "133610.302500", "133611.792500", "133613.282500", "133614.772500", "133616.262500", "133617.752500", "133619.242500", "133620.732500", "133622.222500", "133623.712500", "133625.202500", "133626.692500", "133628.182500", "133629.672500", "133631.162500", "133632.652500", "133634.142500", "133635.632500", "133637.122500", "133638.612500", "133640.102500", "133641.592500", "133643.082500", "133644.572500", "133646.062500", "133647.552500", "133649.042500", "133650.532500", "133652.022500", "133653.512500", "133655.002500", "133656.492500", "133657.982500", "133659.472500", "133700.962500", "133702.452500", "133703.942500", "133705.432500", "133706.922500", "133708.412500", "133709.902500", "133711.392500", "133712.882500", "133714.372500", "133715.862500", "133717.352500", "133718.842500", "133720.332500", "133721.822500", "133723.312500", "133724.802500", "133726.292500", "133727.782500", "133729.272500", "133730.762500", "133732.252500", "133733.742500", "133735.232500", "133736.722500", "133738.212500", "133739.702500", "133741.192500", "133742.682500", "133744.172500", "133745.662500", "133747.152500", "133748.642500", "133750.132500", "133751.622500", "133753.112500", "133754.602500", "133756.092500", "133757.582500", "133759.072500", "133800.562500", "133802.052500", "133803.542500", "133805.032500", "133806.522500", "133808.012500", "133809.502500", "133810.992500", "133812.482500", "133813.972500", "133815.462500", "133816.952500", "133818.442500", "133819.932500", "133821.422500", "133822.912500", "133824.402500", "133825.892500", "133827.382500", "133828.872500", "133830.362500", "133831.852500", "133833.342500", "133834.832500", "133836.322500", "133837.812500", "133839.302500", "133840.792500", "133842.282500", "133843.772500", "133845.262500", "133846.752500", "133848.242500", "133849.732500", "133851.222500", "133852.712500", "133854.202500", "133855.692500", "133857.182500", "133858.672500", "133900.162500", "133901.652500", "133903.142500", "133904.632500", "133906.122500", "133907.612500", "133909.102500", "133910.592500", "133912.082500", "133913.572500", "133915.062500", "133916.552500", "133918.042500", "133919.532500", "133921.022500", "133922.512500", "133924.002500", "133925.492500", "133926.982500", "133928.472500", "133929.962500", "133931.452500", "133932.942500", "133934.432500", "133935.922500", "133937.412500", "133938.902500", "133940.392500", "133941.882500", "133943.372500", "133944.862500", "133946.352500", "133947.842500", "133949.332500", "133950.822500", "133952.312500", "133953.802500", "133955.292500", "133956.782500", "133958.272500", "133959.762500", "134001.252500", "134002.742500", "134004.232500", "134005.722500", "134007.212500", "134008.702500", "134010.192500", "134011.682500", "134013.172500", "134014.662500", "134016.152500", "134017.642500", "134019.132500", "134020.622500", "134022.112500", "134023.602500", "134025.092500", "134026.582500", "134028.072500", "134029.562500", "134031.052500", "134032.542500", "134034.032500", "134035.522500", "134037.012500", "134038.502500", "134039.992500", "134041.482500", "134042.972500", "134044.462500", "134045.952500", "134047.442500"],
      "ContentTime": ["133053.633000", "133053.637000", "133053.640000", "133053.643000", "133053.645000", "133053.648000", "133053.651000", "133053.654000", "133053.657000", "133053.660000", "133053.663000", "133053.674000", "133053.677000", "133053.679000", "133053.682000", "133053.685000", "133053.688000", "133053.691000", "133053.694000", "133113.601000", "133113.604000", "133113.607000", "133113.610000", "133113.613000", "133113.624000", "133113.627000", "133113.630000", "133113.633000", "133113.636000", "133113.639000", "133113.642000", "133113.645000", "133113.648000", "133113.650000", "133113.653000", "133113.656000", "133113.659000", "133113.662000", "133113.665000", "133133.601000", "133133.604000", "133133.607000", "133133.610000", "133133.613000", "133133.616000", "133133.624000", "133133.627000", "133133.630000", "133133.633000", "133133.636000", "133133.639000", "133133.642000", "133133.645000", "133133.654000", "133133.657000", "133133.660000", "133133.663000", "133133.666000", "133133.669000", "133153.602000", "133153.605000", "133153.608000", "133153.611000", "133153.614000", "133153.617000", "133153.620000", "133153.623000", "133153.626000", "133153.629000", "133153.631000", "133153.634000", "133153.637000", "133153.640000", "133153.643000", "133153.646000", "133153.649000", "133153.652000", "133153.655000", "133153.658000", "133153.661000", "133213.601000", "133213.604000", "133213.607000", "133213.610000", "133213.613000", "133213.616000", "133213.619000", "133213.622000", "133213.625000", "133213.627000", "133213.630000", "133213.633000", "133213.636000", "133213.639000", "133213.642000", "133213.645000", "133213.648000", "133213.651000", "133213.654000", "133213.657000", "133253.601000", "133253.604000", "133253.607000", "133253.610000", "133253.613000", "133253.616000", "133253.619000", "133253.622000", "133253.625000", "133253.628000", "133253.631000", "133253.634000", "133253.636000", "133253.639000", "133253.642000", "133253.645000", "133253.648000", "133253.651000", "133253.654000", "133253.657000", "133253.660000", "133253.663000", "133253.666000", "133253.669000", "133253.672000", "133253.675000", "133253.677000", "133253.680000", "133253.683000", "133253.686000", "133333.601000", "133333.604000", "133333.607000", "133333.610000", "133333.613000", "133333.616000", "133333.619000", "133333.622000", "133333.625000", "133333.628000", "133333.631000", "133333.639000", "133333.642000", "133333.645000", "133333.648000", "133333.651000", "133333.654000", "133333.657000", "133333.660000", "133333.663000", "133333.666000", "133333.669000", "133333.672000", "133333.675000", "133333.678000", "133333.681000", "133333.684000", "133413.602000", "133413.605000", "133413.608000", "133413.611000", "133413.614000", "133413.628000", "133413.630000", "133413.633000", "133413.636000", "133413.639000", "133413.642000", "133413.645000", "133413.648000", "133413.651000", "133413.654000", "133413.657000", "133413.660000", "133413.663000", "133413.667000", "133413.669000", "133413.672000", "133413.675000", "133413.678000", "133413.681000", "133413.684000", "133413.687000", "133453.601000", "133453.604000", "133453.607000", "133453.610000", "133453.613000", "133453.616000", "133453.619000", "133453.622000", "133453.625000", "133453.628000", "133453.631000", "133453.633000", "133453.636000", "133453.639000", "133453.642000", "133453.645000", "133453.648000", "133453.651000", "133453.654000", "133453.657000", "133453.660000", "133453.663000", "133453.666000", "133453.669000", "133453.672000", "133453.675000", "133453.678000", "133533.601000", "133533.604000", "133533.607000", "133533.610000", "133533.613000", "133533.616000", "133533.619000", "133533.622000", "133533.625000", "133533.628000", "133533.631000", "133533.652000", "133533.655000", "133533.658000", "133533.660000", "133533.663000", "133533.666000", "133533.669000", "133533.672000", "133533.675000", "133533.678000", "133533.681000", "133533.684000", "133533.687000", "133533.690000", "133533.693000", "133533.696000", "133613.601000", "133613.604000", "133613.607000", "133613.610000", "133613.613000", "133613.616000", "133613.619000", "133613.622000", "133613.625000", "133613.628000", "133613.631000", "133613.634000", "133613.637000", "133613.640000", "133613.643000", "133613.646000", "133613.649000", "133613.652000", "133613.654000", "133613.657000", "133613.660000", "133613.663000", "133613.666000", "133613.669000", "133613.672000", "133613.675000", "133613.678000", "133653.601000", "133653.604000", "133653.607000", "133653.610000", "133653.613000", "133653.616000", "133653.619000", "133653.622000", "133653.625000", "133653.634000", "133653.637000", "133653.640000", "133653.643000", "133653.646000", "133653.649000", "133653.652000", "133653.655000", "133653.659000", "133653.662000", "133653.665000", "133653.668000", "133653.671000", "133653.674000", "133653.677000", "133653.680000", "133653.683000", "133653.686000", "133733.601000", "133733.604000", "133733.607000", "133733.610000", "133733.613000", "133733.616000", "133733.619000", "133733.622000", "133733.633000", "133733.636000", "133733.638000", "133733.641000", "133733.644000", "133733.647000", "133733.650000", "133733.653000", "133733.656000", "133733.659000", "133733.662000", "133733.665000", "133733.668000", "133733.671000", "133733.674000", "133733.677000", "133733.680000", "133733.683000", "133733.686000", "133813.601000", "133813.604000", "133813.607000", "133813.610000", "133813.613000", "133813.616000", "133813.619000", "133813.622000", "133813.625000", "133813.628000", "133813.631000", "133813.634000", "133813.637000", "133813.640000", "133813.642000", "133813.645000", "133813.648000", "133813.651000", "133813.654000", "133813.657000", "133813.660000", "133813.663000", "133813.666000", "133813.669000", "133813.672000", "133813.675000", "133813.678000", "133853.602000", "133853.605000", "133853.608000", "133853.611000", "133853.614000", "133853.617000", "133853.620000", "133853.623000", "133853.626000", "133853.629000", "133853.632000", "133853.635000", "133853.638000", "133853.641000", "133853.646000", "133853.649000", "133853.652000", "133853.655000", "133853.658000", "133853.660000", "133853.663000", "133853.666000", "133853.669000", "133853.672000", "133853.675000", "133853.678000", "133933.601000", "133933.604000", "133933.607000", "133933.610000", "133933.613000", "133933.616000", "133933.619000", "133933.622000", "133933.625000", "133933.628000", "133933.631000", "133933.634000", "133933.637000", "133933.640000", "133933.643000", "133933.646000", "133933.649000", "133933.651000", "133933.654000", "133933.657000", "133933.660000", "133933.663000", "133933.666000", "133933.669000", "133933.672000", "133933.675000", "133933.678000", "134013.601000", "134013.618000", "134013.621000", "134013.624000", "134013.627000", "134013.630000", "134013.632000", "134013.648000", "134013.651000", "134013.654000", "134013.657000", "134013.660000", "134013.663000", "134013.666000", "134013.669000", "134013.672000", "134013.675000", "134013.678000", "134013.681000", "134013.684000", "134013.687000", "134013.690000", "134013.692000", "134013.695000", "134013.698000", "134013.702000", "134013.704000", "134033.601000", "134033.605000", "134033.608000", "134033.611000", "134033.614000", "134033.617000", "134033.620000", "134033.623000", "134033.626000", "134033.629000", "134033.632000", "134033.635000", "134033.638000", "134050.058000", "134050.062000", "134050.065000", "134050.068000", "134050.071000", "134050.074000", "134050.077000", "134050.080000", "134050.083000", "134050.086000", "134050.090000", "134050.093000"],
