{
  "AcquisitionMatrixPE": 104,
  "AcquisitionNumber": 1,
  "AcquisitionTime": "14:08:44.617500",
  "BandwidthPerPixelPhaseEncode": 17.17,
  "BaseResolution": 104,
  "BodyPartExamined": "BRAIN",
  "CoilCombinationMethod": "Sum of Squares",
  "ConsistencyInfo": "N4_VE11C_LATEST_20160120",
  "ConversionSoftware": "dcm2niix",
  "ConversionSoftwareVersion": "v1.0.20211006",
  "DerivedVendorReportedEchoSpacing": 0.000560011,
  "DeviceSerialNumber": "167006",
  "DwellTime": 2.1e-06,
  "EchoTime": 0.037,
  "EchoTrainLength": 104,
  "EffectiveEchoSpacing": 0.000560011,
  "FlipAngle": 52,
  "HeudiconvVersion": "0.11.3.post9+gc939bf8",
  "ImageComments": "Unaliased MB4/PE3/LB",
  "ImageOrientationPatientDICOM": [0.999987, -0.00224444, 0.00452383, 0.00331611, 0.967452, -0.253034],
  "ImageOrientationText": "Tra>Cor(-14.7)>Sag(0.2)",
  "ImageType": [
    "ORIGINAL",
    "PRIMARY",
    "M",
    "MB",
    "ND",
    "MOSAIC"
],
  "ImagingFrequency": 123.259,
  "InPlanePhaseEncodingDirectionDICOM": "COL",
  "InstitutionAddress": "Chemin Queen-Mary 4565,Montreal,District,CA,H3W 1W5",
  "InstitutionName": "IUGM",
  "InstitutionalDepartmentName": "Department",
  "MRAcquisitionType": "2D",
  "MagneticFieldStrength": 3,
  "Manufacturer": "Siemens",
  "ManufacturersModelName": "Prisma_fit",
  "MatrixCoilMode": "SENSE",
  "Modality": "MR",
  "MultibandAccelerationFactor": 4,
  "PartialFourier": 1,
  "PatientPosition": "HFS",
  "PercentPhaseFOV": 100,
  "PercentSampling": 100,
  "PhaseEncodingDirection": "j",
  "PhaseEncodingSteps": 104,
  "PhaseResolution": 1,
  "PixelBandwidth": 2290,
  "ProcedureStepDescription": "video^friends",
  "ProtocolName": "func_task-friends-s06e12b",
  "PulseSequenceDetails": "%CustomerSeq%\\cmrr_mbep2d_bold",
  "ReceiveCoilActiveElements": "HC1-7;NC1,2",
  "ReceiveCoilName": "HeadNeck_64",
  "ReconMatrixPE": 104,
  "RepetitionTime": 1.49,
  "SAR": 0.0639007,
  "ScanOptions": "FS",
  "ScanningSequence": "EP",
  "SequenceName": "epfid2d1_104",
  "SequenceVariant": "SK\\SS",
  "SeriesDescription": "func_task-friends-s06e12b",
  "SeriesNumber": 18,
  "ShimSetting": [630, -7211, -8775, 699, 27, 4, 47, -12],
  "SliceThickness": 2,
  "SliceTiming": [0, 0.785, 0.1, 0.8825, 0.1975, 0.98, 0.295, 1.08, 0.3925, 1.1775, 0.49, 1.275, 0.59, 1.3725, 0.6875, 0, 0.785, 0.1, 0.8825, 0.1975, 0.98, 0.295, 1.08, 0.3925, 1.1775, 0.49, 1.275, 0.59, 1.3725, 0.6875, 0, 0.785, 0.1, 0.8825, 0.1975, 0.98, 0.295, 1.08, 0.3925, 1.1775, 0.49, 1.275, 0.59, 1.3725, 0.6875, 0, 0.785, 0.1, 0.8825, 0.1975, 0.98, 0.295, 1.08, 0.3925, 1.1775, 0.49, 1.275, 0.59, 1.3725, 0.6875],
  "SoftwareVersions": "syngo MR E11",
  "SpacingBetweenSlices": 2,
  "StationName": "MRC35049",
  "TaskName": "s06e12b",
  "TotalReadoutTime": 0.0576811,
  "TxRefAmp": 262.028,
  "WipMemBlock": "3091234a-e5b8-455c-97f6-9c2e1f63a17e||Sequence: R016 ve11c/master r/e634e98; Dec 19 2017 11:00:25 by eja",
  "dcmmeta_affine": [
    [-1.9999744892120361, 0.0066322265192866325, 0.0076173292472958565, 104.7279281616211],
    [0.0044888826087117195, 1.9349033832550049, -0.5060915946960449, -83.55378723144531],
    [0.009047655388712883, 0.5060680508613586, 1.9348936080932617, -57.880245208740234],
    [0.0, 0.0, 0.0, 1.0]
],
  "dcmmeta_reorient_transform": [
    [0.0, -1.0, 0.0, 103.0],
    [1.0, 0.0, 0.0, 0.0],
    [0.0, 0.0, 1.0, 0.0],
    [0.0, 0.0, 0.0, 1.0]
],
  "dcmmeta_shape": [104, 104, 60, 470],
  "dcmmeta_slice_dim": 2,
  "dcmmeta_version": 0.6,
  "global": {
    "const": {
      "AcquisitionMatrix": [104, 0, 0, 104],
      "AngioFlag": "N",
      "BitsAllocated": 16,
      "BitsStored": 16,
      "BodyPartExamined": "BRAIN",
      "Columns": 832,
      "EchoNumbers": 1,
      "EchoTime": 37.0,
      "EchoTrainLength": 104,
      "FlipAngle": 52.0,
      "HighBit": 15,
      "ImageOrientationPatient": [0.99998724865165, -0.0022444413796, 0.0045238276942, 0.00331611327438, 0.96745169420903, -0.2530340347954],
      "ImagePositionPatient": [-835.81589687927, -818.41214027904, 175.16019628769],
      "ImageType": [
        "ORIGINAL",
        "PRIMARY",
        "M",
        "MB",
        "ND",
        "MOSAIC"
],
      "ImagedNucleus": "1H",
      "ImagingFrequency": 123.258845,
      "InPlanePhaseEncodingDirection": "COL",
      "MRAcquisitionType": "2D",
      "MagneticFieldStrength": 3.0,
      "Manufacturer": "SIEMENS",
      "ManufacturerModelName": "Prisma_fit",
      "Modality": "MR",
      "NumberOfAverages": 1.0,
      "NumberOfPhaseEncodingSteps": 104,
      "PercentPhaseFieldOfView": 100.0,
      "PercentSampling": 100.0,
      "PerformedProcedureStepStartTime": "131104.538000",
      "PhotometricInterpretation": "MONOCHROME2",
      "PixelBandwidth": 2290.0,
      "PixelRepresentation": 0,
      "PixelSpacing": [2.0, 2.0],
      "ProtocolName": "func_task-friends-s06e12b",
      "RepetitionTime": 1490.0,
      "Rows": 832,
      "SAR": 0.06390066333354,
      "SamplesPerPixel": 1,
      "ScanOptions": "FS",
      "ScanningSequence": "EP",
      "SequenceName": "epfid2d1_104",
      "SequenceVariant": [
        "SK",
        "SS"
],
      "SeriesDescription": "func_task-friends-s06e12b",
      "SeriesNumber": 18,
      "SeriesTime": "141013.647000",
      "SliceLocation": -34.454248762116,
      "SliceThickness": 2.0,
      "SmallestImagePixelValue": 0,
      "SoftwareVersions": "syngo MR E11",
      "SpacingBetweenSlices": 1.9999999865679,
      "SpecificCharacterSet": "ISO_IR 100",
      "StudyID": "1",
      "StudyTime": "131104.351000",
      "TransmitCoilName": "Body",
      "VariableFlipAngleFlag": "N",
      "WindowCenterWidthExplanation": "Algo1",
      "dBdt": 0.0},
    "slices": {}
  },
  "time": {
    "samples": {
      "AcquisitionNumber": [1, 2, 3, 4, 5, 6, 7, 8, 9, 10, 11, 12, 13, 14, 15, 16, 17, 18, 19, 20, 21, 22, 23, 24, 25, 26, 27, 28, 29, 30, 31, 32, 33, 34, 35, 36, 37, 38, 39, 40, 41, 42, 43, 44, 45, 46, 47, 48, 49, 50, 51, 52, 53, 54, 55, 56, 57, 58, 59, 60, 61, 62, 63, 64, 65, 66, 67, 68, 69, 70, 71, 72, 73, 74, 75, 76, 77, 78, 79, 80, 81, 82, 83, 84, 85, 86, 87, 88, 89, 90, 91, 92, 93, 94, 95, 96, 97, 98, 99, 100, 101, 102, 103, 104, 105, 106, 107, 108, 109, 110, 111, 112, 113, 114, 115, 116, 117, 118, 119, 120, 121, 122, 123, 124, 125, 126, 127, 128, 129, 130, 131, 132, 133, 134, 135, 136, 137, 138, 139, 140, 141, 142, 143, 144, 145, 146, 147, 148, 149, 150, 151, 152, 153, 154, 155, 156, 157, 158, 159, 160, 161, 162, 163, 164, 165, 166, 167, 168, 169, 170, 171, 172, 173, 174, 175, 176, 177, 178, 179, 180, 181, 182, 183, 184, 185, 186, 187, 188, 189, 190, 191, 192, 193, 194, 195, 196, 197, 198, 199, 200, 201, 202, 203, 204, 205, 206, 207, 208, 209, 210, 211, 212, 213, 214, 215, 216, 217, 218, 219, 220, 221, 222, 223, 224, 225, 226, 227, 228, 229, 230, 231, 232, 233, 234, 235, 236, 237, 238, 239, 240, 241, 242, 243, 244, 245, 246, 247, 248, 249, 250, 251, 252, 253, 254, 255, 256, 257, 258, 259, 260, 261, 262, 263, 264, 265, 266, 267, 268, 269, 270, 271, 272, 273, 274, 275, 276, 277, 278, 279, 280, 281, 282, 283, 284, 285, 286, 287, 288, 289, 290, 291, 292, 293, 294, 295, 296, 297, 298, 299, 300, 301, 302, 303, 304, 305, 306, 307, 308, 309, 310, 311, 312, 313, 314, 315, 316, 317, 318, 319, 320, 321, 322, 323, 324, 325, 326, 327, 328, 329, 330, 331, 332, 333, 334, 335, 336, 337, 338, 339, 340, 341, 342, 343, 344, 345, 346, 347, 348, 349, 350, 351, 352, 353, 354, 355, 356, 357, 358, 359, 360, 361, 362, 363, 364, 365, 366, 367, 368, 369, 370, 371, 372, 373, 374, 375, 376, 377, 378, 379, 380, 381, 382, 383, 384, 385, 386, 387, 388, 389, 390, 391, 392, 393, 394, 395, 396, 397, 398, 399, 400, 401, 402, 403, 404, 405, 406, 407, 408, 409, 410, 411, 412, 413, 414, 415, 416, 417, 418, 419, 420, 421, 422, 423, 424, 425, 426, 427, 428, 429, 430, 431, 432, 433, 434, 435, 436, 437, 438, 439, 440, 441, 442, 443, 444, 445, 446, 447, 448, 449, 450, 451, 452, 453, 454, 455, 456, 457, 458, 459, 460, 461, 462, 463, 464, 465, 466, 467, 468, 469, 470],
      "AcquisitionTime": ["140844.617500", "140846.107500", "140847.597500", "140849.087500", "140850.577500", "140852.067500", "140853.557500", "140855.047500", "140856.537500", "140858.027500", "140859.517500", "140901.007500", "140902.497500", "140903.987500", "140905.477500", "140906.967500", "140908.457500", "140909.947500", "140911.437500", "140912.927500", "140914.417500", "140915.907500", "140917.397500", "140918.887500", "140920.377500", "140921.867500", "140923.357500", "140924.847500", "140926.337500", "140927.827500", "140929.317500", "140930.807500", "140932.297500", "140933.787500", "140935.277500", "140936.767500", "140938.257500", "140939.747500", "140941.237500", "140942.727500", "140944.217500", "140945.707500", "140947.197500", "140948.687500", "140950.177500", "140951.667500", "140953.157500", "140954.647500", "140956.137500", "140957.627500", "140959.117500", "141000.607500", "141002.097500", "141003.587500", "141005.077500", "141006.567500", "141008.057500", "141009.547500", "141011.037500", "141012.527500", "141014.017500", "141015.507500", "141016.997500", "141018.487500", "141019.977500", "141021.467500", "141022.957500", "141024.447500", "141025.937500", "141027.427500", "141028.917500", "141030.407500", "141031.897500", "141033.387500", "141034.877500", "141036.367500", "141037.857500", "141039.347500", "141040.837500", "141042.327500", "141043.817500", "141045.307500", "141046.797500", "141048.287500", "141049.777500", "141051.267500", "141052.757500", "141054.247500", "141055.737500", "141057.227500", "141058.717500", "141100.207500", "141101.697500", "141103.187500", "141104.677500", "141106.167500", "141107.657500", "141109.147500", "141110.637500", "141112.127500", "141113.617500", "141115.107500", "141116.597500", "141118.087500", "141119.577500", "141121.067500", "141122.557500", "141124.047500", "141125.537500", "141127.027500", "141128.517500", "141130.007500", "141131.497500", "141132.987500", "141134.477500", "141135.967500", "141137.457500", "141138.947500", "141140.437500", "141141.927500", "141143.417500", "141144.907500", "141146.397500", "141147.887500", "141149.377500", "141150.867500", "141152.357500", "141153.847500", "141155.337500", "141156.827500", "141158.317500", "141159.807500", "141201.297500", "141202.787500", "141204.277500", "141205.767500", "141207.257500", "141208.747500", "141210.237500", "141211.727500", "141213.217500", "141214.707500", "141216.197500", "141217.687500", "141219.177500", "141220.667500", "141222.157500", "141223.647500", "141225.137500", "141226.627500", "141228.117500", "141229.607500", "141231.097500", "141232.587500", "141234.077500", "141235.567500", "141237.057500", "141238.547500", "141240.037500", "141241.527500", "141243.017500", "141244.507500", "141245.997500", "141247.487500", "141248.977500", "141250.467500", "141251.957500", "141253.447500", "141254.937500", "141256.427500", "141257.917500", "141259.407500", "141300.897500", "141302.387500", "141303.877500", "141305.367500", "141306.857500", "141308.347500", "141309.837500", "141311.327500", "141312.817500", "141314.307500", "141315.797500", "141317.287500", "141318.777500", "141320.267500", "141321.757500", "141323.247500", "141324.737500", "141326.227500", "141327.717500", "141329.207500", "141330.697500", "141332.187500", "141333.677500", "141335.167500", "141336.657500", "141338.147500", "141339.637500", "141341.127500", "141342.617500", "141344.107500", "141345.597500", "141347.087500", "141348.577500", "141350.067500", "141351.557500", "141353.047500", "141354.537500", "141356.027500", "141357.517500", "141359.007500", "141400.497500", "141401.987500", "141403.477500", "141404.967500", "141406.457500", "141407.947500", "141409.437500", "141410.927500", "141412.417500", "141413.907500", "141415.397500", "141416.887500", "141418.377500", "141419.867500", "141421.357500", "141422.847500", "141424.337500", "141425.827500", "141427.317500", "141428.807500", "141430.297500", "141431.787500", "141433.277500", "141434.767500", "141436.257500", "141437.747500", "141439.237500", "141440.727500", "141442.217500", "141443.707500", "141445.197500", "141446.687500", "141448.177500", "141449.667500", "141451.157500", "141452.647500", "141454.137500", "141455.627500", "141457.117500", "141458.607500", "141500.097500", "141501.587500", "141503.077500", "141504.567500", "141506.057500", "141507.547500", "141509.037500", "141510.527500", "141512.017500", "141513.507500", "141514.997500", "141516.487500", "141517.977500", "141519.467500", "141520.957500", "141522.447500", "141523.937500", "141525.427500", "141526.917500", "141528.407500", "141529.897500", "141531.387500", "141532.877500", "141534.367500", "141535.857500", "141537.347500", "141538.837500", "141540.327500", "141541.817500", "141543.307500", "141544.797500", "141546.287500", "141547.777500", "141549.267500", "141550.757500", "141552.247500", "141553.737500", "141555.227500", "141556.717500", "141558.207500", "141559.697500", "141601.187500", "141602.677500", "141604.167500", "141605.657500", "141607.147500", "141608.637500", "141610.127500", "141611.617500", "141613.107500", "141614.597500", "141616.087500", "141617.577500", "141619.067500", "141620.557500", "141622.047500", "141623.537500", "141625.027500", "141626.517500", "141628.007500", "141629.497500", "141630.987500", "141632.477500", "141633.967500", "141635.457500", "141636.947500", "141638.437500", "141639.927500", "141641.417500", "141642.907500", "141644.397500", "141645.887500", "141647.377500", "141648.867500", "141650.357500", "141651.847500", "141653.337500", "141654.827500", "141656.317500", "141657.807500", "141659.297500", "141700.787500", "141702.277500", "141703.767500", "141705.257500", "141706.747500", "141708.237500", "141709.727500", "141711.217500", "141712.707500", "141714.197500", "141715.687500", "141717.177500", "141718.667500", "141720.157500", "141721.647500", "141723.137500", "141724.627500", "141726.117500", "141727.607500", "141729.097500", "141730.587500", "141732.077500", "141733.567500", "141735.057500", "141736.547500", "141738.037500", "141739.527500", "141741.017500", "141742.507500", "141743.997500", "141745.487500", "141746.977500", "141748.467500", "141749.957500", "141751.447500", "141752.937500", "141754.427500", "141755.917500", "141757.407500", "141758.897500", "141800.387500", "141801.877500", "141803.367500", "141804.857500", "141806.347500", "141807.837500", "141809.327500", "141810.817500", "141812.307500", "141813.797500", "141815.287500", "141816.777500", "141818.267500", "141819.757500", "141821.247500", "141822.737500", "141824.227500", "141825.717500", "141827.207500", "141828.697500", "141830.187500", "141831.677500", "141833.167500", "141834.657500", "141836.147500", "141837.637500", "141839.127500", "141840.617500", "141842.107500", "141843.597500", "141845.087500", "141846.577500", "141848.067500", "141849.557500", "141851.047500", "141852.537500", "141854.027500", "141855.517500", "141857.007500", "141858.497500", "141859.987500", "141901.477500", "141902.967500", "141904.457500", "141905.947500", "141907.437500", "141908.927500", "141910.417500", "141911.907500", "141913.397500", "141914.887500", "141916.377500", "141917.867500", "141919.357500", "141920.847500", "141922.337500", "141923.827500", "141925.317500", "141926.807500", "141928.297500", "141929.787500", "141931.277500", "141932.767500", "141934.257500", "141935.747500", "141937.237500", "141938.727500", "141940.217500", "141941.707500", "141943.197500", "141944.687500", "141946.177500", "141947.667500", "141949.157500", "141950.647500", "141952.137500", "141953.627500", "141955.117500", "141956.607500", "141958.097500", "141959.587500", "142001.077500", "142002.567500", "142004.057500", "142005.547500", "142007.037500", "142008.527500", "142010.017500", "142011.507500", "142012.997500", "142014.487500", "142015.977500", "142017.467500", "142018.957500", "142020.447500", "142021.937500", "142023.427500"],
      "ContentTime": ["141013.650000", "141013.653000", "141013.656000", "141013.659000", "141013.662000", "141013.665000", "141013.668000", "141013.671000", "141013.674000", "141013.677000", "141013.680000", "141013.682000", "141013.685000", "141013.688000", "141013.691000", "141013.694000", "141013.700000", "141013.702000", "141013.705000", "141013.716000", "141013.719000", "141013.722000", "141013.732000", "141013.735000", "141013.738000", "141013.741000", "141013.744000", "141013.747000", "141013.750000", "141013.753000", "141013.756000", "141013.759000", "141013.762000", "141013.765000", "141033.601000", "141033.604000", "141033.607000", "141033.610000", "141033.613000", "141033.616000", "141033.619000", "141033.622000", "141033.625000", "141033.627000", "141033.631000", "141033.634000", "141033.636000", "141033.639000", "141033.642000", "141033.645000", "141033.648000", "141033.651000", "141033.654000", "141033.657000", "141053.601000", "141053.604000", "141053.607000", "141053.610000", "141053.613000", "141053.616000", "141053.619000", "141053.621000", "141053.624000", "141053.627000", "141053.630000", "141053.633000", "141053.636000", "141053.639000", "141053.642000", "141053.645000", "141053.648000", "141053.650000", "141053.653000", "141053.656000", "141113.602000", "141113.605000", "141113.608000", "141113.611000", "141113.614000", "141113.617000", "141113.620000", "141113.623000", "141113.626000", "141113.629000", "141113.632000", "141113.635000", "141113.638000", "141113.640000", "141113.643000", "141113.646000", "141113.650000", "141113.653000", "141113.656000", "141113.659000", "141153.601000", "141153.604000", "141153.607000", "141153.610000", "141153.613000", "141153.616000", "141153.619000", "141153.622000", "141153.625000", "141153.628000", "141153.631000", "141153.634000", "141153.637000", "141153.639000", "141153.642000", "141153.645000", "141153.648000", "141153.651000", "141153.654000", "141153.657000", "141153.660000", "141153.663000", "141153.666000", "141153.669000", "141153.672000", "141153.675000", "141153.678000", "141153.681000", "141153.684000", "141153.687000", "141153.690000", "141153.693000", "141233.601000", "141233.604000", "141233.607000", "141233.610000", "141233.613000", "141233.616000", "141233.619000", "141233.622000", "141233.625000", "141233.628000", "141233.631000", "141233.634000", "141233.637000", "141233.639000", "141233.642000", "141233.645000", "141233.648000", "141233.651000", "141233.654000", "141233.657000", "141233.660000", "141233.663000", "141233.666000", "141233.677000", "141233.680000", "141233.683000", "141233.686000", "141313.601000", "141313.604000", "141313.607000", "141313.610000", "141313.613000", "141313.616000", "141313.619000", "141313.622000", "141313.625000", "141313.628000", "141313.631000", "141313.634000", "141313.637000", "141313.640000", "141313.643000", "141313.646000", "141313.649000", "141313.652000", "141313.655000", "141313.657000", "141313.661000", "141313.663000", "141313.666000", "141313.669000", "141313.672000", "141313.677000", "141313.686000", "141353.601000", "141353.604000", "141353.607000", "141353.610000", "141353.613000", "141353.616000", "141353.619000", "141353.622000", "141353.625000", "141353.628000", "141353.631000", "141353.634000", "141353.637000", "141353.640000", "141353.643000", "141353.646000", "141353.649000", "141353.652000", "141353.655000", "141353.658000", "141353.675000", "141353.678000", "141353.681000", "141353.684000", "141353.687000", "141353.690000", "141353.693000", "141433.601000", "141433.604000", "141433.610000", "141433.613000", "141433.616000", "141433.618000", "141433.622000", "141433.625000", "141433.627000", "141433.630000", "141433.633000", "141433.636000", "141433.639000", "141433.650000", "141433.653000", "141433.656000", "141433.659000", "141433.662000", "141433.665000", "141433.668000", "141433.671000", "141433.674000", "141433.677000", "141433.680000", "141433.683000", "141433.685000", "141513.601000", "141513.604000", "141513.607000", "141513.610000", "141513.613000", "141513.616000", "141513.619000", "141513.622000", "141513.625000", "141513.628000", "141513.631000", "141513.633000", "141513.636000", "141513.642000", "141513.645000", "141513.648000", "141513.651000", "141513.654000", "141513.666000", "141513.668000", "141513.671000", "141513.674000", "141513.677000", "141513.680000", "141513.683000", "141513.686000", "141513.689000", "141553.602000", "141553.605000", "141553.608000", "141553.611000", "141553.614000", "141553.617000", "141553.620000", "141553.623000", "141553.626000", "141553.629000", "141553.632000", "141553.635000", "141553.638000", "141553.641000", "141553.644000", "141553.647000", "141553.650000", "141553.653000", "141553.656000", "141553.664000", "141553.667000", "141553.671000", "141553.674000", "141553.677000", "141553.680000", "141553.683000", "141553.685000", "141633.601000", "141633.604000", "141633.607000", "141633.617000", "141633.620000", "141633.623000", "141633.626000", "141633.629000", "141633.632000", "141633.635000", "141633.638000", "141633.641000", "141633.644000", "141633.647000", "141633.650000", "141633.653000", "141633.656000", "141633.659000", "141633.662000", "141633.665000", "141633.668000", "141633.671000", "141633.674000", "141633.676000", "141633.680000", "141633.682000", "141633.685000", "141713.601000", "141713.604000", "141713.607000", "141713.610000", "141713.613000", "141713.616000", "141713.619000", "141713.622000", "141713.625000", "141713.628000", "141713.631000", "141713.634000", "141713.637000", "141713.640000", "141713.643000", "141713.652000", "141713.655000", "141713.658000", "141713.661000", "141713.664000", "141713.667000", "141713.670000", "141713.673000", "141713.676000", "141713.679000", "141713.682000", "141713.690000", "141753.601000", "141753.604000", "141753.607000", "141753.610000", "141753.613000", "141753.616000", "141753.619000", "141753.622000", "141753.625000", "141753.628000", "141753.637000", "141753.639000", "141753.642000", "141753.645000", "141753.648000", "141753.651000", "141753.654000", "141753.657000", "141753.660000", "141753.663000", "141753.666000", "141753.669000", "141753.672000", "141753.675000", "141753.678000", "141753.681000", "141753.684000", "141833.601000", "141833.604000", "141833.607000", "141833.610000", "141833.613000", "141833.616000", "141833.619000", "141833.622000", "141833.625000", "141833.628000", "141833.631000", "141833.634000", "141833.637000", "141833.640000", "141833.643000", "141833.646000", "141833.649000", "141833.659000", "141833.662000", "141833.665000", "141833.668000", "141833.671000", "141833.674000", "141833.677000", "141833.680000", "141833.683000", "141913.601000", "141913.604000", "141913.607000", "141913.610000", "141913.613000", "141913.616000", "141913.619000", "141913.622000", "141913.625000", "141913.628000", "141913.631000", "141913.634000", "141913.637000", "141913.640000", "141913.643000", "141913.646000", "141913.649000", "141913.651000", "141913.654000", "141913.668000", "141913.671000", "141913.674000", "141913.677000", "141913.680000", "141913.683000", "141913.686000", "141913.689000", "141953.601000", "141953.604000", "141953.607000", "141953.610000", "141953.613000", "141953.616000", "141953.619000", "141953.626000", "141953.630000", "141953.633000", "141953.636000", "141953.639000", "141953.641000", "141953.645000", "141953.647000", "141953.650000", "141953.653000", "141953.656000", "141953.659000", "141953.662000", "141953.665000", "141953.668000", "141953.671000", "141953.674000", "141953.677000", "141953.686000", "141953.689000", "142025.466000", "142025.469000", "142025.472000", "142025.475000", "142025.478000", "142025.481000", "142025.484000", "142025.487000", "142025.491000", "142025.494000", "142025.497000", "142025.500000", "142025.503000", "142025.506000", "142025.509000", "142025.512000", "142025.515000", "142025.518000", "142025.521000", "142025.524000", "142025.527000", "142025.530000"],
