{
  "AcquisitionMatrixPE": 104,
  "AcquisitionNumber": 1,
  "AcquisitionTime": "10:53:14.855000",
  "BandwidthPerPixelPhaseEncode": 17.17,
  "BaseResolution": 104,
  "BodyPartExamined": "BRAIN",
  "CoilString": "HC1-7;NC1_2",
  "ConsistencyInfo": "N4_VE11C_LATEST_20160120",
  "ConversionSoftware": "dcm2niix",
  "ConversionSoftwareVersion": "v1.0.20190720  (JP2:OpenJPEG) GCC7.3.0",
  "DerivedVendorReportedEchoSpacing": 0.000560011,
  "DeviceSerialNumber": "167006",
  "DwellTime": 2.1e-06,
  "EchoTime": 0.037,
  "EchoTrainLength": 104,
  "EffectiveEchoSpacing": 0.000560011,
  "FlipAngle": 52,
  "ImageComments": "Unaliased_MB4_PE3_LB",
  "ImageOrientationPatientDICOM": [0.999596, -0.0282899, 0.00282482, 0.0277467, 0.949058, -0.313877],
  "ImageType": [
    "ORIGINAL",
    "PRIMARY",
    "M",
    "MB",
    "ND",
    "MOSAIC"
],
  "ImagingFrequency": 123.259,
  "InPlanePhaseEncodingDirectionDICOM": "COL",
  "InstitutionAddress": "Chemin_Queen-Mary_4565_Montreal_District_CA_H3W_1W5",
  "InstitutionName": "IUGM",
  "InstitutionalDepartmentName": "Department",
  "MRAcquisitionType": "2D",
  "MagneticFieldStrength": 3,
  "Manufacturer": "Siemens",
  "ManufacturersModelName": "Prisma_fit",
  "Modality": "MR",
  "MultibandAccelerationFactor": 4,
  "PartialFourier": 1,
  "PatientPosition": "HFS",
  "PercentPhaseFOV": 100,
  "PhaseEncodingDirection": "j",
  "PhaseEncodingSteps": 104,
  "PhaseResolution": 1,
  "PixelBandwidth": 2290,
  "ProcedureStepDescription": "video_friends",
  "ProtocolName": "func_task-friends-s01e07a",
  "PulseSequenceDetails": "%CustomerSeq%_cmrr_mbep2d_bold",
  "ReceiveCoilActiveElements": "HC1-7;NC1,2",
  "ReceiveCoilName": "HeadNeck_64",
  "ReconMatrixPE": 104,
  "RepetitionTime": 1.49,
  "SAR": 0.0302542,
  "ScanOptions": "FS",
  "ScanningSequence": "EP",
  "SequenceName": "epfid2d1_104",
  "SequenceVariant": "SK_SS",
  "SeriesDescription": "func_task-friends-s01e07a",
  "SeriesNumber": 8,
  "ShimSetting": [617, -7195, -8816, 676, 0, 58, 23, 11],
  "SliceThickness": 2,
  "SliceTiming": [0, 0.7825, 0.0975, 0.8825, 0.195, 0.98, 0.2925, 1.0775, 0.3925, 1.175, 0.49, 1.2725, 0.5875, 1.3725, 0.685, 0, 0.7825, 0.0975, 0.8825, 0.195, 0.98, 0.2925, 1.0775, 0.3925, 1.175, 0.49, 1.2725, 0.5875, 1.3725, 0.685, 0, 0.7825, 0.0975, 0.8825, 0.195, 0.98, 0.2925, 1.0775, 0.3925, 1.175, 0.49, 1.2725, 0.5875, 1.3725, 0.685, 0, 0.7825, 0.0975, 0.8825, 0.195, 0.98, 0.2925, 1.0775, 0.3925, 1.175, 0.49, 1.2725, 0.5875, 1.3725, 0.685],
  "SoftwareVersions": "syngo_MR_E11",
  "SpacingBetweenSlices": 2,
  "StationName": "MRC35049",
  "TaskName": "friends",
  "TotalReadoutTime": 0.0576811,
  "TxRefAmp": 209.382,
  "WipMemBlock": "3290ab27-17c2-4ae1-9cbf-dc02c9ad777c||Sequence: R016 ve11c/master r/e634e98; Dec 19 2017 11:00:25 by eja",
  "dcmmeta_affine": [
    [-1.9991915225982666, 0.05549333244562149, -0.012397310696542263, 102.35926818847656],
    [0.05657989904284477, 1.898116111755371, -0.6276574730873108, -82.37008666992188],
    [0.005649634636938572, 0.6277545094490051, 1.898918628692627, -67.58411407470703],
    [0.0, 0.0, 0.0, 1.0]
],
  "dcmmeta_reorient_transform": [
    [0.0, -1.0, 0.0, 103.0],
    [1.0, 0.0, 0.0, 0.0],
    [0.0, 0.0, 1.0, 0.0],
    [0.0, 0.0, 0.0, 1.0]
],
  "dcmmeta_shape": [104, 104, 60, 493],
  "dcmmeta_slice_dim": 2,
  "dcmmeta_version": 0.6,
  "global": {
    "const": {
      "AcquisitionMatrix": [104, 0, 0, 104],
      "AngioFlag": "N",
      "BitsAllocated": 16,
      "BitsStored": 16,
      "BodyPartExamined": "BRAIN",
      "Columns": 832,
      "EchoNumbers": 1,
      "EchoTime": 37.0,
      "EchoTrainLength": 104,
      "FlipAngle": 52.0,
      "HighBit": 15,
      "ImageOrientationPatient": [0.99959576789068, -0.0282899491389, 0.00282481729659, 0.02774666614241, 0.94905805734535, -0.3138772471936],
      "ImagePositionPatient": [-855.98037522357, -783.45505212702, 223.52076510697],
      "ImageType": [
        "ORIGINAL",
        "PRIMARY",
        "M",
        "MB",
        "ND",
        "MOSAIC"
],
      "ImagedNucleus": "1H",
      "ImagingFrequency": 123.259176,
      "InPlanePhaseEncodingDirection": "COL",
      "MRAcquisitionType": "2D",
      "MagneticFieldStrength": 3.0,
      "Manufacturer": "SIEMENS",
      "ManufacturerModelName": "Prisma_fit",
      "Modality": "MR",
      "NumberOfAverages": 1.0,
      "NumberOfPhaseEncodingSteps": 104,
      "PercentPhaseFieldOfView": 100.0,
      "PercentSampling": 100.0,
      "PerformedProcedureStepStartTime": "103534.420000",
      "PhotometricInterpretation": "MONOCHROME2",
      "PixelBandwidth": 2290.0,
      "PixelRepresentation": 0,
      "PixelSpacing": [2.0, 2.0],
      "ProtocolName": "func_task-friends-s01e07a",
      "RepetitionTime": 1490.0,
      "Rows": 832,
      "SAR": 0.03025416126206,
      "SamplesPerPixel": 1,
      "ScanOptions": "FS",
      "ScanningSequence": "EP",
      "SequenceName": "epfid2d1_104",
      "SequenceVariant": [
        "SK",
        "SS"
],
      "SeriesDescription": "func_task-friends-s01e07a",
      "SeriesNumber": 8,
      "SeriesTime": "105440.762000",
      "SliceLocation": -38.952760479449,
      "SliceThickness": 2.0,
      "SmallestImagePixelValue": 0,
      "SoftwareVersions": "syngo MR E11",
      "SpacingBetweenSlices": 1.9999999311766,
      "SpecificCharacterSet": "ISO_IR 100",
      "StudyID": "1",
      "StudyTime": "103534.288000",
      "TransmitCoilName": "Body",
      "VariableFlipAngleFlag": "N",
      "WindowCenterWidthExplanation": "Algo1",
      "dBdt": 0.0},
    "slices": {}
  },
  "time": {
    "samples": {
      "AcquisitionNumber": [1, 2, 3, 4, 5, 6, 7, 8, 9, 10, 11, 12, 13, 14, 15, 16, 17, 18, 19, 20, 21, 22, 23, 24, 25, 26, 27, 28, 29, 30, 31, 32, 33, 34, 35, 36, 37, 38, 39, 40, 41, 42, 43, 44, 45, 46, 47, 48, 49, 50, 51, 52, 53, 54, 55, 56, 57, 58, 59, 60, 61, 62, 63, 64, 65, 66, 67, 68, 69, 70, 71, 72, 73, 74, 75, 76, 77, 78, 79, 80, 81, 82, 83, 84, 85, 86, 87, 88, 89, 90, 91, 92, 93, 94, 95, 96, 97, 98, 99, 100, 101, 102, 103, 104, 105, 106, 107, 108, 109, 110, 111, 112, 113, 114, 115, 116, 117, 118, 119, 120, 121, 122, 123, 124, 125, 126, 127, 128, 129, 130, 131, 132, 133, 134, 135, 136, 137, 138, 139, 140, 141, 142, 143, 144, 145, 146, 147, 148, 149, 150, 151, 152, 153, 154, 155, 156, 157, 158, 159, 160, 161, 162, 163, 164, 165, 166, 167, 168, 169, 170, 171, 172, 173, 174, 175, 176, 177, 178, 179, 180, 181, 182, 183, 184, 185, 186, 187, 188, 189, 190, 191, 192, 193, 194, 195, 196, 197, 198, 199, 200, 201, 202, 203, 204, 205, 206, 207, 208, 209, 210, 211, 212, 213, 214, 215, 216, 217, 218, 219, 220, 221, 222, 223, 224, 225, 226, 227, 228, 229, 230, 231, 232, 233, 234, 235, 236, 237, 238, 239, 240, 241, 242, 243, 244, 245, 246, 247, 248, 249, 250, 251, 252, 253, 254, 255, 256, 257, 258, 259, 260, 261, 262, 263, 264, 265, 266, 267, 268, 269, 270, 271, 272, 273, 274, 275, 276, 277, 278, 279, 280, 281, 282, 283, 284, 285, 286, 287, 288, 289, 290, 291, 292, 293, 294, 295, 296, 297, 298, 299, 300, 301, 302, 303, 304, 305, 306, 307, 308, 309, 310, 311, 312, 313, 314, 315, 316, 317, 318, 319, 320, 321, 322, 323, 324, 325, 326, 327, 328, 329, 330, 331, 332, 333, 334, 335, 336, 337, 338, 339, 340, 341, 342, 343, 344, 345, 346, 347, 348, 349, 350, 351, 352, 353, 354, 355, 356, 357, 358, 359, 360, 361, 362, 363, 364, 365, 366, 367, 368, 369, 370, 371, 372, 373, 374, 375, 376, 377, 378, 379, 380, 381, 382, 383, 384, 385, 386, 387, 388, 389, 390, 391, 392, 393, 394, 395, 396, 397, 398, 399, 400, 401, 402, 403, 404, 405, 406, 407, 408, 409, 410, 411, 412, 413, 414, 415, 416, 417, 418, 419, 420, 421, 422, 423, 424, 425, 426, 427, 428, 429, 430, 431, 432, 433, 434, 435, 436, 437, 438, 439, 440, 441, 442, 443, 444, 445, 446, 447, 448, 449, 450, 451, 452, 453, 454, 455, 456, 457, 458, 459, 460, 461, 462, 463, 464, 465, 466, 467, 468, 469, 470, 471, 472, 473, 474, 475, 476, 477, 478, 479, 480, 481, 482, 483, 484, 485, 486, 487, 488, 489, 490, 491, 492, 493],
      "AcquisitionTime": ["105314.855000", "105316.345000", "105317.835000", "105319.325000", "105320.815000", "105322.305000", "105323.795000", "105325.285000", "105326.775000", "105328.265000", "105329.755000", "105331.245000", "105332.735000", "105334.225000", "105335.715000", "105337.205000", "105338.695000", "105340.185000", "105341.675000", "105343.165000", "105344.655000", "105346.145000", "105347.635000", "105349.125000", "105350.615000", "105352.105000", "105353.595000", "105355.085000", "105356.575000", "105358.065000", "105359.555000", "105401.045000", "105402.535000", "105404.025000", "105405.515000", "105407.005000", "105408.495000", "105409.985000", "105411.475000", "105412.965000", "105414.455000", "105415.945000", "105417.435000", "105418.925000", "105420.415000", "105421.905000", "105423.395000", "105424.885000", "105426.375000", "105427.865000", "105429.355000", "105430.845000", "105432.335000", "105433.825000", "105435.315000", "105436.805000", "105438.295000", "105439.785000", "105441.275000", "105442.765000", "105444.255000", "105445.745000", "105447.235000", "105448.725000", "105450.215000", "105451.705000", "105453.195000", "105454.685000", "105456.175000", "105457.665000", "105459.155000", "105500.645000", "105502.135000", "105503.625000", "105505.115000", "105506.605000", "105508.095000", "105509.585000", "105511.075000", "105512.565000", "105514.055000", "105515.545000", "105517.035000", "105518.525000", "105520.015000", "105521.505000", "105522.995000", "105524.485000", "105525.975000", "105527.465000", "105528.955000", "105530.445000", "105531.935000", "105533.425000", "105534.915000", "105536.405000", "105537.895000", "105539.385000", "105540.875000", "105542.365000", "105543.855000", "105545.345000", "105546.835000", "105548.325000", "105549.815000", "105551.305000", "105552.795000", "105554.285000", "105555.775000", "105557.265000", "105558.755000", "105600.245000", "105601.735000", "105603.225000", "105604.715000", "105606.205000", "105607.695000", "105609.185000", "105610.675000", "105612.165000", "105613.655000", "105615.145000", "105616.635000", "105618.125000", "105619.615000", "105621.105000", "105622.595000", "105624.085000", "105625.575000", "105627.065000", "105628.555000", "105630.045000", "105631.535000", "105633.025000", "105634.515000", "105636.005000", "105637.495000", "105638.985000", "105640.475000", "105641.965000", "105643.455000", "105644.945000", "105646.435000", "105647.925000", "105649.415000", "105650.905000", "105652.395000", "105653.885000", "105655.375000", "105656.865000", "105658.355000", "105659.845000", "105701.335000", "105702.825000", "105704.315000", "105705.805000", "105707.295000", "105708.785000", "105710.275000", "105711.765000", "105713.255000", "105714.745000", "105716.235000", "105717.725000", "105719.215000", "105720.705000", "105722.195000", "105723.685000", "105725.175000", "105726.665000", "105728.155000", "105729.645000", "105731.135000", "105732.625000", "105734.115000", "105735.605000", "105737.095000", "105738.585000", "105740.075000", "105741.565000", "105743.055000", "105744.545000", "105746.035000", "105747.525000", "105749.015000", "105750.505000", "105751.995000", "105753.485000", "105754.975000", "105756.465000", "105757.955000", "105759.445000", "105800.935000", "105802.425000", "105803.915000", "105805.405000", "105806.895000", "105808.385000", "105809.875000", "105811.365000", "105812.855000", "105814.345000", "105815.835000", "105817.325000", "105818.815000", "105820.305000", "105821.795000", "105823.285000", "105824.775000", "105826.265000", "105827.755000", "105829.245000", "105830.735000", "105832.225000", "105833.715000", "105835.205000", "105836.695000", "105838.185000", "105839.675000", "105841.165000", "105842.655000", "105844.145000", "105845.635000", "105847.125000", "105848.615000", "105850.105000", "105851.595000", "105853.085000", "105854.575000", "105856.065000", "105857.555000", "105859.045000", "105900.535000", "105902.025000", "105903.515000", "105905.005000", "105906.495000", "105907.985000", "105909.475000", "105910.965000", "105912.455000", "105913.945000", "105915.435000", "105916.925000", "105918.415000", "105919.905000", "105921.395000", "105922.885000", "105924.375000", "105925.865000", "105927.355000", "105928.845000", "105930.335000", "105931.825000", "105933.315000", "105934.805000", "105936.295000", "105937.785000", "105939.275000", "105940.765000", "105942.255000", "105943.745000", "105945.235000", "105946.725000", "105948.215000", "105949.705000", "105951.195000", "105952.685000", "105954.175000", "105955.665000", "105957.155000", "105958.645000", "110000.135000", "110001.625000", "110003.115000", "110004.605000", "110006.095000", "110007.585000", "110009.075000", "110010.565000", "110012.055000", "110013.545000", "110015.035000", "110016.525000", "110018.015000", "110019.505000", "110020.995000", "110022.485000", "110023.975000", "110025.465000", "110026.955000", "110028.445000", "110029.935000", "110031.425000", "110032.915000", "110034.405000", "110035.895000", "110037.385000", "110038.875000", "110040.365000", "110041.855000", "110043.345000", "110044.835000", "110046.325000", "110047.815000", "110049.305000", "110050.795000", "110052.285000", "110053.775000", "110055.265000", "110056.755000", "110058.245000", "110059.735000", "110101.225000", "110102.715000", "110104.205000", "110105.695000", "110107.185000", "110108.675000", "110110.165000", "110111.655000", "110113.145000", "110114.635000", "110116.125000", "110117.615000", "110119.105000", "110120.595000", "110122.085000", "110123.575000", "110125.065000", "110126.555000", "110128.045000", "110129.535000", "110131.025000", "110132.515000", "110134.005000", "110135.495000", "110136.985000", "110138.475000", "110139.965000", "110141.455000", "110142.945000", "110144.435000", "110145.925000", "110147.415000", "110148.905000", "110150.395000", "110151.885000", "110153.375000", "110154.865000", "110156.355000", "110157.845000", "110159.335000", "110200.825000", "110202.315000", "110203.805000", "110205.295000", "110206.785000", "110208.275000", "110209.765000", "110211.255000", "110212.745000", "110214.235000", "110215.725000", "110217.215000", "110218.705000", "110220.195000", "110221.685000", "110223.175000", "110224.665000", "110226.155000", "110227.645000", "110229.135000", "110230.625000", "110232.115000", "110233.605000", "110235.095000", "110236.585000", "110238.075000", "110239.565000", "110241.055000", "110242.545000", "110244.035000", "110245.525000", "110247.015000", "110248.505000", "110249.995000", "110251.485000", "110252.975000", "110254.465000", "110255.955000", "110257.445000", "110258.935000", "110300.425000", "110301.915000", "110303.405000", "110304.895000", "110306.385000", "110307.875000", "110309.365000", "110310.855000", "110312.345000", "110313.835000", "110315.325000", "110316.815000", "110318.305000", "110319.795000", "110321.285000", "110322.775000", "110324.265000", "110325.755000", "110327.245000", "110328.735000", "110330.225000", "110331.715000", "110333.205000", "110334.695000", "110336.185000", "110337.675000", "110339.165000", "110340.655000", "110342.145000", "110343.635000", "110345.125000", "110346.615000", "110348.105000", "110349.595000", "110351.085000", "110352.575000", "110354.065000", "110355.555000", "110357.045000", "110358.535000", "110400.025000", "110401.515000", "110403.005000", "110404.495000", "110405.985000", "110407.475000", "110408.965000", "110410.455000", "110411.945000", "110413.435000", "110414.925000", "110416.415000", "110417.905000", "110419.395000", "110420.885000", "110422.375000", "110423.865000", "110425.355000", "110426.845000", "110428.335000", "110429.825000", "110431.315000", "110432.805000", "110434.295000", "110435.785000", "110437.275000", "110438.765000", "110440.255000", "110441.745000", "110443.235000", "110444.725000", "110446.215000", "110447.705000", "110449.195000", "110450.685000", "110452.175000", "110453.665000", "110455.155000", "110456.645000", "110458.135000", "110459.625000", "110501.115000", "110502.605000", "110504.095000", "110505.585000", "110507.075000", "110508.565000", "110510.055000", "110511.545000", "110513.035000", "110514.525000", "110516.015000", "110517.505000", "110518.995000", "110520.485000", "110521.975000", "110523.465000", "110524.955000", "110526.445000", "110527.935000"],
      "ContentTime": ["105440.765000", "105440.769000", "105440.772000", "105440.775000", "105440.778000", "105440.781000", "105440.784000", "105440.787000", "105440.790000", "105440.793000", "105440.796000", "105440.799000", "105440.802000", "105440.808000", "105440.811000", "105440.814000", "105440.817000", "105440.820000", "105440.823000", "105440.825000", "105440.828000", "105440.831000", "105440.834000", "105440.837000", "105440.840000", "105440.843000", "105440.846000", "105440.849000", "105440.852000", "105440.855000", "105440.858000", "105500.726000", "105500.729000", "105500.732000", "105500.735000", "105500.738000", "105500.741000", "105500.745000", "105500.748000", "105500.751000", "105500.754000", "105500.777000", "105500.780000", "105500.783000", "105500.786000", "105500.789000", "105500.792000", "105500.795000", "105500.798000", "105500.801000", "105500.803000", "105520.726000", "105520.730000", "105520.733000", "105520.736000", "105520.739000", "105520.742000", "105520.745000", "105520.748000", "105520.751000", "105520.762000", "105520.765000", "105520.768000", "105520.771000", "105520.779000", "105520.782000", "105520.785000", "105520.788000", "105520.791000", "105520.794000", "105520.797000", "105540.726000", "105540.729000", "105540.732000", "105540.735000", "105540.738000", "105540.741000", "105540.744000", "105540.747000", "105540.749000", "105540.752000", "105540.755000", "105540.758000", "105540.761000", "105540.764000", "105540.767000", "105540.770000", "105540.773000", "105540.776000", "105540.778000", "105540.781000", "105540.784000", "105620.726000", "105620.729000", "105620.732000", "105620.735000", "105620.738000", "105620.741000", "105620.748000", "105620.751000", "105620.754000", "105620.757000", "105620.760000", "105620.763000", "105620.766000", "105620.769000", "105620.772000", "105620.775000", "105620.777000", "105620.780000", "105620.783000", "105620.786000", "105620.789000", "105620.792000", "105620.795000", "105620.798000", "105620.801000", "105620.804000", "105620.807000", "105620.810000", "105620.813000", "105620.816000", "105620.819000", "105620.822000", "105700.726000", "105700.729000", "105700.736000", "105700.739000", "105700.741000", "105700.756000", "105700.759000", "105700.762000", "105700.765000", "105700.768000", "105700.771000", "105700.774000", "105700.777000", "105700.780000", "105700.783000", "105700.786000", "105700.789000", "105700.792000", "105700.795000", "105700.798000", "105700.801000", "105700.804000", "105700.807000", "105700.810000", "105700.812000", "105700.815000", "105700.818000", "105740.726000", "105740.729000", "105740.732000", "105740.735000", "105740.738000", "105740.741000", "105740.744000", "105740.747000", "105740.750000", "105740.752000", "105740.755000", "105740.758000", "105740.761000", "105740.764000", "105740.778000", "105740.780000", "105740.783000", "105740.786000", "105740.789000", "105740.792000", "105740.795000", "105740.798000", "105740.801000", "105740.804000", "105740.807000", "105740.809000", "105820.726000", "105820.729000", "105820.732000", "105820.735000", "105820.738000", "105820.741000", "105820.744000", "105820.747000", "105820.749000", "105820.752000", "105820.755000", "105820.758000", "105820.761000", "105820.764000", "105820.767000", "105820.770000", "105820.773000", "105820.776000", "105820.779000", "105820.782000", "105820.785000", "105820.787000", "105820.790000", "105820.793000", "105820.796000", "105820.799000", "105820.802000", "105900.726000", "105900.729000", "105900.732000", "105900.735000", "105900.738000", "105900.741000", "105900.744000", "105900.747000", "105900.750000", "105900.754000", "105900.757000", "105900.759000", "105900.762000", "105900.765000", "105900.768000", "105900.771000", "105900.774000", "105900.777000", "105900.780000", "105900.783000", "105900.786000", "105900.789000", "105900.792000", "105900.794000", "105900.797000", "105900.800000", "105900.803000", "105940.726000", "105940.729000", "105940.732000", "105940.735000", "105940.738000", "105940.741000", "105940.744000", "105940.747000", "105940.750000", "105940.753000", "105940.756000", "105940.759000", "105940.762000", "105940.765000", "105940.767000", "105940.770000", "105940.773000", "105940.776000", "105940.779000", "105940.782000", "105940.785000", "105940.788000", "105940.791000", "105940.794000", "105940.796000", "105940.799000", "105940.802000", "110020.726000", "110020.729000", "110020.732000", "110020.735000", "110020.738000", "110020.741000", "110020.744000", "110020.747000", "110020.750000", "110020.753000", "110020.756000", "110020.759000", "110020.762000", "110020.764000", "110020.768000", "110020.771000", "110020.774000", "110020.777000", "110020.780000", "110020.783000", "110020.786000", "110020.789000", "110020.792000", "110020.795000", "110020.797000", "110020.800000", "110020.803000", "110100.726000", "110100.729000", "110100.732000", "110100.735000", "110100.738000", "110100.741000", "110100.744000", "110100.747000", "110100.750000", "110100.753000", "110100.756000", "110100.759000", "110100.762000", "110100.765000", "110100.768000", "110100.771000", "110100.773000", "110100.776000", "110100.779000", "110100.782000", "110100.785000", "110100.788000", "110100.791000", "110100.794000", "110100.796000", "110100.799000", "110100.802000", "110140.726000", "110140.729000", "110140.732000", "110140.735000", "110140.738000", "110140.741000", "110140.744000", "110140.747000", "110140.750000", "110140.753000", "110140.756000", "110140.759000", "110140.762000", "110140.764000", "110140.779000", "110140.782000", "110140.784000", "110140.787000", "110140.790000", "110140.793000", "110140.796000", "110140.799000", "110140.802000", "110140.805000", "110140.808000", "110140.810000", "110220.726000", "110220.729000", "110220.739000", "110220.741000", "110220.744000", "110220.747000", "110220.750000", "110220.753000", "110220.756000", "110220.759000", "110220.762000", "110220.765000", "110220.768000", "110220.771000", "110220.774000", "110220.777000", "110220.780000", "110220.783000", "110220.785000", "110220.788000", "110220.791000", "110220.794000", "110220.797000", "110220.800000", "110220.803000", "110220.806000", "110220.809000", "110300.726000", "110300.729000", "110300.732000", "110300.735000", "110300.738000", "110300.741000", "110300.744000", "110300.747000", "110300.750000", "110300.753000", "110300.756000", "110300.759000", "110300.761000", "110300.765000", "110300.768000", "110300.770000", "110300.773000", "110300.776000", "110300.779000", "110300.782000", "110300.785000", "110300.788000", "110300.791000", "110300.794000", "110300.797000", "110300.800000", "110300.803000", "110340.726000", "110340.729000", "110340.732000", "110340.735000", "110340.738000", "110340.741000", "110340.744000", "110340.754000", "110340.757000", "110340.759000", "110340.762000", "110340.765000", "110340.768000", "110340.771000", "110340.774000", "110340.777000", "110340.780000", "110340.783000", "110340.786000", "110340.789000", "110340.792000", "110340.795000", "110340.798000", "110340.801000", "110340.804000", "110340.807000", "110340.810000", "110420.726000", "110420.729000", "110420.732000", "110420.735000", "110420.738000", "110420.741000", "110420.744000", "110420.747000", "110420.750000", "110420.753000", "110420.756000", "110420.759000", "110420.762000", "110420.764000", "110420.767000", "110420.770000", "110420.773000", "110420.776000", "110420.779000", "110420.782000", "110420.785000", "110420.788000", "110420.791000", "110420.793000", "110420.796000", "110420.799000", "110420.802000", "110500.726000", "110500.729000", "110500.732000", "110500.735000", "110500.738000", "110500.741000", "110500.744000", "110500.747000", "110500.750000", "110500.753000", "110500.756000", "110500.759000", "110500.762000", "110500.764000", "110500.767000", "110500.770000", "110500.773000", "110500.776000", "110500.779000", "110500.782000", "110500.785000", "110500.794000", "110500.797000", "110500.800000", "110500.803000", "110500.806000", "110500.809000", "110530.238000", "110530.241000", "110530.244000", "110530.247000", "110530.251000", "110530.254000", "110530.257000", "110530.260000", "110530.263000", "110530.266000", "110530.269000", "110530.272000", "110530.275000", "110530.278000", "110530.281000", "110530.284000", "110530.287000", "110530.290000", "110530.294000", "110530.297000"],
