{
  "AcquisitionMatrixPE": 104,
  "AcquisitionNumber": 1,
  "AcquisitionTime": "11:25:7.332500",
  "BandwidthPerPixelPhaseEncode": 17.17,
  "BaseResolution": 104,
  "BodyPartExamined": "BRAIN",
  "CoilString": "HC1-7;NC1_2",
  "ConsistencyInfo": "N4_VE11C_LATEST_20160120",
  "ConversionSoftware": "dcm2niix",
  "ConversionSoftwareVersion": "v1.0.20190902",
  "DerivedVendorReportedEchoSpacing": 0.000560011,
  "DeviceSerialNumber": "167006",
  "DwellTime": 2.1e-06,
  "EchoTime": 0.037,
  "EchoTrainLength": 104,
  "EffectiveEchoSpacing": 0.000560011,
  "FlipAngle": 52,
  "ImageComments": "Unaliased_MB4_PE3_LB",
  "ImageOrientationPatientDICOM": [0.997446, 0.00187933, -0.0714009, -0.0177588, 0.974788, -0.222427],
  "ImageType": [
    "ORIGINAL",
    "PRIMARY",
    "M",
    "MB",
    "ND",
    "MOSAIC"
],
  "ImagingFrequency": 123.259,
  "InPlanePhaseEncodingDirectionDICOM": "COL",
  "InstitutionAddress": "Chemin_Queen-Mary_4565_Montreal_District_CA_H3W_1W5",
  "InstitutionName": "IUGM",
  "InstitutionalDepartmentName": "Department",
  "MRAcquisitionType": "2D",
  "MagneticFieldStrength": 3,
  "Manufacturer": "Siemens",
  "ManufacturersModelName": "Prisma_fit",
  "Modality": "MR",
  "MultibandAccelerationFactor": 4,
  "PartialFourier": 1,
  "PatientPosition": "HFS",
  "PercentPhaseFOV": 100,
  "PhaseEncodingDirection": "j",
  "PhaseEncodingSteps": 104,
  "PhaseResolution": 1,
  "PixelBandwidth": 2290,
  "ProcedureStepDescription": "video_friends",
  "ProtocolName": "func_task-friends-s04e21b",
  "PulseSequenceDetails": "%CustomerSeq%_cmrr_mbep2d_bold",
  "ReceiveCoilActiveElements": "HC1-7;NC1,2",
  "ReceiveCoilName": "HeadNeck_64",
  "ReconMatrixPE": 104,
  "RepetitionTime": 1.49,
  "SAR": 0.0292215,
  "ScanOptions": "FS",
  "ScanningSequence": "EP",
  "SequenceName": "epfid2d1_104",
  "SequenceVariant": "SK_SS",
  "SeriesDescription": "func_task-friends-s04e21b",
  "SeriesNumber": 15,
  "ShimSetting": [603, -7248, -8840, 612, -45, -268, 52, 36],
  "SliceThickness": 2,
  "SliceTiming": [0, 0.7825, 0.0975, 0.8825, 0.195, 0.98, 0.2925, 1.0775, 0.3925, 1.175, 0.49, 1.2725, 0.5875, 1.3725, 0.685, 0, 0.7825, 0.0975, 0.8825, 0.195, 0.98, 0.2925, 1.0775, 0.3925, 1.175, 0.49, 1.2725, 0.5875, 1.3725, 0.685, 0, 0.7825, 0.0975, 0.8825, 0.195, 0.98, 0.2925, 1.0775, 0.3925, 1.175, 0.49, 1.2725, 0.5875, 1.3725, 0.685, 0, 0.7825, 0.0975, 0.8825, 0.195, 0.98, 0.2925, 1.0775, 0.3925, 1.175, 0.49, 1.2725, 0.5875, 1.3725, 0.685],
  "SoftwareVersions": "syngo_MR_E11",
  "SpacingBetweenSlices": 2,
  "StationName": "MRC35049",
  "TaskName": "s04e21b",
  "TotalReadoutTime": 0.0576811,
  "TxRefAmp": 217.564,
  "WipMemBlock": "62dfe235-91e1-42cd-b3b0-33181b2753b4||Sequence: R016 ve11c/master r/e634e98; Dec 19 2017 11:00:25 by eja",
  "dcmmeta_affine": [
    [-1.994891881942749, -0.03551759198307991, -0.1383654624223709, 103.13956451416016],
    [-0.0037586612161248922, 1.9495751857757568, -0.4462537169456482, -83.225341796875],
    [-0.14280186593532562, 0.44485390186309814, 1.9446626901626587, -50.281532287597656],
    [0.0, 0.0, 0.0, 1.0]
],
  "dcmmeta_reorient_transform": [
    [0.0, -1.0, 0.0, 103.0],
    [1.0, 0.0, 0.0, 0.0],
    [0.0, 0.0, 1.0, 0.0],
    [0.0, 0.0, 0.0, 1.0]
],
  "dcmmeta_shape": [104, 104, 60, 448],
  "dcmmeta_slice_dim": 2,
  "dcmmeta_version": 0.6,
  "global": {
    "const": {
      "AcquisitionMatrix": [104, 0, 0, 104],
      "AngioFlag": "N",
      "BitsAllocated": 16,
      "BitsStored": 16,
      "BodyPartExamined": "BRAIN",
      "Columns": 832,
      "EchoNumbers": 1,
      "EchoTime": 37.0,
      "EchoTrainLength": 104,
      "FlipAngle": 52.0,
      "HighBit": 15,
      "ImageOrientationPatient": [0.99744592602468, 0.00187933061664, -0.0714009297783, -0.0177587965697, 0.97478760593723, -0.2224269508301],
      "ImagePositionPatient": [-812.69347913823, -828.59443668401, 209.44511664299],
      "ImageType": [
        "ORIGINAL",
        "PRIMARY",
        "M",
        "MB",
        "ND",
        "MOSAIC"
],
      "ImagedNucleus": "1H",
      "ImagingFrequency": 123.25903,
      "InPlanePhaseEncodingDirection": "COL",
      "MRAcquisitionType": "2D",
      "MagneticFieldStrength": 3.0,
      "Manufacturer": "SIEMENS",
      "ManufacturerModelName": "Prisma_fit",
      "Modality": "MR",
      "NumberOfAverages": 1.0,
      "NumberOfPhaseEncodingSteps": 104,
      "PercentPhaseFieldOfView": 100.0,
      "PercentSampling": 100.0,
      "PerformedProcedureStepStartTime": "092013.375000",
      "PhotometricInterpretation": "MONOCHROME2",
      "PixelBandwidth": 2290.0,
      "PixelRepresentation": 0,
      "PixelSpacing": [2.0, 2.0],
      "ProtocolName": "func_task-friends-s04e21b",
      "RepetitionTime": 1490.0,
      "Rows": 832,
      "SAR": 0.029221510622,
      "SamplesPerPixel": 1,
      "ScanOptions": "FS",
      "ScanningSequence": "EP",
      "SequenceName": "epfid2d1_104",
      "SequenceVariant": [
        "SK",
        "SS"
],
      "SeriesDescription": "func_task-friends-s04e21b",
      "SeriesNumber": 15,
      "SeriesTime": "112639.637000",
      "SliceLocation": -37.455975892155,
      "SliceThickness": 2.0,
      "SmallestImagePixelValue": 0,
      "SoftwareVersions": "syngo MR E11",
      "SpacingBetweenSlices": 2.0000000422044,
      "SpecificCharacterSet": "ISO_IR 100",
      "StudyID": "1",
      "StudyTime": "092013.273000",
      "TransmitCoilName": "Body",
      "VariableFlipAngleFlag": "N",
      "WindowCenterWidthExplanation": "Algo1",
      "dBdt": 0.0},
    "slices": {}
  },
  "time": {
    "samples": {
      "AcquisitionNumber": [1, 2, 3, 4, 5, 6, 7, 8, 9, 10, 11, 12, 13, 14, 15, 16, 17, 18, 19, 20, 21, 22, 23, 24, 25, 26, 27, 28, 29, 30, 31, 32, 33, 34, 35, 36, 37, 38, 39, 40, 41, 42, 43, 44, 45, 46, 47, 48, 49, 50, 51, 52, 53, 54, 55, 56, 57, 58, 59, 60, 61, 62, 63, 64, 65, 66, 67, 68, 69, 70, 71, 72, 73, 74, 75, 76, 77, 78, 79, 80, 81, 82, 83, 84, 85, 86, 87, 88, 89, 90, 91, 92, 93, 94, 95, 96, 97, 98, 99, 100, 101, 102, 103, 104, 105, 106, 107, 108, 109, 110, 111, 112, 113, 114, 115, 116, 117, 118, 119, 120, 121, 122, 123, 124, 125, 126, 127, 128, 129, 130, 131, 132, 133, 134, 135, 136, 137, 138, 139, 140, 141, 142, 143, 144, 145, 146, 147, 148, 149, 150, 151, 152, 153, 154, 155, 156, 157, 158, 159, 160, 161, 162, 163, 164, 165, 166, 167, 168, 169, 170, 171, 172, 173, 174, 175, 176, 177, 178, 179, 180, 181, 182, 183, 184, 185, 186, 187, 188, 189, 190, 191, 192, 193, 194, 195, 196, 197, 198, 199, 200, 201, 202, 203, 204, 205, 206, 207, 208, 209, 210, 211, 212, 213, 214, 215, 216, 217, 218, 219, 220, 221, 222, 223, 224, 225, 226, 227, 228, 229, 230, 231, 232, 233, 234, 235, 236, 237, 238, 239, 240, 241, 242, 243, 244, 245, 246, 247, 248, 249, 250, 251, 252, 253, 254, 255, 256, 257, 258, 259, 260, 261, 262, 263, 264, 265, 266, 267, 268, 269, 270, 271, 272, 273, 274, 275, 276, 277, 278, 279, 280, 281, 282, 283, 284, 285, 286, 287, 288, 289, 290, 291, 292, 293, 294, 295, 296, 297, 298, 299, 300, 301, 302, 303, 304, 305, 306, 307, 308, 309, 310, 311, 312, 313, 314, 315, 316, 317, 318, 319, 320, 321, 322, 323, 324, 325, 326, 327, 328, 329, 330, 331, 332, 333, 334, 335, 336, 337, 338, 339, 340, 341, 342, 343, 344, 345, 346, 347, 348, 349, 350, 351, 352, 353, 354, 355, 356, 357, 358, 359, 360, 361, 362, 363, 364, 365, 366, 367, 368, 369, 370, 371, 372, 373, 374, 375, 376, 377, 378, 379, 380, 381, 382, 383, 384, 385, 386, 387, 388, 389, 390, 391, 392, 393, 394, 395, 396, 397, 398, 399, 400, 401, 402, 403, 404, 405, 406, 407, 408, 409, 410, 411, 412, 413, 414, 415, 416, 417, 418, 419, 420, 421, 422, 423, 424, 425, 426, 427, 428, 429, 430, 431, 432, 433, 434, 435, 436, 437, 438, 439, 440, 441, 442, 443, 444, 445, 446, 447, 448],
      "AcquisitionTime": ["112507.332500", "112508.822500", "112510.312500", "112511.802500", "112513.292500", "112514.782500", "112516.272500", "112517.762500", "112519.252500", "112520.742500", "112522.232500", "112523.722500", "112525.212500", "112526.702500", "112528.192500", "112529.682500", "112531.172500", "112532.662500", "112534.152500", "112535.642500", "112537.132500", "112538.622500", "112540.112500", "112541.602500", "112543.092500", "112544.582500", "112546.072500", "112547.562500", "112549.052500", "112550.542500", "112552.032500", "112553.522500", "112555.012500", "112556.502500", "112557.992500", "112559.482500", "112600.972500", "112602.462500", "112603.952500", "112605.442500", "112606.932500", "112608.422500", "112609.912500", "112611.402500", "112612.892500", "112614.382500", "112615.872500", "112617.362500", "112618.852500", "112620.342500", "112621.832500", "112623.322500", "112624.812500", "112626.302500", "112627.792500", "112629.282500", "112630.772500", "112632.262500", "112633.752500", "112635.242500", "112636.732500", "112638.222500", "112639.712500", "112641.202500", "112642.692500", "112644.182500", "112645.672500", "112647.162500", "112648.652500", "112650.142500", "112651.632500", "112653.122500", "112654.612500", "112656.102500", "112657.592500", "112659.082500", "112700.572500", "112702.062500", "112703.552500", "112705.042500", "112706.532500", "112708.022500", "112709.512500", "112711.002500", "112712.492500", "112713.982500", "112715.472500", "112716.962500", "112718.452500", "112719.942500", "112721.432500", "112722.922500", "112724.412500", "112725.902500", "112727.392500", "112728.882500", "112730.372500", "112731.862500", "112733.352500", "112734.842500", "112736.332500", "112737.822500", "112739.312500", "112740.802500", "112742.292500", "112743.782500", "112745.272500", "112746.762500", "112748.252500", "112749.742500", "112751.232500", "112752.722500", "112754.212500", "112755.702500", "112757.192500", "112758.682500", "112800.172500", "112801.662500", "112803.152500", "112804.642500", "112806.132500", "112807.622500", "112809.112500", "112810.602500", "112812.092500", "112813.582500", "112815.072500", "112816.562500", "112818.052500", "112819.542500", "112821.032500", "112822.522500", "112824.012500", "112825.502500", "112826.992500", "112828.482500", "112829.972500", "112831.462500", "112832.952500", "112834.442500", "112835.932500", "112837.422500", "112838.912500", "112840.402500", "112841.892500", "112843.382500", "112844.872500", "112846.362500", "112847.852500", "112849.342500", "112850.832500", "112852.322500", "112853.812500", "112855.302500", "112856.792500", "112858.282500", "112859.772500", "112901.262500", "112902.752500", "112904.242500", "112905.732500", "112907.222500", "112908.712500", "112910.202500", "112911.692500", "112913.182500", "112914.672500", "112916.162500", "112917.652500", "112919.142500", "112920.632500", "112922.122500", "112923.612500", "112925.102500", "112926.592500", "112928.082500", "112929.572500", "112931.062500", "112932.552500", "112934.042500", "112935.532500", "112937.022500", "112938.512500", "112940.002500", "112941.492500", "112942.982500", "112944.472500", "112945.962500", "112947.452500", "112948.942500", "112950.432500", "112951.922500", "112953.412500", "112954.902500", "112956.392500", "112957.882500", "112959.372500", "113000.862500", "113002.352500", "113003.842500", "113005.332500", "113006.822500", "113008.312500", "113009.802500", "113011.292500", "113012.782500", "113014.272500", "113015.762500", "113017.252500", "113018.742500", "113020.232500", "113021.722500", "113023.212500", "113024.702500", "113026.192500", "113027.682500", "113029.172500", "113030.662500", "113032.152500", "113033.642500", "113035.132500", "113036.622500", "113038.112500", "113039.602500", "113041.092500", "113042.582500", "113044.072500", "113045.562500", "113047.052500", "113048.542500", "113050.032500", "113051.522500", "113053.012500", "113054.502500", "113055.992500", "113057.482500", "113058.972500", "113100.462500", "113101.952500", "113103.442500", "113104.932500", "113106.422500", "113107.912500", "113109.402500", "113110.892500", "113112.382500", "113113.872500", "113115.362500", "113116.852500", "113118.342500", "113119.832500", "113121.322500", "113122.812500", "113124.302500", "113125.792500", "113127.282500", "113128.772500", "113130.262500", "113131.752500", "113133.242500", "113134.732500", "113136.222500", "113137.712500", "113139.202500", "113140.692500", "113142.182500", "113143.672500", "113145.162500", "113146.652500", "113148.142500", "113149.632500", "113151.122500", "113152.612500", "113154.102500", "113155.592500", "113157.082500", "113158.572500", "113200.062500", "113201.552500", "113203.042500", "113204.532500", "113206.022500", "113207.512500", "113209.002500", "113210.492500", "113211.982500", "113213.472500", "113214.962500", "113216.452500", "113217.942500", "113219.432500", "113220.922500", "113222.412500", "113223.902500", "113225.392500", "113226.882500", "113228.372500", "113229.862500", "113231.352500", "113232.842500", "113234.332500", "113235.822500", "113237.312500", "113238.802500", "113240.292500", "113241.782500", "113243.272500", "113244.762500", "113246.252500", "113247.742500", "113249.232500", "113250.722500", "113252.212500", "113253.702500", "113255.192500", "113256.682500", "113258.172500", "113259.662500", "113301.152500", "113302.642500", "113304.132500", "113305.622500", "113307.112500", "113308.602500", "113310.092500", "113311.582500", "113313.072500", "113314.562500", "113316.052500", "113317.542500", "113319.032500", "113320.522500", "113322.012500", "113323.502500", "113324.992500", "113326.482500", "113327.972500", "113329.462500", "113330.952500", "113332.442500", "113333.932500", "113335.422500", "113336.912500", "113338.402500", "113339.892500", "113341.382500", "113342.872500", "113344.362500", "113345.852500", "113347.342500", "113348.832500", "113350.322500", "113351.812500", "113353.302500", "113354.792500", "113356.282500", "113357.772500", "113359.262500", "113400.752500", "113402.242500", "113403.732500", "113405.222500", "113406.712500", "113408.202500", "113409.692500", "113411.182500", "113412.672500", "113414.162500", "113415.652500", "113417.142500", "113418.632500", "113420.122500", "113421.612500", "113423.102500", "113424.592500", "113426.082500", "113427.572500", "113429.062500", "113430.552500", "113432.042500", "113433.532500", "113435.022500", "113436.512500", "113438.002500", "113439.492500", "113440.982500", "113442.472500", "113443.962500", "113445.452500", "113446.942500", "113448.432500", "113449.922500", "113451.412500", "113452.902500", "113454.392500", "113455.882500", "113457.372500", "113458.862500", "113500.352500", "113501.842500", "113503.332500", "113504.822500", "113506.312500", "113507.802500", "113509.292500", "113510.782500", "113512.272500", "113513.762500", "113515.252500", "113516.742500", "113518.232500", "113519.722500", "113521.212500", "113522.702500", "113524.192500", "113525.682500", "113527.172500", "113528.662500", "113530.152500", "113531.642500", "113533.132500", "113534.622500", "113536.112500", "113537.602500", "113539.092500", "113540.582500", "113542.072500", "113543.562500", "113545.052500", "113546.542500", "113548.032500", "113549.522500", "113551.012500", "113552.502500", "113553.992500", "113555.482500", "113556.972500", "113558.462500", "113559.952500", "113601.442500", "113602.932500", "113604.422500", "113605.912500", "113607.402500", "113608.892500", "113610.382500", "113611.872500", "113613.362500"],
      "ContentTime": ["112639.640000", "112639.643000", "112639.646000", "112639.649000", "112639.652000", "112639.655000", "112639.658000", "112639.661000", "112639.664000", "112639.666000", "112639.674000", "112639.676000", "112639.679000", "112639.682000", "112639.685000", "112639.688000", "112639.691000", "112639.693000", "112639.696000", "112639.699000", "112639.702000", "112639.705000", "112639.708000", "112639.711000", "112639.713000", "112639.716000", "112639.719000", "112639.722000", "112639.725000", "112639.728000", "112639.731000", "112639.734000", "112639.736000", "112639.739000", "112639.742000", "112639.745000", "112639.748000", "112639.751000", "112639.754000", "112659.590000", "112659.593000", "112659.596000", "112659.599000", "112659.602000", "112659.604000", "112659.607000", "112659.610000", "112659.613000", "112659.616000", "112659.619000", "112659.621000", "112659.624000", "112659.632000", "112659.635000", "112659.638000", "112659.641000", "112659.644000", "112659.647000", "112659.650000", "112719.590000", "112719.593000", "112719.596000", "112719.599000", "112719.601000", "112719.604000", "112719.607000", "112719.610000", "112719.613000", "112719.616000", "112719.619000", "112719.622000", "112719.624000", "112719.627000", "112719.630000", "112719.633000", "112719.636000", "112719.639000", "112719.642000", "112719.644000", "112739.590000", "112739.593000", "112739.596000", "112739.599000", "112739.602000", "112739.609000", "112739.612000", "112739.615000", "112739.618000", "112739.620000", "112739.624000", "112739.626000", "112739.629000", "112739.632000", "112739.635000", "112739.638000", "112739.641000", "112739.644000", "112739.646000", "112739.649000", "112819.591000", "112819.594000", "112819.597000", "112819.600000", "112819.603000", "112819.605000", "112819.608000", "112819.611000", "112819.614000", "112819.617000", "112819.620000", "112819.623000", "112819.626000", "112819.629000", "112819.631000", "112819.634000", "112819.637000", "112819.640000", "112819.643000", "112819.646000", "112819.649000", "112819.652000", "112819.655000", "112819.658000", "112819.661000", "112819.663000", "112819.666000", "112819.669000", "112819.672000", "112839.591000", "112839.595000", "112839.598000", "112839.601000", "112839.604000", "112839.607000", "112839.610000", "112839.613000", "112839.616000", "112839.619000", "112839.621000", "112839.624000", "112839.627000", "112919.590000", "112919.593000", "112919.596000", "112919.599000", "112919.602000", "112919.605000", "112919.608000", "112919.610000", "112919.613000", "112919.616000", "112919.619000", "112919.622000", "112919.625000", "112919.628000", "112919.631000", "112919.633000", "112919.636000", "112919.639000", "112919.642000", "112919.645000", "112919.648000", "112919.651000", "112919.654000", "112919.656000", "112919.659000", "112919.662000", "112919.665000", "112959.590000", "112959.593000", "112959.596000", "112959.599000", "112959.602000", "112959.605000", "112959.608000", "112959.610000", "112959.613000", "112959.616000", "112959.619000", "112959.622000", "112959.625000", "112959.628000", "112959.630000", "112959.633000", "112959.636000", "112959.639000", "112959.642000", "112959.645000", "112959.648000", "112959.651000", "112959.654000", "112959.657000", "112959.659000", "112959.662000", "112959.665000", "113039.591000", "113039.594000", "113039.597000", "113039.600000", "113039.603000", "113039.618000", "113039.621000", "113039.624000", "113039.627000", "113039.630000", "113039.633000", "113039.636000", "113039.639000", "113039.641000", "113039.644000", "113039.647000", "113039.650000", "113039.653000", "113039.656000", "113039.659000", "113039.662000", "113039.665000", "113039.667000", "113039.670000", "113039.673000", "113039.676000", "113039.679000", "113119.592000", "113119.595000", "113119.598000", "113119.601000", "113119.604000", "113119.607000", "113119.609000", "113119.612000", "113119.615000", "113119.618000", "113119.621000", "113119.624000", "113119.627000", "113119.629000", "113119.632000", "113119.635000", "113119.638000", "113119.641000", "113119.644000", "113119.647000", "113119.650000", "113119.652000", "113119.655000", "113119.664000", "113119.667000", "113119.670000", "113119.673000", "113159.590000", "113159.593000", "113159.596000", "113159.599000", "113159.602000", "113159.604000", "113159.607000", "113159.610000", "113159.613000", "113159.616000", "113159.619000", "113159.622000", "113159.625000", "113159.628000", "113159.631000", "113159.633000", "113159.636000", "113159.639000", "113159.642000", "113159.645000", "113159.648000", "113159.651000", "113159.654000", "113159.656000", "113159.659000", "113159.662000", "113159.665000", "113239.590000", "113239.593000", "113239.596000", "113239.599000", "113239.602000", "113239.605000", "113239.608000", "113239.611000", "113239.613000", "113239.616000", "113239.619000", "113239.622000", "113239.625000", "113239.628000", "113239.631000", "113239.634000", "113239.637000", "113239.640000", "113239.643000", "113239.646000", "113239.649000", "113239.652000", "113239.654000", "113239.657000", "113239.661000", "113239.664000", "113239.667000", "113319.591000", "113319.594000", "113319.597000", "113319.600000", "113319.603000", "113319.606000", "113319.609000", "113319.611000", "113319.614000", "113319.617000", "113319.620000", "113319.623000", "113319.626000", "113319.637000", "113319.641000", "113319.643000", "113319.646000", "113319.649000", "113319.652000", "113319.655000", "113319.658000", "113319.661000", "113319.664000", "113319.666000", "113319.669000", "113319.672000", "113359.590000", "113359.593000", "113359.601000", "113359.604000", "113359.607000", "113359.610000", "113359.613000", "113359.616000", "113359.619000", "113359.622000", "113359.625000", "113359.627000", "113359.630000", "113359.633000", "113359.636000", "113359.639000", "113359.642000", "113359.645000", "113359.648000", "113359.650000", "113359.653000", "113359.656000", "113359.659000", "113359.662000", "113359.665000", "113359.668000", "113359.671000", "113439.590000", "113439.593000", "113439.597000", "113439.600000", "113439.603000", "113439.606000", "113439.609000", "113439.612000", "113439.615000", "113439.618000", "113439.620000", "113439.623000", "113439.626000", "113439.629000", "113439.632000", "113439.635000", "113439.638000", "113439.641000", "113439.644000", "113439.646000", "113439.649000", "113439.652000", "113439.655000", "113439.658000", "113439.661000", "113439.664000", "113439.667000", "113519.591000", "113519.594000", "113519.597000", "113519.600000", "113519.603000", "113519.623000", "113519.626000", "113519.629000", "113519.632000", "113519.634000", "113519.637000", "113519.640000", "113519.643000", "113519.646000", "113519.649000", "113519.659000", "113519.662000", "113519.664000", "113519.667000", "113519.670000", "113519.673000", "113519.676000", "113519.679000", "113519.682000", "113519.685000", "113519.687000", "113519.690000", "113559.591000", "113559.594000", "113559.597000", "113559.600000", "113559.603000", "113559.606000", "113559.609000", "113559.612000", "113559.614000", "113559.617000", "113559.620000", "113559.623000", "113559.626000", "113559.629000", "113559.632000", "113559.635000", "113559.637000", "113559.640000", "113559.643000", "113559.646000", "113559.649000", "113559.652000", "113559.655000", "113559.658000", "113559.661000", "113559.664000", "113559.666000", "113615.587000", "113615.590000", "113615.593000", "113615.596000", "113615.598000", "113615.602000", "113615.605000", "113615.608000", "113615.610000", "113615.613000", "113615.617000"],
