{
  "AcquisitionMatrixPE": 104,
  "AcquisitionNumber": 1,
  "AcquisitionTime": "11:13:28.465000",
  "BandwidthPerPixelPhaseEncode": 17.17,
  "BaseResolution": 104,
  "BodyPartExamined": "BRAIN",
  "CoilString": "HC1-7;NC1_2",
  "ConsistencyInfo": "N4_VE11C_LATEST_20160120",
  "ConversionSoftware": "dcm2niix",
  "ConversionSoftwareVersion": "v1.0.20190902",
  "DerivedVendorReportedEchoSpacing": 0.000560011,
  "DeviceSerialNumber": "167006",
  "DwellTime": 2.1e-06,
  "EchoTime": 0.037,
  "EchoTrainLength": 104,
  "EffectiveEchoSpacing": 0.000560011,
  "FlipAngle": 52,
  "ImageComments": "Unaliased_MB4_PE3_LB",
  "ImageOrientationPatientDICOM": [0.997446, 0.00187933, -0.0714009, -0.0177588, 0.974788, -0.222427],
  "ImageType": [
    "ORIGINAL",
    "PRIMARY",
    "M",
    "MB",
    "ND",
    "MOSAIC"
],
  "ImagingFrequency": 123.259,
  "InPlanePhaseEncodingDirectionDICOM": "COL",
  "InstitutionAddress": "Chemin_Queen-Mary_4565_Montreal_District_CA_H3W_1W5",
  "InstitutionName": "IUGM",
  "InstitutionalDepartmentName": "Department",
  "MRAcquisitionType": "2D",
  "MagneticFieldStrength": 3,
  "Manufacturer": "Siemens",
  "ManufacturersModelName": "Prisma_fit",
  "Modality": "MR",
  "MultibandAccelerationFactor": 4,
  "PartialFourier": 1,
  "PatientPosition": "HFS",
  "PercentPhaseFOV": 100,
  "PhaseEncodingDirection": "j",
  "PhaseEncodingSteps": 104,
  "PhaseResolution": 1,
  "PixelBandwidth": 2290,
  "ProcedureStepDescription": "video_friends",
  "ProtocolName": "func_task-friends-s04e21a",
  "PulseSequenceDetails": "%CustomerSeq%_cmrr_mbep2d_bold",
  "ReceiveCoilActiveElements": "HC1-7;NC1,2",
  "ReceiveCoilName": "HeadNeck_64",
  "ReconMatrixPE": 104,
  "RepetitionTime": 1.49,
  "SAR": 0.0292215,
  "ScanOptions": "FS",
  "ScanningSequence": "EP",
  "SequenceName": "epfid2d1_104",
  "SequenceVariant": "SK_SS",
  "SeriesDescription": "func_task-friends-s04e21a",
  "SeriesNumber": 13,
  "ShimSetting": [603, -7248, -8840, 612, -45, -268, 52, 36],
  "SliceThickness": 2,
  "SliceTiming": [0, 0.7825, 0.0975, 0.8825, 0.195, 0.98, 0.2925, 1.0775, 0.3925, 1.175, 0.49, 1.2725, 0.5875, 1.3725, 0.685, 0, 0.7825, 0.0975, 0.8825, 0.195, 0.98, 0.2925, 1.0775, 0.3925, 1.175, 0.49, 1.2725, 0.5875, 1.3725, 0.685, 0, 0.7825, 0.0975, 0.8825, 0.195, 0.98, 0.2925, 1.0775, 0.3925, 1.175, 0.49, 1.2725, 0.5875, 1.3725, 0.685, 0, 0.7825, 0.0975, 0.8825, 0.195, 0.98, 0.2925, 1.0775, 0.3925, 1.175, 0.49, 1.2725, 0.5875, 1.3725, 0.685],
  "SoftwareVersions": "syngo_MR_E11",
  "SpacingBetweenSlices": 2,
  "StationName": "MRC35049",
  "TaskName": "s04e21a",
  "TotalReadoutTime": 0.0576811,
  "TxRefAmp": 217.564,
  "WipMemBlock": "e7a2d70c-ced5-4e40-a4c0-7cba4eb2075a||Sequence: R016 ve11c/master r/e634e98; Dec 19 2017 11:00:25 by eja",
  "dcmmeta_affine": [
    [-1.994891881942749, -0.03551759198307991, -0.1383654624223709, 103.13956451416016],
    [-0.0037586612161248922, 1.9495751857757568, -0.4462537169456482, -83.225341796875],
    [-0.14280186593532562, 0.44485390186309814, 1.9446626901626587, -50.281532287597656],
    [0.0, 0.0, 0.0, 1.0]
],
  "dcmmeta_reorient_transform": [
    [0.0, -1.0, 0.0, 103.0],
    [1.0, 0.0, 0.0, 0.0],
    [0.0, 0.0, 1.0, 0.0],
    [0.0, 0.0, 0.0, 1.0]
],
  "dcmmeta_shape": [104, 104, 60, 448],
  "dcmmeta_slice_dim": 2,
  "dcmmeta_version": 0.6,
  "global": {
    "const": {
      "AcquisitionMatrix": [104, 0, 0, 104],
      "AngioFlag": "N",
      "BitsAllocated": 16,
      "BitsStored": 16,
      "BodyPartExamined": "BRAIN",
      "Columns": 832,
      "EchoNumbers": 1,
      "EchoTime": 37.0,
      "EchoTrainLength": 104,
      "FlipAngle": 52.0,
      "HighBit": 15,
      "ImageOrientationPatient": [0.99744592602468, 0.00187933061664, -0.0714009297783, -0.0177587965697, 0.97478760593723, -0.2224269508301],
      "ImagePositionPatient": [-812.69347913823, -828.59443668401, 209.44511664299],
      "ImageType": [
        "ORIGINAL",
        "PRIMARY",
        "M",
        "MB",
        "ND",
        "MOSAIC"
],
      "ImagedNucleus": "1H",
      "ImagingFrequency": 123.259026,
      "InPlanePhaseEncodingDirection": "COL",
      "MRAcquisitionType": "2D",
      "MagneticFieldStrength": 3.0,
      "Manufacturer": "SIEMENS",
      "ManufacturerModelName": "Prisma_fit",
      "Modality": "MR",
      "NumberOfAverages": 1.0,
      "NumberOfPhaseEncodingSteps": 104,
      "PercentPhaseFieldOfView": 100.0,
      "PercentSampling": 100.0,
      "PerformedProcedureStepStartTime": "092013.375000",
      "PhotometricInterpretation": "MONOCHROME2",
      "PixelBandwidth": 2290.0,
      "PixelRepresentation": 0,
      "PixelSpacing": [2.0, 2.0],
      "ProtocolName": "func_task-friends-s04e21a",
      "RepetitionTime": 1490.0,
      "Rows": 832,
      "SAR": 0.029221510622,
      "SamplesPerPixel": 1,
      "ScanOptions": "FS",
      "ScanningSequence": "EP",
      "SequenceName": "epfid2d1_104",
      "SequenceVariant": [
        "SK",
        "SS"
],
      "SeriesDescription": "func_task-friends-s04e21a",
      "SeriesNumber": 13,
      "SeriesTime": "111459.489000",
      "SliceLocation": -37.455975892155,
      "SliceThickness": 2.0,
      "SmallestImagePixelValue": 0,
      "SoftwareVersions": "syngo MR E11",
      "SpacingBetweenSlices": 2.0000000422044,
      "SpecificCharacterSet": "ISO_IR 100",
      "StudyID": "1",
      "StudyTime": "092013.273000",
      "TransmitCoilName": "Body",
      "VariableFlipAngleFlag": "N",
      "WindowCenterWidthExplanation": "Algo1",
      "dBdt": 0.0},
    "slices": {}
  },
  "time": {
    "samples": {
      "AcquisitionNumber": [1, 2, 3, 4, 5, 6, 7, 8, 9, 10, 11, 12, 13, 14, 15, 16, 17, 18, 19, 20, 21, 22, 23, 24, 25, 26, 27, 28, 29, 30, 31, 32, 33, 34, 35, 36, 37, 38, 39, 40, 41, 42, 43, 44, 45, 46, 47, 48, 49, 50, 51, 52, 53, 54, 55, 56, 57, 58, 59, 60, 61, 62, 63, 64, 65, 66, 67, 68, 69, 70, 71, 72, 73, 74, 75, 76, 77, 78, 79, 80, 81, 82, 83, 84, 85, 86, 87, 88, 89, 90, 91, 92, 93, 94, 95, 96, 97, 98, 99, 100, 101, 102, 103, 104, 105, 106, 107, 108, 109, 110, 111, 112, 113, 114, 115, 116, 117, 118, 119, 120, 121, 122, 123, 124, 125, 126, 127, 128, 129, 130, 131, 132, 133, 134, 135, 136, 137, 138, 139, 140, 141, 142, 143, 144, 145, 146, 147, 148, 149, 150, 151, 152, 153, 154, 155, 156, 157, 158, 159, 160, 161, 162, 163, 164, 165, 166, 167, 168, 169, 170, 171, 172, 173, 174, 175, 176, 177, 178, 179, 180, 181, 182, 183, 184, 185, 186, 187, 188, 189, 190, 191, 192, 193, 194, 195, 196, 197, 198, 199, 200, 201, 202, 203, 204, 205, 206, 207, 208, 209, 210, 211, 212, 213, 214, 215, 216, 217, 218, 219, 220, 221, 222, 223, 224, 225, 226, 227, 228, 229, 230, 231, 232, 233, 234, 235, 236, 237, 238, 239, 240, 241, 242, 243, 244, 245, 246, 247, 248, 249, 250, 251, 252, 253, 254, 255, 256, 257, 258, 259, 260, 261, 262, 263, 264, 265, 266, 267, 268, 269, 270, 271, 272, 273, 274, 275, 276, 277, 278, 279, 280, 281, 282, 283, 284, 285, 286, 287, 288, 289, 290, 291, 292, 293, 294, 295, 296, 297, 298, 299, 300, 301, 302, 303, 304, 305, 306, 307, 308, 309, 310, 311, 312, 313, 314, 315, 316, 317, 318, 319, 320, 321, 322, 323, 324, 325, 326, 327, 328, 329, 330, 331, 332, 333, 334, 335, 336, 337, 338, 339, 340, 341, 342, 343, 344, 345, 346, 347, 348, 349, 350, 351, 352, 353, 354, 355, 356, 357, 358, 359, 360, 361, 362, 363, 364, 365, 366, 367, 368, 369, 370, 371, 372, 373, 374, 375, 376, 377, 378, 379, 380, 381, 382, 383, 384, 385, 386, 387, 388, 389, 390, 391, 392, 393, 394, 395, 396, 397, 398, 399, 400, 401, 402, 403, 404, 405, 406, 407, 408, 409, 410, 411, 412, 413, 414, 415, 416, 417, 418, 419, 420, 421, 422, 423, 424, 425, 426, 427, 428, 429, 430, 431, 432, 433, 434, 435, 436, 437, 438, 439, 440, 441, 442, 443, 444, 445, 446, 447, 448],
      "AcquisitionTime": ["111328.465000", "111329.955000", "111331.445000", "111332.935000", "111334.425000", "111335.915000", "111337.405000", "111338.895000", "111340.385000", "111341.875000", "111343.365000", "111344.855000", "111346.345000", "111347.835000", "111349.325000", "111350.815000", "111352.305000", "111353.795000", "111355.285000", "111356.775000", "111358.265000", "111359.755000", "111401.245000", "111402.735000", "111404.225000", "111405.715000", "111407.205000", "111408.695000", "111410.185000", "111411.675000", "111413.165000", "111414.655000", "111416.145000", "111417.635000", "111419.125000", "111420.615000", "111422.105000", "111423.595000", "111425.085000", "111426.575000", "111428.065000", "111429.555000", "111431.045000", "111432.535000", "111434.025000", "111435.515000", "111437.005000", "111438.495000", "111439.985000", "111441.475000", "111442.965000", "111444.455000", "111445.945000", "111447.435000", "111448.925000", "111450.415000", "111451.905000", "111453.395000", "111454.885000", "111456.375000", "111457.865000", "111459.355000", "111500.845000", "111502.335000", "111503.825000", "111505.315000", "111506.805000", "111508.295000", "111509.785000", "111511.275000", "111512.765000", "111514.255000", "111515.745000", "111517.235000", "111518.725000", "111520.215000", "111521.705000", "111523.195000", "111524.685000", "111526.175000", "111527.665000", "111529.155000", "111530.645000", "111532.135000", "111533.625000", "111535.115000", "111536.605000", "111538.095000", "111539.585000", "111541.075000", "111542.565000", "111544.055000", "111545.545000", "111547.035000", "111548.525000", "111550.015000", "111551.505000", "111552.995000", "111554.485000", "111555.975000", "111557.465000", "111558.955000", "111600.445000", "111601.935000", "111603.425000", "111604.915000", "111606.405000", "111607.895000", "111609.385000", "111610.875000", "111612.365000", "111613.855000", "111615.345000", "111616.835000", "111618.325000", "111619.815000", "111621.305000", "111622.795000", "111624.285000", "111625.775000", "111627.265000", "111628.755000", "111630.245000", "111631.735000", "111633.225000", "111634.715000", "111636.205000", "111637.695000", "111639.185000", "111640.675000", "111642.165000", "111643.655000", "111645.145000", "111646.635000", "111648.125000", "111649.615000", "111651.105000", "111652.595000", "111654.085000", "111655.575000", "111657.065000", "111658.555000", "111700.045000", "111701.535000", "111703.025000", "111704.515000", "111706.005000", "111707.495000", "111708.985000", "111710.475000", "111711.965000", "111713.455000", "111714.945000", "111716.435000", "111717.925000", "111719.415000", "111720.905000", "111722.395000", "111723.885000", "111725.375000", "111726.865000", "111728.355000", "111729.845000", "111731.335000", "111732.825000", "111734.315000", "111735.805000", "111737.295000", "111738.785000", "111740.275000", "111741.765000", "111743.255000", "111744.745000", "111746.235000", "111747.725000", "111749.215000", "111750.705000", "111752.195000", "111753.685000", "111755.175000", "111756.665000", "111758.155000", "111759.645000", "111801.135000", "111802.625000", "111804.115000", "111805.605000", "111807.095000", "111808.585000", "111810.075000", "111811.565000", "111813.055000", "111814.545000", "111816.035000", "111817.525000", "111819.015000", "111820.505000", "111821.995000", "111823.485000", "111824.975000", "111826.465000", "111827.955000", "111829.445000", "111830.935000", "111832.425000", "111833.915000", "111835.405000", "111836.895000", "111838.385000", "111839.875000", "111841.365000", "111842.855000", "111844.345000", "111845.835000", "111847.325000", "111848.815000", "111850.305000", "111851.795000", "111853.285000", "111854.775000", "111856.265000", "111857.755000", "111859.245000", "111900.735000", "111902.225000", "111903.715000", "111905.205000", "111906.695000", "111908.185000", "111909.675000", "111911.165000", "111912.655000", "111914.145000", "111915.635000", "111917.125000", "111918.615000", "111920.105000", "111921.595000", "111923.085000", "111924.575000", "111926.065000", "111927.555000", "111929.045000", "111930.535000", "111932.025000", "111933.515000", "111935.005000", "111936.495000", "111937.985000", "111939.475000", "111940.965000", "111942.455000", "111943.945000", "111945.435000", "111946.925000", "111948.415000", "111949.905000", "111951.395000", "111952.885000", "111954.375000", "111955.865000", "111957.355000", "111958.845000", "112000.335000", "112001.825000", "112003.315000", "112004.805000", "112006.295000", "112007.785000", "112009.275000", "112010.765000", "112012.255000", "112013.745000", "112015.235000", "112016.725000", "112018.215000", "112019.705000", "112021.195000", "112022.685000", "112024.175000", "112025.665000", "112027.155000", "112028.645000", "112030.135000", "112031.625000", "112033.115000", "112034.605000", "112036.095000", "112037.585000", "112039.075000", "112040.565000", "112042.055000", "112043.545000", "112045.035000", "112046.525000", "112048.015000", "112049.505000", "112050.995000", "112052.485000", "112053.975000", "112055.465000", "112056.955000", "112058.445000", "112059.935000", "112101.425000", "112102.915000", "112104.405000", "112105.895000", "112107.385000", "112108.875000", "112110.365000", "112111.855000", "112113.345000", "112114.835000", "112116.325000", "112117.815000", "112119.305000", "112120.795000", "112122.285000", "112123.775000", "112125.265000", "112126.755000", "112128.245000", "112129.735000", "112131.225000", "112132.715000", "112134.205000", "112135.695000", "112137.185000", "112138.675000", "112140.165000", "112141.655000", "112143.145000", "112144.635000", "112146.125000", "112147.615000", "112149.105000", "112150.595000", "112152.085000", "112153.575000", "112155.065000", "112156.555000", "112158.045000", "112159.535000", "112201.025000", "112202.515000", "112204.005000", "112205.495000", "112206.985000", "112208.475000", "112209.965000", "112211.455000", "112212.945000", "112214.435000", "112215.925000", "112217.415000", "112218.905000", "112220.395000", "112221.885000", "112223.375000", "112224.865000", "112226.355000", "112227.845000", "112229.335000", "112230.825000", "112232.315000", "112233.805000", "112235.295000", "112236.785000", "112238.275000", "112239.765000", "112241.255000", "112242.745000", "112244.235000", "112245.725000", "112247.215000", "112248.705000", "112250.195000", "112251.685000", "112253.175000", "112254.665000", "112256.155000", "112257.645000", "112259.135000", "112300.625000", "112302.115000", "112303.605000", "112305.095000", "112306.585000", "112308.075000", "112309.565000", "112311.055000", "112312.545000", "112314.035000", "112315.525000", "112317.015000", "112318.505000", "112319.995000", "112321.485000", "112322.975000", "112324.465000", "112325.955000", "112327.445000", "112328.935000", "112330.425000", "112331.915000", "112333.405000", "112334.895000", "112336.385000", "112337.875000", "112339.365000", "112340.855000", "112342.345000", "112343.835000", "112345.325000", "112346.815000", "112348.305000", "112349.795000", "112351.285000", "112352.775000", "112354.265000", "112355.755000", "112357.245000", "112358.735000", "112400.225000", "112401.715000", "112403.205000", "112404.695000", "112406.185000", "112407.675000", "112409.165000", "112410.655000", "112412.145000", "112413.635000", "112415.125000", "112416.615000", "112418.105000", "112419.595000", "112421.085000", "112422.575000", "112424.065000", "112425.555000", "112427.045000", "112428.535000", "112430.025000", "112431.515000", "112433.005000", "112434.495000"],
      "ContentTime": ["111459.492000", "111459.495000", "111459.498000", "111459.501000", "111459.504000", "111459.506000", "111459.509000", "111459.512000", "111459.515000", "111459.518000", "111459.521000", "111459.524000", "111459.527000", "111459.530000", "111459.533000", "111459.535000", "111459.538000", "111459.541000", "111459.544000", "111459.552000", "111459.555000", "111459.558000", "111459.561000", "111459.564000", "111459.567000", "111459.570000", "111459.573000", "111459.575000", "111459.578000", "111459.581000", "111459.584000", "111459.587000", "111459.590000", "111459.592000", "111459.596000", "111459.599000", "111459.602000", "111459.605000", "111519.452000", "111519.455000", "111519.458000", "111519.461000", "111519.464000", "111519.466000", "111519.469000", "111519.472000", "111519.482000", "111519.485000", "111519.487000", "111519.491000", "111519.493000", "111519.496000", "111519.499000", "111519.502000", "111519.505000", "111519.508000", "111519.511000", "111519.514000", "111539.452000", "111539.455000", "111539.458000", "111539.461000", "111539.463000", "111539.466000", "111539.469000", "111539.472000", "111539.475000", "111539.478000", "111539.480000", "111539.483000", "111539.486000", "111539.489000", "111539.492000", "111539.495000", "111539.498000", "111539.500000", "111539.503000", "111539.506000", "111559.452000", "111559.460000", "111559.463000", "111559.466000", "111559.469000", "111559.472000", "111559.474000", "111559.477000", "111559.480000", "111559.483000", "111559.486000", "111559.489000", "111559.491000", "111559.494000", "111559.502000", "111559.505000", "111559.507000", "111559.511000", "111559.513000", "111559.516000", "111559.519000", "111639.453000", "111639.456000", "111639.459000", "111639.461000", "111639.464000", "111639.467000", "111639.470000", "111639.473000", "111639.476000", "111639.479000", "111639.482000", "111639.484000", "111639.488000", "111639.490000", "111639.493000", "111639.496000", "111639.499000", "111639.502000", "111639.505000", "111639.507000", "111639.510000", "111639.513000", "111639.516000", "111639.519000", "111639.522000", "111639.525000", "111639.527000", "111639.530000", "111719.453000", "111719.456000", "111719.459000", "111719.462000", "111719.465000", "111719.468000", "111719.471000", "111719.474000", "111719.476000", "111719.479000", "111719.482000", "111719.485000", "111719.488000", "111719.491000", "111719.494000", "111719.496000", "111719.499000", "111719.502000", "111719.505000", "111719.508000", "111719.511000", "111719.513000", "111719.516000", "111719.519000", "111719.522000", "111719.525000", "111719.528000", "111759.452000", "111759.455000", "111759.458000", "111759.461000", "111759.463000", "111759.466000", "111759.469000", "111759.472000", "111759.475000", "111759.478000", "111759.481000", "111759.484000", "111759.486000", "111759.489000", "111759.492000", "111759.495000", "111759.498000", "111759.501000", "111759.504000", "111759.507000", "111759.510000", "111759.513000", "111759.515000", "111759.518000", "111759.521000", "111759.524000", "111759.527000", "111839.452000", "111839.455000", "111839.458000", "111839.461000", "111839.464000", "111839.467000", "111839.469000", "111839.472000", "111839.475000", "111839.478000", "111839.481000", "111839.484000", "111839.487000", "111839.490000", "111839.492000", "111839.495000", "111839.498000", "111839.501000", "111839.504000", "111839.507000", "111839.510000", "111839.513000", "111839.515000", "111839.518000", "111839.521000", "111839.524000", "111839.527000", "111919.453000", "111919.456000", "111919.459000", "111919.462000", "111919.465000", "111919.467000", "111919.470000", "111919.473000", "111919.476000", "111919.479000", "111919.482000", "111919.485000", "111919.488000", "111919.490000", "111919.493000", "111919.496000", "111919.499000", "111919.502000", "111919.505000", "111919.508000", "111919.510000", "111919.513000", "111919.516000", "111919.519000", "111919.522000", "111919.525000", "111919.528000", "111959.452000", "111959.455000", "111959.458000", "111959.461000", "111959.463000", "111959.466000", "111959.469000", "111959.472000", "111959.475000", "111959.480000", "111959.483000", "111959.486000", "111959.489000", "111959.492000", "111959.495000", "111959.498000", "111959.500000", "111959.503000", "111959.506000", "111959.509000", "111959.512000", "111959.515000", "111959.518000", "111959.520000", "111959.523000", "111959.526000", "111959.529000", "112039.452000", "112039.455000", "112039.458000", "112039.461000", "112039.463000", "112039.467000", "112039.470000", "112039.472000", "112039.475000", "112039.478000", "112039.481000", "112039.484000", "112039.487000", "112039.498000", "112039.501000", "112039.504000", "112039.507000", "112039.510000", "112039.512000", "112039.515000", "112039.518000", "112039.521000", "112039.524000", "112039.527000", "112039.529000", "112039.532000", "112039.535000", "112119.453000", "112119.456000", "112119.459000", "112119.462000", "112119.464000", "112119.467000", "112119.470000", "112119.473000", "112119.476000", "112119.479000", "112119.482000", "112119.485000", "112119.488000", "112119.490000", "112119.493000", "112119.496000", "112119.499000", "112119.502000", "112119.505000", "112119.508000", "112119.511000", "112119.514000", "112119.517000", "112119.519000", "112119.522000", "112119.525000", "112159.453000", "112159.456000", "112159.459000", "112159.462000", "112159.464000", "112159.467000", "112159.470000", "112159.473000", "112159.476000", "112159.479000", "112159.482000", "112159.485000", "112159.488000", "112159.490000", "112159.493000", "112159.496000", "112159.499000", "112159.502000", "112159.505000", "112159.508000", "112159.510000", "112159.513000", "112159.516000", "112159.519000", "112159.522000", "112159.525000", "112159.528000", "112239.452000", "112239.455000", "112239.458000", "112239.461000", "112239.463000", "112239.466000", "112239.469000", "112239.472000", "112239.475000", "112239.478000", "112239.481000", "112239.484000", "112239.486000", "112239.490000", "112239.492000", "112239.495000", "112239.498000", "112239.501000", "112239.504000", "112239.507000", "112239.509000", "112239.513000", "112239.515000", "112239.518000", "112239.521000", "112239.524000", "112239.527000", "112319.452000", "112319.455000", "112319.458000", "112319.461000", "112319.464000", "112319.467000", "112319.470000", "112319.472000", "112319.475000", "112319.478000", "112319.481000", "112319.484000", "112319.487000", "112319.490000", "112319.492000", "112319.495000", "112319.498000", "112319.501000", "112319.504000", "112319.507000", "112319.510000", "112319.513000", "112319.515000", "112319.518000", "112319.521000", "112319.524000", "112319.527000", "112359.453000", "112359.456000", "112359.459000", "112359.462000", "112359.465000", "112359.467000", "112359.470000", "112359.473000", "112359.476000", "112359.479000", "112359.482000", "112359.485000", "112359.488000", "112359.491000", "112359.493000", "112359.496000", "112359.499000", "112359.502000", "112359.505000", "112359.508000", "112359.511000", "112359.514000", "112359.516000", "112359.519000", "112359.522000", "112359.525000", "112359.528000", "112436.391000", "112436.394000", "112436.397000", "112436.399000", "112436.402000", "112436.405000", "112436.408000", "112436.411000", "112436.414000", "112436.417000", "112436.420000", "112436.423000", "112436.425000", "112436.428000", "112436.431000", "112436.434000", "112436.437000", "112436.440000", "112436.443000", "112436.446000", "112436.449000", "112436.452000", "112436.455000", "112436.458000", "112436.461000"],
