{
  "AcquisitionMatrixPE": 104,
  "AcquisitionNumber": 1,
  "AcquisitionTime": "10:38:42.837500",
  "BandwidthPerPixelPhaseEncode": 17.17,
  "BaseResolution": 104,
  "BodyPartExamined": "BRAIN",
  "CoilString": "HC1-7;NC1_2",
  "ConsistencyInfo": "N4_VE11C_LATEST_20160120",
  "ConversionSoftware": "dcm2niix",
  "ConversionSoftwareVersion": "v1.0.20190902",
  "DerivedVendorReportedEchoSpacing": 0.000560011,
  "DeviceSerialNumber": "167006",
  "DwellTime": 2.1e-06,
  "EchoTime": 0.037,
  "EchoTrainLength": 104,
  "EffectiveEchoSpacing": 0.000560011,
  "FlipAngle": 52,
  "ImageComments": "Unaliased_MB4_PE3_LB",
  "ImageOrientationPatientDICOM": [0.999985, -0.000625981, 0.00544988, 0.00331615, 0.860377, -0.509648],
  "ImageType": [
    "ORIGINAL",
    "PRIMARY",
    "M",
    "MB",
    "ND",
    "MOSAIC"
],
  "ImagingFrequency": 123.259,
  "InPlanePhaseEncodingDirectionDICOM": "COL",
  "InstitutionAddress": "Chemin_Queen-Mary_4565_Montreal_District_CA_H3W_1W5",
  "InstitutionName": "IUGM",
  "InstitutionalDepartmentName": "Department",
  "MRAcquisitionType": "2D",
  "MagneticFieldStrength": 3,
  "Manufacturer": "Siemens",
  "ManufacturersModelName": "Prisma_fit",
  "Modality": "MR",
  "MultibandAccelerationFactor": 4,
  "PartialFourier": 1,
  "PatientPosition": "HFS",
  "PercentPhaseFOV": 100,
  "PhaseEncodingDirection": "j",
  "PhaseEncodingSteps": 104,
  "PhaseResolution": 1,
  "PixelBandwidth": 2290,
  "ProcedureStepDescription": "video_friends",
  "ProtocolName": "func_task-friends-s04e15a",
  "PulseSequenceDetails": "%CustomerSeq%_cmrr_mbep2d_bold",
  "ReceiveCoilActiveElements": "HC1-7;NC1,2",
  "ReceiveCoilName": "HeadNeck_64",
  "ReconMatrixPE": 104,
  "RepetitionTime": 1.49,
  "SAR": 0.0370311,
  "ScanOptions": "FS",
  "ScanningSequence": "EP",
  "SequenceName": "epfid2d1_104",
  "SequenceVariant": "SK_SS",
  "SeriesDescription": "func_task-friends-s04e15a",
  "SeriesNumber": 17,
  "ShimSetting": [626, -7202, -8874, 382, -15, -211, 5, -28],
  "SliceThickness": 2,
  "SliceTiming": [0, 0.785, 0.0975, 0.8825, 0.195, 0.98, 0.295, 1.0775, 0.3925, 1.175, 0.49, 1.275, 0.5875, 1.3725, 0.685, 0, 0.785, 0.0975, 0.8825, 0.195, 0.98, 0.295, 1.0775, 0.3925, 1.175, 0.49, 1.275, 0.5875, 1.3725, 0.685, 0, 0.785, 0.0975, 0.8825, 0.195, 0.98, 0.295, 1.0775, 0.3925, 1.175, 0.49, 1.275, 0.5875, 1.3725, 0.685, 0, 0.785, 0.0975, 0.8825, 0.195, 0.98, 0.295, 1.0775, 0.3925, 1.175, 0.49, 1.275, 0.5875, 1.3725, 0.685],
  "SoftwareVersions": "syngo_MR_E11",
  "SpacingBetweenSlices": 2,
  "StationName": "MRC35049",
  "TaskName": "s04e15a",
  "TotalReadoutTime": 0.0576811,
  "TxRefAmp": 252.593,
  "WipMemBlock": "bafcb8f8-d98a-4c72-85b3-e229c815fe2b||Sequence: R016 ve11c/master r/e634e98; Dec 19 2017 11:00:25 by eja",
  "dcmmeta_affine": [
    [-1.9999699592590332, 0.006632301956415176, 0.008739843033254147, 103.00021362304688],
    [0.0012519628508016467, 1.7207533121109009, -1.0193166732788086, -59.08806228637695],
    [0.01089976541697979, 1.0192959308624268, 1.7207316160202026, -97.70439910888672],
    [0.0, 0.0, 0.0, 1.0]
],
  "dcmmeta_reorient_transform": [
    [0.0, -1.0, 0.0, 103.0],
    [1.0, 0.0, 0.0, 0.0],
    [0.0, 0.0, 1.0, 0.0],
    [0.0, 0.0, 0.0, 1.0]
],
  "dcmmeta_shape": [104, 104, 60, 444],
  "dcmmeta_slice_dim": 2,
  "dcmmeta_version": 0.6,
  "global": {
    "const": {
      "AcquisitionMatrix": [104, 0, 0, 104],
      "AngioFlag": "N",
      "BitsAllocated": 16,
      "BitsStored": 16,
      "BodyPartExamined": "BRAIN",
      "Columns": 832,
      "EchoNumbers": 1,
      "EchoTime": 37.0,
      "EchoTrainLength": 104,
      "FlipAngle": 52.0,
      "HighBit": 15,
      "ImageOrientationPatient": [0.99998495335079, -0.0006259814157, 0.0054498825014, 0.00331615105939, 0.86037665278505, -0.509647935819],
      "ImagePositionPatient": [-834.08654453264, -744.04801504599, 374.33926168347],
      "ImageType": [
        "ORIGINAL",
        "PRIMARY",
        "M",
        "MB",
        "ND",
        "MOSAIC"
],
      "ImagedNucleus": "1H",
      "ImagingFrequency": 123.259029,
      "InPlanePhaseEncodingDirection": "COL",
      "MRAcquisitionType": "2D",
      "MagneticFieldStrength": 3.0,
      "Manufacturer": "SIEMENS",
      "ManufacturerModelName": "Prisma_fit",
      "Modality": "MR",
      "NumberOfAverages": 1.0,
      "NumberOfPhaseEncodingSteps": 104,
      "PercentPhaseFieldOfView": 100.0,
      "PercentSampling": 100.0,
      "PerformedProcedureStepStartTime": "090614.525000",
      "PhotometricInterpretation": "MONOCHROME2",
      "PixelBandwidth": 2290.0,
      "PixelRepresentation": 0,
      "PixelSpacing": [2.0, 2.0],
      "ProtocolName": "func_task-friends-s04e15a",
      "RepetitionTime": 1490.0,
      "Rows": 832,
      "SAR": 0.03703106974712,
      "SamplesPerPixel": 1,
      "ScanOptions": "FS",
      "ScanningSequence": "EP",
      "SequenceName": "epfid2d1_104",
      "SequenceVariant": [
        "SK",
        "SS"
],
      "SeriesDescription": "func_task-friends-s04e15a",
      "SeriesNumber": 17,
      "SeriesTime": "104006.053000",
      "SliceLocation": -53.496691521513,
      "SliceThickness": 2.0,
      "SmallestImagePixelValue": 0,
      "SoftwareVersions": "syngo MR E11",
      "SpacingBetweenSlices": 1.9999999954304,
      "SpecificCharacterSet": "ISO_IR 100",
      "StudyID": "1",
      "StudyTime": "090614.464000",
      "TransmitCoilName": "Body",
      "VariableFlipAngleFlag": "N",
      "WindowCenterWidthExplanation": "Algo1",
      "dBdt": 0.0},
    "slices": {}
  },
  "time": {
    "samples": {
      "AcquisitionNumber": [1, 2, 3, 4, 5, 6, 7, 8, 9, 10, 11, 12, 13, 14, 15, 16, 17, 18, 19, 20, 21, 22, 23, 24, 25, 26, 27, 28, 29, 30, 31, 32, 33, 34, 35, 36, 37, 38, 39, 40, 41, 42, 43, 44, 45, 46, 47, 48, 49, 50, 51, 52, 53, 54, 55, 56, 57, 58, 59, 60, 61, 62, 63, 64, 65, 66, 67, 68, 69, 70, 71, 72, 73, 74, 75, 76, 77, 78, 79, 80, 81, 82, 83, 84, 85, 86, 87, 88, 89, 90, 91, 92, 93, 94, 95, 96, 97, 98, 99, 100, 101, 102, 103, 104, 105, 106, 107, 108, 109, 110, 111, 112, 113, 114, 115, 116, 117, 118, 119, 120, 121, 122, 123, 124, 125, 126, 127, 128, 129, 130, 131, 132, 133, 134, 135, 136, 137, 138, 139, 140, 141, 142, 143, 144, 145, 146, 147, 148, 149, 150, 151, 152, 153, 154, 155, 156, 157, 158, 159, 160, 161, 162, 163, 164, 165, 166, 167, 168, 169, 170, 171, 172, 173, 174, 175, 176, 177, 178, 179, 180, 181, 182, 183, 184, 185, 186, 187, 188, 189, 190, 191, 192, 193, 194, 195, 196, 197, 198, 199, 200, 201, 202, 203, 204, 205, 206, 207, 208, 209, 210, 211, 212, 213, 214, 215, 216, 217, 218, 219, 220, 221, 222, 223, 224, 225, 226, 227, 228, 229, 230, 231, 232, 233, 234, 235, 236, 237, 238, 239, 240, 241, 242, 243, 244, 245, 246, 247, 248, 249, 250, 251, 252, 253, 254, 255, 256, 257, 258, 259, 260, 261, 262, 263, 264, 265, 266, 267, 268, 269, 270, 271, 272, 273, 274, 275, 276, 277, 278, 279, 280, 281, 282, 283, 284, 285, 286, 287, 288, 289, 290, 291, 292, 293, 294, 295, 296, 297, 298, 299, 300, 301, 302, 303, 304, 305, 306, 307, 308, 309, 310, 311, 312, 313, 314, 315, 316, 317, 318, 319, 320, 321, 322, 323, 324, 325, 326, 327, 328, 329, 330, 331, 332, 333, 334, 335, 336, 337, 338, 339, 340, 341, 342, 343, 344, 345, 346, 347, 348, 349, 350, 351, 352, 353, 354, 355, 356, 357, 358, 359, 360, 361, 362, 363, 364, 365, 366, 367, 368, 369, 370, 371, 372, 373, 374, 375, 376, 377, 378, 379, 380, 381, 382, 383, 384, 385, 386, 387, 388, 389, 390, 391, 392, 393, 394, 395, 396, 397, 398, 399, 400, 401, 402, 403, 404, 405, 406, 407, 408, 409, 410, 411, 412, 413, 414, 415, 416, 417, 418, 419, 420, 421, 422, 423, 424, 425, 426, 427, 428, 429, 430, 431, 432, 433, 434, 435, 436, 437, 438, 439, 440, 441, 442, 443, 444],
      "AcquisitionTime": ["103842.837500", "103844.327500", "103845.817500", "103847.307500", "103848.797500", "103850.287500", "103851.777500", "103853.267500", "103854.757500", "103856.247500", "103857.737500", "103859.227500", "103900.717500", "103902.207500", "103903.697500", "103905.187500", "103906.677500", "103908.167500", "103909.657500", "103911.147500", "103912.637500", "103914.127500", "103915.617500", "103917.107500", "103918.597500", "103920.087500", "103921.577500", "103923.067500", "103924.557500", "103926.047500", "103927.537500", "103929.027500", "103930.517500", "103932.007500", "103933.497500", "103934.987500", "103936.477500", "103937.967500", "103939.457500", "103940.947500", "103942.437500", "103943.927500", "103945.417500", "103946.907500", "103948.397500", "103949.887500", "103951.377500", "103952.867500", "103954.357500", "103955.847500", "103957.337500", "103958.827500", "104000.317500", "104001.807500", "104003.297500", "104004.787500", "104006.277500", "104007.767500", "104009.257500", "104010.747500", "104012.237500", "104013.727500", "104015.217500", "104016.707500", "104018.197500", "104019.687500", "104021.177500", "104022.667500", "104024.157500", "104025.647500", "104027.137500", "104028.627500", "104030.117500", "104031.607500", "104033.097500", "104034.587500", "104036.077500", "104037.567500", "104039.057500", "104040.547500", "104042.037500", "104043.527500", "104045.017500", "104046.507500", "104047.997500", "104049.487500", "104050.977500", "104052.467500", "104053.957500", "104055.447500", "104056.937500", "104058.427500", "104059.917500", "104101.407500", "104102.897500", "104104.387500", "104105.877500", "104107.367500", "104108.857500", "104110.347500", "104111.837500", "104113.327500", "104114.817500", "104116.307500", "104117.797500", "104119.287500", "104120.777500", "104122.267500", "104123.757500", "104125.247500", "104126.737500", "104128.227500", "104129.717500", "104131.207500", "104132.697500", "104134.187500", "104135.677500", "104137.167500", "104138.657500", "104140.147500", "104141.637500", "104143.127500", "104144.617500", "104146.107500", "104147.597500", "104149.087500", "104150.577500", "104152.067500", "104153.557500", "104155.047500", "104156.537500", "104158.027500", "104159.517500", "104201.007500", "104202.497500", "104203.987500", "104205.477500", "104206.967500", "104208.457500", "104209.947500", "104211.437500", "104212.927500", "104214.417500", "104215.907500", "104217.397500", "104218.887500", "104220.377500", "104221.867500", "104223.357500", "104224.847500", "104226.337500", "104227.827500", "104229.317500", "104230.807500", "104232.297500", "104233.787500", "104235.277500", "104236.767500", "104238.257500", "104239.747500", "104241.237500", "104242.727500", "104244.217500", "104245.707500", "104247.197500", "104248.687500", "104250.177500", "104251.667500", "104253.157500", "104254.647500", "104256.137500", "104257.627500", "104259.117500", "104300.607500", "104302.097500", "104303.587500", "104305.077500", "104306.567500", "104308.057500", "104309.547500", "104311.037500", "104312.527500", "104314.017500", "104315.507500", "104316.997500", "104318.487500", "104319.977500", "104321.467500", "104322.957500", "104324.447500", "104325.937500", "104327.427500", "104328.917500", "104330.407500", "104331.897500", "104333.387500", "104334.877500", "104336.367500", "104337.857500", "104339.347500", "104340.837500", "104342.327500", "104343.817500", "104345.307500", "104346.797500", "104348.287500", "104349.777500", "104351.267500", "104352.757500", "104354.247500", "104355.737500", "104357.227500", "104358.717500", "104400.207500", "104401.697500", "104403.187500", "104404.677500", "104406.167500", "104407.657500", "104409.147500", "104410.637500", "104412.127500", "104413.617500", "104415.107500", "104416.597500", "104418.087500", "104419.577500", "104421.067500", "104422.557500", "104424.047500", "104425.537500", "104427.027500", "104428.517500", "104430.007500", "104431.497500", "104432.987500", "104434.477500", "104435.967500", "104437.457500", "104438.947500", "104440.437500", "104441.927500", "104443.417500", "104444.907500", "104446.397500", "104447.887500", "104449.377500", "104450.867500", "104452.357500", "104453.847500", "104455.337500", "104456.827500", "104458.317500", "104459.807500", "104501.297500", "104502.787500", "104504.277500", "104505.767500", "104507.257500", "104508.747500", "104510.237500", "104511.727500", "104513.217500", "104514.707500", "104516.197500", "104517.687500", "104519.177500", "104520.667500", "104522.157500", "104523.647500", "104525.137500", "104526.627500", "104528.117500", "104529.607500", "104531.097500", "104532.587500", "104534.077500", "104535.567500", "104537.057500", "104538.547500", "104540.037500", "104541.527500", "104543.017500", "104544.507500", "104545.997500", "104547.487500", "104548.977500", "104550.467500", "104551.957500", "104553.447500", "104554.937500", "104556.427500", "104557.917500", "104559.407500", "104600.897500", "104602.387500", "104603.877500", "104605.367500", "104606.857500", "104608.347500", "104609.837500", "104611.327500", "104612.817500", "104614.307500", "104615.797500", "104617.287500", "104618.777500", "104620.267500", "104621.757500", "104623.247500", "104624.737500", "104626.227500", "104627.717500", "104629.207500", "104630.697500", "104632.187500", "104633.677500", "104635.167500", "104636.657500", "104638.147500", "104639.637500", "104641.127500", "104642.617500", "104644.107500", "104645.597500", "104647.087500", "104648.577500", "104650.067500", "104651.557500", "104653.047500", "104654.537500", "104656.027500", "104657.517500", "104659.007500", "104700.497500", "104701.987500", "104703.477500", "104704.967500", "104706.457500", "104707.947500", "104709.437500", "104710.927500", "104712.417500", "104713.907500", "104715.397500", "104716.887500", "104718.377500", "104719.867500", "104721.357500", "104722.847500", "104724.337500", "104725.827500", "104727.317500", "104728.807500", "104730.297500", "104731.787500", "104733.277500", "104734.767500", "104736.257500", "104737.747500", "104739.237500", "104740.727500", "104742.217500", "104743.707500", "104745.197500", "104746.687500", "104748.177500", "104749.667500", "104751.157500", "104752.647500", "104754.137500", "104755.627500", "104757.117500", "104758.607500", "104800.097500", "104801.587500", "104803.077500", "104804.567500", "104806.057500", "104807.547500", "104809.037500", "104810.527500", "104812.017500", "104813.507500", "104814.997500", "104816.487500", "104817.977500", "104819.467500", "104820.957500", "104822.447500", "104823.937500", "104825.427500", "104826.917500", "104828.407500", "104829.897500", "104831.387500", "104832.877500", "104834.367500", "104835.857500", "104837.347500", "104838.837500", "104840.327500", "104841.817500", "104843.307500", "104844.797500", "104846.287500", "104847.777500", "104849.267500", "104850.757500", "104852.247500", "104853.737500", "104855.227500", "104856.717500", "104858.207500", "104859.697500", "104901.187500", "104902.677500", "104904.167500", "104905.657500", "104907.147500", "104908.637500", "104910.127500", "104911.617500", "104913.107500", "104914.597500", "104916.087500", "104917.577500", "104919.067500", "104920.557500", "104922.047500", "104923.537500", "104925.027500", "104926.517500", "104928.007500", "104929.497500", "104930.987500", "104932.477500", "104933.967500", "104935.457500", "104936.947500", "104938.437500", "104939.927500", "104941.417500", "104942.907500"],
      "ContentTime": ["104006.055000", "104006.059000", "104006.062000", "104006.064000", "104006.067000", "104006.070000", "104006.076000", "104006.079000", "104006.082000", "104006.084000", "104006.087000", "104006.090000", "104006.093000", "104006.096000", "104006.099000", "104006.102000", "104006.104000", "104006.107000", "104006.110000", "104006.113000", "104006.116000", "104006.123000", "104006.126000", "104006.129000", "104006.132000", "104006.135000", "104006.137000", "104006.140000", "104006.143000", "104006.146000", "104026.030000", "104026.033000", "104026.036000", "104026.039000", "104026.041000", "104026.044000", "104026.047000", "104026.050000", "104026.053000", "104026.056000", "104026.059000", "104026.061000", "104026.064000", "104026.067000", "104026.070000", "104026.073000", "104026.076000", "104026.079000", "104026.082000", "104026.084000", "104046.030000", "104046.033000", "104046.036000", "104046.039000", "104046.041000", "104046.044000", "104046.047000", "104046.050000", "104046.053000", "104046.056000", "104046.059000", "104046.061000", "104046.064000", "104046.067000", "104046.070000", "104046.073000", "104046.076000", "104046.079000", "104046.082000", "104046.084000", "104106.031000", "104106.034000", "104106.037000", "104106.040000", "104106.043000", "104106.045000", "104106.048000", "104106.051000", "104106.054000", "104106.057000", "104106.060000", "104106.063000", "104106.065000", "104106.068000", "104106.071000", "104106.080000", "104106.083000", "104106.086000", "104106.089000", "104106.091000", "104146.031000", "104146.034000", "104146.037000", "104146.040000", "104146.043000", "104146.046000", "104146.049000", "104146.051000", "104146.054000", "104146.057000", "104146.060000", "104146.063000", "104146.066000", "104146.069000", "104146.071000", "104146.074000", "104146.077000", "104146.080000", "104146.083000", "104146.086000", "104146.089000", "104146.091000", "104146.094000", "104146.097000", "104146.100000", "104146.103000", "104146.106000", "104146.109000", "104146.111000", "104146.115000", "104146.117000", "104146.120000", "104226.030000", "104226.033000", "104226.036000", "104226.039000", "104226.042000", "104226.044000", "104226.047000", "104226.050000", "104226.053000", "104226.056000", "104226.059000", "104226.062000", "104226.064000", "104226.067000", "104226.070000", "104226.073000", "104226.076000", "104226.079000", "104226.081000", "104226.084000", "104226.087000", "104226.090000", "104226.093000", "104226.096000", "104226.099000", "104226.101000", "104226.104000", "104306.030000", "104306.033000", "104306.036000", "104306.039000", "104306.042000", "104306.044000", "104306.047000", "104306.050000", "104306.053000", "104306.062000", "104306.065000", "104306.068000", "104306.071000", "104306.073000", "104306.076000", "104306.079000", "104306.082000", "104306.085000", "104306.088000", "104306.091000", "104306.094000", "104306.096000", "104306.099000", "104306.102000", "104306.105000", "104306.108000", "104306.111000", "104346.031000", "104346.034000", "104346.037000", "104346.040000", "104346.042000", "104346.045000", "104346.048000", "104346.051000", "104346.054000", "104346.057000", "104346.060000", "104346.063000", "104346.066000", "104346.068000", "104346.071000", "104346.074000", "104346.077000", "104346.080000", "104346.083000", "104346.086000", "104346.088000", "104346.091000", "104346.094000", "104346.097000", "104346.100000", "104346.103000", "104426.031000", "104426.034000", "104426.037000", "104426.040000", "104426.043000", "104426.045000", "104426.048000", "104426.051000", "104426.054000", "104426.057000", "104426.060000", "104426.063000", "104426.066000", "104426.068000", "104426.071000", "104426.074000", "104426.077000", "104426.080000", "104426.083000", "104426.086000", "104426.089000", "104426.092000", "104426.094000", "104426.097000", "104426.100000", "104426.103000", "104426.106000", "104506.030000", "104506.033000", "104506.036000", "104506.039000", "104506.042000", "104506.045000", "104506.048000", "104506.050000", "104506.053000", "104506.056000", "104506.059000", "104506.062000", "104506.065000", "104506.068000", "104506.071000", "104506.073000", "104506.076000", "104506.079000", "104506.082000", "104506.085000", "104506.088000", "104506.090000", "104506.093000", "104506.096000", "104506.099000", "104506.102000", "104506.105000", "104546.031000", "104546.034000", "104546.037000", "104546.040000", "104546.043000", "104546.046000", "104546.049000", "104546.051000", "104546.054000", "104546.057000", "104546.060000", "104546.063000", "104546.066000", "104546.069000", "104546.072000", "104546.075000", "104546.077000", "104546.080000", "104546.083000", "104546.086000", "104546.089000", "104546.092000", "104546.095000", "104546.098000", "104546.100000", "104546.103000", "104546.106000", "104626.031000", "104626.034000", "104626.037000", "104626.040000", "104626.043000", "104626.045000", "104626.048000", "104626.051000", "104626.054000", "104626.057000", "104626.060000", "104626.063000", "104626.066000", "104626.068000", "104626.071000", "104626.074000", "104626.077000", "104626.080000", "104626.083000", "104626.085000", "104626.088000", "104626.091000", "104626.094000", "104626.097000", "104626.100000", "104626.103000", "104626.106000", "104706.030000", "104706.033000", "104706.036000", "104706.039000", "104706.042000", "104706.045000", "104706.055000", "104706.058000", "104706.061000", "104706.064000", "104706.067000", "104706.070000", "104706.073000", "104706.075000", "104706.078000", "104706.081000", "104706.084000", "104706.087000", "104706.090000", "104706.093000", "104706.095000", "104706.098000", "104706.101000", "104706.104000", "104706.107000", "104706.110000", "104706.113000", "104746.030000", "104746.034000", "104746.038000", "104746.041000", "104746.044000", "104746.047000", "104746.050000", "104746.053000", "104746.056000", "104746.058000", "104746.061000", "104746.064000", "104746.067000", "104746.070000", "104746.073000", "104746.076000", "104746.079000", "104746.082000", "104746.084000", "104746.087000", "104746.090000", "104746.093000", "104746.096000", "104746.099000", "104746.102000", "104746.105000", "104826.031000", "104826.034000", "104826.037000", "104826.040000", "104826.043000", "104826.045000", "104826.048000", "104826.051000", "104826.054000", "104826.057000", "104826.060000", "104826.063000", "104826.076000", "104826.079000", "104826.082000", "104826.085000", "104826.088000", "104826.091000", "104826.094000", "104826.096000", "104826.099000", "104826.102000", "104826.105000", "104826.108000", "104826.111000", "104826.114000", "104826.117000", "104906.031000", "104906.034000", "104906.037000", "104906.040000", "104906.043000", "104906.045000", "104906.048000", "104906.051000", "104906.054000", "104906.057000", "104906.060000", "104906.063000", "104906.066000", "104906.069000", "104906.071000", "104906.074000", "104906.077000", "104906.080000", "104906.083000", "104906.086000", "104906.089000", "104906.091000", "104906.094000", "104906.097000", "104906.100000", "104906.103000", "104906.106000", "104945.281000", "104945.284000", "104945.287000", "104945.290000", "104945.293000", "104945.296000", "104945.299000", "104945.302000", "104945.304000", "104945.307000", "104945.311000", "104945.314000", "104945.317000", "104945.319000", "104945.323000", "104945.325000", "104945.328000", "104945.331000", "104945.334000", "104945.337000", "104945.340000", "104945.343000", "104945.346000", "104945.349000", "104945.352000", "104945.355000", "104945.358000"],
