{
  "AcquisitionMatrixPE": 104,
  "AcquisitionNumber": 1,
  "AcquisitionTime": "10:50:11.192500",
  "BandwidthPerPixelPhaseEncode": 17.17,
  "BaseResolution": 104,
  "BodyPartExamined": "BRAIN",
  "CoilString": "HC1-7;NC1_2",
  "ConsistencyInfo": "N4_VE11C_LATEST_20160120",
  "ConversionSoftware": "dcm2niix",
  "ConversionSoftwareVersion": "v1.0.20190902",
  "DerivedVendorReportedEchoSpacing": 0.000560011,
  "DeviceSerialNumber": "167006",
  "DwellTime": 2.1e-06,
  "EchoTime": 0.037,
  "EchoTrainLength": 104,
  "EffectiveEchoSpacing": 0.000560011,
  "FlipAngle": 52,
  "ImageComments": "Unaliased_MB4_PE3_LB",
  "ImageOrientationPatientDICOM": [0.999985, -0.000625981, 0.00544988, 0.00331615, 0.860377, -0.509648],
  "ImageType": [
    "ORIGINAL",
    "PRIMARY",
    "M",
    "MB",
    "ND",
    "MOSAIC"
],
  "ImagingFrequency": 123.259,
  "InPlanePhaseEncodingDirectionDICOM": "COL",
  "InstitutionAddress": "Chemin_Queen-Mary_4565_Montreal_District_CA_H3W_1W5",
  "InstitutionName": "IUGM",
  "InstitutionalDepartmentName": "Department",
  "MRAcquisitionType": "2D",
  "MagneticFieldStrength": 3,
  "Manufacturer": "Siemens",
  "ManufacturersModelName": "Prisma_fit",
  "Modality": "MR",
  "MultibandAccelerationFactor": 4,
  "PartialFourier": 1,
  "PatientPosition": "HFS",
  "PercentPhaseFOV": 100,
  "PhaseEncodingDirection": "j",
  "PhaseEncodingSteps": 104,
  "PhaseResolution": 1,
  "PixelBandwidth": 2290,
  "ProcedureStepDescription": "video_friends",
  "ProtocolName": "func_task-friends-s04e15b",
  "PulseSequenceDetails": "%CustomerSeq%_cmrr_mbep2d_bold",
  "ReceiveCoilActiveElements": "HC1-7;NC1,2",
  "ReceiveCoilName": "HeadNeck_64",
  "ReconMatrixPE": 104,
  "RepetitionTime": 1.49,
  "SAR": 0.0370311,
  "ScanOptions": "FS",
  "ScanningSequence": "EP",
  "SequenceName": "epfid2d1_104",
  "SequenceVariant": "SK_SS",
  "SeriesDescription": "func_task-friends-s04e15b",
  "SeriesNumber": 19,
  "ShimSetting": [626, -7202, -8874, 382, -15, -211, 5, -28],
  "SliceThickness": 2,
  "SliceTiming": [0, 0.785, 0.0975, 0.8825, 0.1975, 0.98, 0.295, 1.0775, 0.3925, 1.1775, 0.49, 1.275, 0.5875, 1.3725, 0.6875, 0, 0.785, 0.0975, 0.8825, 0.1975, 0.98, 0.295, 1.0775, 0.3925, 1.1775, 0.49, 1.275, 0.5875, 1.3725, 0.6875, 0, 0.785, 0.0975, 0.8825, 0.1975, 0.98, 0.295, 1.0775, 0.3925, 1.1775, 0.49, 1.275, 0.5875, 1.3725, 0.6875, 0, 0.785, 0.0975, 0.8825, 0.1975, 0.98, 0.295, 1.0775, 0.3925, 1.1775, 0.49, 1.275, 0.5875, 1.3725, 0.6875],
  "SoftwareVersions": "syngo_MR_E11",
  "SpacingBetweenSlices": 2,
  "StationName": "MRC35049",
  "TaskName": "s04e15b",
  "TotalReadoutTime": 0.0576811,
  "TxRefAmp": 252.593,
  "WipMemBlock": "3871ac33-26c8-4738-82b8-9535079692d5||Sequence: R016 ve11c/master r/e634e98; Dec 19 2017 11:00:25 by eja",
  "dcmmeta_affine": [
    [-1.9999699592590332, 0.006632301956415176, 0.008739843033254147, 103.00021362304688],
    [0.0012519628508016467, 1.7207533121109009, -1.0193166732788086, -59.08806228637695],
    [0.01089976541697979, 1.0192959308624268, 1.7207316160202026, -97.70439910888672],
    [0.0, 0.0, 0.0, 1.0]
],
  "dcmmeta_reorient_transform": [
    [0.0, -1.0, 0.0, 103.0],
    [1.0, 0.0, 0.0, 0.0],
    [0.0, 0.0, 1.0, 0.0],
    [0.0, 0.0, 0.0, 1.0]
],
  "dcmmeta_shape": [104, 104, 60, 444],
  "dcmmeta_slice_dim": 2,
  "dcmmeta_version": 0.6,
  "global": {
    "const": {
      "AcquisitionMatrix": [104, 0, 0, 104],
      "AngioFlag": "N",
      "BitsAllocated": 16,
      "BitsStored": 16,
      "BodyPartExamined": "BRAIN",
      "Columns": 832,
      "EchoNumbers": 1,
      "EchoTime": 37.0,
      "EchoTrainLength": 104,
      "FlipAngle": 52.0,
      "HighBit": 15,
      "ImageOrientationPatient": [0.99998495335079, -0.0006259814157, 0.0054498825014, 0.00331615105939, 0.86037665278505, -0.509647935819],
      "ImagePositionPatient": [-834.08654453264, -744.04801504599, 374.33926168347],
      "ImageType": [
        "ORIGINAL",
        "PRIMARY",
        "M",
        "MB",
        "ND",
        "MOSAIC"
],
      "ImagedNucleus": "1H",
      "ImagingFrequency": 123.259033,
      "InPlanePhaseEncodingDirection": "COL",
      "MRAcquisitionType": "2D",
      "MagneticFieldStrength": 3.0,
      "Manufacturer": "SIEMENS",
      "ManufacturerModelName": "Prisma_fit",
      "Modality": "MR",
      "NumberOfAverages": 1.0,
      "NumberOfPhaseEncodingSteps": 104,
      "PercentPhaseFieldOfView": 100.0,
      "PercentSampling": 100.0,
      "PerformedProcedureStepStartTime": "090614.525000",
      "PhotometricInterpretation": "MONOCHROME2",
      "PixelBandwidth": 2290.0,
      "PixelRepresentation": 0,
      "PixelSpacing": [2.0, 2.0],
      "ProtocolName": "func_task-friends-s04e15b",
      "RepetitionTime": 1490.0,
      "Rows": 832,
      "SAR": 0.03703106974712,
      "SamplesPerPixel": 1,
      "ScanOptions": "FS",
      "ScanningSequence": "EP",
      "SequenceName": "epfid2d1_104",
      "SequenceVariant": [
        "SK",
        "SS"
],
      "SeriesDescription": "func_task-friends-s04e15b",
      "SeriesNumber": 19,
      "SeriesTime": "105125.686000",
      "SliceLocation": -53.496691521513,
      "SliceThickness": 2.0,
      "SmallestImagePixelValue": 0,
      "SoftwareVersions": "syngo MR E11",
      "SpacingBetweenSlices": 1.9999999954304,
      "SpecificCharacterSet": "ISO_IR 100",
      "StudyID": "1",
      "StudyTime": "090614.464000",
      "TransmitCoilName": "Body",
      "VariableFlipAngleFlag": "N",
      "WindowCenterWidthExplanation": "Algo1",
      "dBdt": 0.0},
    "slices": {}
  },
  "time": {
    "samples": {
      "AcquisitionNumber": [1, 2, 3, 4, 5, 6, 7, 8, 9, 10, 11, 12, 13, 14, 15, 16, 17, 18, 19, 20, 21, 22, 23, 24, 25, 26, 27, 28, 29, 30, 31, 32, 33, 34, 35, 36, 37, 38, 39, 40, 41, 42, 43, 44, 45, 46, 47, 48, 49, 50, 51, 52, 53, 54, 55, 56, 57, 58, 59, 60, 61, 62, 63, 64, 65, 66, 67, 68, 69, 70, 71, 72, 73, 74, 75, 76, 77, 78, 79, 80, 81, 82, 83, 84, 85, 86, 87, 88, 89, 90, 91, 92, 93, 94, 95, 96, 97, 98, 99, 100, 101, 102, 103, 104, 105, 106, 107, 108, 109, 110, 111, 112, 113, 114, 115, 116, 117, 118, 119, 120, 121, 122, 123, 124, 125, 126, 127, 128, 129, 130, 131, 132, 133, 134, 135, 136, 137, 138, 139, 140, 141, 142, 143, 144, 145, 146, 147, 148, 149, 150, 151, 152, 153, 154, 155, 156, 157, 158, 159, 160, 161, 162, 163, 164, 165, 166, 167, 168, 169, 170, 171, 172, 173, 174, 175, 176, 177, 178, 179, 180, 181, 182, 183, 184, 185, 186, 187, 188, 189, 190, 191, 192, 193, 194, 195, 196, 197, 198, 199, 200, 201, 202, 203, 204, 205, 206, 207, 208, 209, 210, 211, 212, 213, 214, 215, 216, 217, 218, 219, 220, 221, 222, 223, 224, 225, 226, 227, 228, 229, 230, 231, 232, 233, 234, 235, 236, 237, 238, 239, 240, 241, 242, 243, 244, 245, 246, 247, 248, 249, 250, 251, 252, 253, 254, 255, 256, 257, 258, 259, 260, 261, 262, 263, 264, 265, 266, 267, 268, 269, 270, 271, 272, 273, 274, 275, 276, 277, 278, 279, 280, 281, 282, 283, 284, 285, 286, 287, 288, 289, 290, 291, 292, 293, 294, 295, 296, 297, 298, 299, 300, 301, 302, 303, 304, 305, 306, 307, 308, 309, 310, 311, 312, 313, 314, 315, 316, 317, 318, 319, 320, 321, 322, 323, 324, 325, 326, 327, 328, 329, 330, 331, 332, 333, 334, 335, 336, 337, 338, 339, 340, 341, 342, 343, 344, 345, 346, 347, 348, 349, 350, 351, 352, 353, 354, 355, 356, 357, 358, 359, 360, 361, 362, 363, 364, 365, 366, 367, 368, 369, 370, 371, 372, 373, 374, 375, 376, 377, 378, 379, 380, 381, 382, 383, 384, 385, 386, 387, 388, 389, 390, 391, 392, 393, 394, 395, 396, 397, 398, 399, 400, 401, 402, 403, 404, 405, 406, 407, 408, 409, 410, 411, 412, 413, 414, 415, 416, 417, 418, 419, 420, 421, 422, 423, 424, 425, 426, 427, 428, 429, 430, 431, 432, 433, 434, 435, 436, 437, 438, 439, 440, 441, 442, 443, 444],
      "AcquisitionTime": ["105011.192500", "105012.682500", "105014.172500", "105015.662500", "105017.152500", "105018.642500", "105020.132500", "105021.622500", "105023.112500", "105024.602500", "105026.092500", "105027.582500", "105029.072500", "105030.562500", "105032.052500", "105033.542500", "105035.032500", "105036.522500", "105038.012500", "105039.502500", "105040.992500", "105042.482500", "105043.972500", "105045.462500", "105046.952500", "105048.442500", "105049.932500", "105051.422500", "105052.912500", "105054.402500", "105055.892500", "105057.382500", "105058.872500", "105100.362500", "105101.852500", "105103.342500", "105104.832500", "105106.322500", "105107.812500", "105109.302500", "105110.792500", "105112.282500", "105113.772500", "105115.262500", "105116.752500", "105118.242500", "105119.732500", "105121.222500", "105122.712500", "105124.202500", "105125.692500", "105127.182500", "105128.672500", "105130.162500", "105131.652500", "105133.142500", "105134.632500", "105136.122500", "105137.612500", "105139.102500", "105140.592500", "105142.082500", "105143.572500", "105145.062500", "105146.552500", "105148.042500", "105149.532500", "105151.022500", "105152.512500", "105154.002500", "105155.492500", "105156.982500", "105158.472500", "105159.962500", "105201.452500", "105202.942500", "105204.432500", "105205.922500", "105207.412500", "105208.902500", "105210.392500", "105211.882500", "105213.372500", "105214.862500", "105216.352500", "105217.842500", "105219.332500", "105220.822500", "105222.312500", "105223.802500", "105225.292500", "105226.782500", "105228.272500", "105229.762500", "105231.252500", "105232.742500", "105234.232500", "105235.722500", "105237.212500", "105238.702500", "105240.192500", "105241.682500", "105243.172500", "105244.662500", "105246.152500", "105247.642500", "105249.132500", "105250.622500", "105252.112500", "105253.602500", "105255.092500", "105256.582500", "105258.072500", "105259.562500", "105301.052500", "105302.542500", "105304.032500", "105305.522500", "105307.012500", "105308.502500", "105309.992500", "105311.482500", "105312.972500", "105314.462500", "105315.952500", "105317.442500", "105318.932500", "105320.422500", "105321.912500", "105323.402500", "105324.892500", "105326.382500", "105327.872500", "105329.362500", "105330.852500", "105332.342500", "105333.832500", "105335.322500", "105336.812500", "105338.302500", "105339.792500", "105341.282500", "105342.772500", "105344.262500", "105345.752500", "105347.242500", "105348.732500", "105350.222500", "105351.712500", "105353.202500", "105354.692500", "105356.182500", "105357.672500", "105359.162500", "105400.652500", "105402.142500", "105403.632500", "105405.122500", "105406.612500", "105408.102500", "105409.592500", "105411.082500", "105412.572500", "105414.062500", "105415.552500", "105417.042500", "105418.532500", "105420.022500", "105421.512500", "105423.002500", "105424.492500", "105425.982500", "105427.472500", "105428.962500", "105430.452500", "105431.942500", "105433.432500", "105434.922500", "105436.412500", "105437.902500", "105439.392500", "105440.882500", "105442.372500", "105443.862500", "105445.352500", "105446.842500", "105448.332500", "105449.822500", "105451.312500", "105452.802500", "105454.292500", "105455.782500", "105457.272500", "105458.762500", "105500.252500", "105501.742500", "105503.232500", "105504.722500", "105506.212500", "105507.702500", "105509.192500", "105510.682500", "105512.172500", "105513.662500", "105515.152500", "105516.642500", "105518.132500", "105519.622500", "105521.112500", "105522.602500", "105524.092500", "105525.582500", "105527.072500", "105528.562500", "105530.052500", "105531.542500", "105533.032500", "105534.522500", "105536.012500", "105537.502500", "105538.992500", "105540.482500", "105541.972500", "105543.462500", "105544.952500", "105546.442500", "105547.932500", "105549.422500", "105550.912500", "105552.402500", "105553.892500", "105555.382500", "105556.872500", "105558.362500", "105559.852500", "105601.342500", "105602.832500", "105604.322500", "105605.812500", "105607.302500", "105608.792500", "105610.282500", "105611.772500", "105613.262500", "105614.752500", "105616.242500", "105617.732500", "105619.222500", "105620.712500", "105622.202500", "105623.692500", "105625.182500", "105626.672500", "105628.162500", "105629.652500", "105631.142500", "105632.632500", "105634.122500", "105635.612500", "105637.102500", "105638.592500", "105640.082500", "105641.572500", "105643.062500", "105644.552500", "105646.042500", "105647.532500", "105649.022500", "105650.512500", "105652.002500", "105653.492500", "105654.982500", "105656.472500", "105657.962500", "105659.452500", "105700.942500", "105702.432500", "105703.922500", "105705.412500", "105706.902500", "105708.392500", "105709.882500", "105711.372500", "105712.862500", "105714.352500", "105715.842500", "105717.332500", "105718.822500", "105720.312500", "105721.802500", "105723.292500", "105724.782500", "105726.272500", "105727.762500", "105729.252500", "105730.742500", "105732.232500", "105733.722500", "105735.212500", "105736.702500", "105738.192500", "105739.682500", "105741.172500", "105742.662500", "105744.152500", "105745.642500", "105747.132500", "105748.622500", "105750.112500", "105751.602500", "105753.092500", "105754.582500", "105756.072500", "105757.562500", "105759.052500", "105800.542500", "105802.032500", "105803.522500", "105805.012500", "105806.502500", "105807.992500", "105809.482500", "105810.972500", "105812.462500", "105813.952500", "105815.442500", "105816.932500", "105818.422500", "105819.912500", "105821.402500", "105822.892500", "105824.382500", "105825.872500", "105827.362500", "105828.852500", "105830.342500", "105831.832500", "105833.322500", "105834.812500", "105836.302500", "105837.792500", "105839.282500", "105840.772500", "105842.262500", "105843.752500", "105845.242500", "105846.732500", "105848.222500", "105849.712500", "105851.202500", "105852.692500", "105854.182500", "105855.672500", "105857.162500", "105858.652500", "105900.142500", "105901.632500", "105903.122500", "105904.612500", "105906.102500", "105907.592500", "105909.082500", "105910.572500", "105912.062500", "105913.552500", "105915.042500", "105916.532500", "105918.022500", "105919.512500", "105921.002500", "105922.492500", "105923.982500", "105925.472500", "105926.962500", "105928.452500", "105929.942500", "105931.432500", "105932.922500", "105934.412500", "105935.902500", "105937.392500", "105938.882500", "105940.372500", "105941.862500", "105943.352500", "105944.842500", "105946.332500", "105947.822500", "105949.312500", "105950.802500", "105952.292500", "105953.782500", "105955.272500", "105956.762500", "105958.252500", "105959.742500", "110001.232500", "110002.722500", "110004.212500", "110005.702500", "110007.192500", "110008.682500", "110010.172500", "110011.662500", "110013.152500", "110014.642500", "110016.132500", "110017.622500", "110019.112500", "110020.602500", "110022.092500", "110023.582500", "110025.072500", "110026.562500", "110028.052500", "110029.542500", "110031.032500", "110032.522500", "110034.012500", "110035.502500", "110036.992500", "110038.482500", "110039.972500", "110041.462500", "110042.952500", "110044.442500", "110045.932500", "110047.422500", "110048.912500", "110050.402500", "110051.892500", "110053.382500", "110054.872500", "110056.362500", "110057.852500", "110059.342500", "110100.832500", "110102.322500", "110103.812500", "110105.302500", "110106.792500", "110108.282500", "110109.772500", "110111.262500"],
      "ContentTime": ["105125.690000", "105125.694000", "105125.698000", "105125.711000", "105125.714000", "105125.717000", "105125.720000", "105125.723000", "105125.726000", "105125.729000", "105125.731000", "105125.734000", "105125.737000", "105125.740000", "105125.743000", "105125.751000", "105125.754000", "105125.757000", "105125.759000", "105125.762000", "105145.656000", "105145.659000", "105145.662000", "105145.670000", "105145.673000", "105145.676000", "105145.679000", "105145.682000", "105145.685000", "105145.688000", "105145.690000", "105145.698000", "105145.701000", "105145.703000", "105145.706000", "105145.709000", "105145.712000", "105145.715000", "105145.718000", "105145.721000", "105145.723000", "105205.656000", "105205.659000", "105205.662000", "105205.665000", "105205.668000", "105205.670000", "105205.673000", "105205.676000", "105205.679000", "105205.682000", "105205.685000", "105205.688000", "105205.690000", "105205.693000", "105205.696000", "105205.699000", "105205.702000", "105205.705000", "105205.708000", "105205.710000", "105225.656000", "105225.659000", "105225.662000", "105225.665000", "105225.667000", "105225.670000", "105225.673000", "105225.676000", "105225.679000", "105225.682000", "105225.685000", "105225.687000", "105225.690000", "105225.693000", "105225.696000", "105225.699000", "105225.702000", "105225.705000", "105225.708000", "105225.710000", "105245.657000", "105245.660000", "105245.663000", "105245.666000", "105245.669000", "105245.671000", "105245.674000", "105245.677000", "105245.680000", "105245.683000", "105245.686000", "105245.701000", "105245.704000", "105245.707000", "105245.710000", "105245.713000", "105245.716000", "105245.718000", "105245.721000", "105245.724000", "105325.656000", "105325.659000", "105325.662000", "105325.665000", "105325.668000", "105325.670000", "105325.673000", "105325.676000", "105325.679000", "105325.682000", "105325.685000", "105325.688000", "105325.690000", "105325.693000", "105325.696000", "105325.699000", "105325.702000", "105325.705000", "105325.708000", "105325.710000", "105325.713000", "105325.716000", "105325.719000", "105325.722000", "105325.725000", "105325.728000", "105325.730000", "105325.733000", "105325.736000", "105405.656000", "105405.659000", "105405.662000", "105405.665000", "105405.668000", "105405.671000", "105405.674000", "105405.677000", "105405.680000", "105405.683000", "105405.686000", "105405.689000", "105405.693000", "105405.696000", "105405.699000", "105405.702000", "105405.705000", "105405.708000", "105405.711000", "105405.714000", "105405.717000", "105405.720000", "105405.723000", "105405.726000", "105405.729000", "105405.732000", "105445.656000", "105445.659000", "105445.662000", "105445.665000", "105445.668000", "105445.671000", "105445.673000", "105445.676000", "105445.679000", "105445.682000", "105445.685000", "105445.688000", "105445.691000", "105445.693000", "105445.696000", "105445.699000", "105445.702000", "105445.705000", "105445.708000", "105445.711000", "105445.714000", "105445.717000", "105445.719000", "105445.722000", "105445.725000", "105445.728000", "105445.731000", "105525.656000", "105525.659000", "105525.662000", "105525.665000", "105525.668000", "105525.671000", "105525.674000", "105525.677000", "105525.679000", "105525.682000", "105525.685000", "105525.688000", "105525.691000", "105525.694000", "105525.697000", "105525.699000", "105525.702000", "105525.705000", "105525.708000", "105525.711000", "105525.714000", "105525.717000", "105525.720000", "105525.722000", "105525.725000", "105525.728000", "105525.731000", "105605.656000", "105605.659000", "105605.662000", "105605.665000", "105605.668000", "105605.671000", "105605.674000", "105605.683000", "105605.686000", "105605.689000", "105605.692000", "105605.695000", "105605.698000", "105605.701000", "105605.704000", "105605.706000", "105605.709000", "105605.712000", "105605.715000", "105605.718000", "105605.721000", "105605.724000", "105605.727000", "105605.729000", "105605.732000", "105605.735000", "105605.738000", "105645.656000", "105645.659000", "105645.662000", "105645.665000", "105645.668000", "105645.671000", "105645.673000", "105645.676000", "105645.679000", "105645.682000", "105645.685000", "105645.688000", "105645.691000", "105645.694000", "105645.696000", "105645.699000", "105645.702000", "105645.705000", "105645.708000", "105645.711000", "105645.714000", "105645.717000", "105645.720000", "105645.723000", "105645.725000", "105645.728000", "105645.731000", "105725.657000", "105725.660000", "105725.663000", "105725.666000", "105725.669000", "105725.672000", "105725.675000", "105725.678000", "105725.680000", "105725.683000", "105725.686000", "105725.689000", "105725.692000", "105725.695000", "105725.698000", "105725.700000", "105725.703000", "105725.706000", "105725.709000", "105725.712000", "105725.715000", "105725.718000", "105725.721000", "105725.724000", "105725.726000", "105725.729000", "105725.732000", "105805.656000", "105805.659000", "105805.662000", "105805.676000", "105805.679000", "105805.681000", "105805.684000", "105805.687000", "105805.690000", "105805.693000", "105805.696000", "105805.699000", "105805.701000", "105805.704000", "105805.707000", "105805.710000", "105805.713000", "105805.716000", "105805.719000", "105805.722000", "105805.725000", "105805.728000", "105805.730000", "105805.733000", "105805.736000", "105805.739000", "105805.742000", "105845.656000", "105845.659000", "105845.662000", "105845.665000", "105845.668000", "105845.671000", "105845.674000", "105845.677000", "105845.680000", "105845.683000", "105845.686000", "105845.689000", "105845.692000", "105845.694000", "105845.697000", "105845.700000", "105845.703000", "105845.706000", "105845.709000", "105845.712000", "105845.715000", "105845.718000", "105845.720000", "105845.723000", "105845.726000", "105845.729000", "105925.656000", "105925.659000", "105925.662000", "105925.665000", "105925.668000", "105925.671000", "105925.673000", "105925.676000", "105925.679000", "105925.682000", "105925.685000", "105925.688000", "105925.691000", "105925.694000", "105925.696000", "105925.699000", "105925.702000", "105925.705000", "105925.708000", "105925.711000", "105925.714000", "105925.717000", "105925.719000", "105925.722000", "105925.725000", "105925.728000", "105925.731000", "110005.656000", "110005.659000", "110005.662000", "110005.665000", "110005.668000", "110005.671000", "110005.674000", "110005.677000", "110005.680000", "110005.682000", "110005.685000", "110005.688000", "110005.691000", "110005.694000", "110005.697000", "110005.700000", "110005.703000", "110005.706000", "110005.709000", "110005.712000", "110005.715000", "110005.718000", "110005.721000", "110005.723000", "110005.726000", "110005.729000", "110005.732000", "110045.656000", "110045.659000", "110045.662000", "110045.665000", "110045.668000", "110045.671000", "110045.674000", "110045.676000", "110045.679000", "110045.682000", "110045.685000", "110045.688000", "110045.691000", "110045.694000", "110045.697000", "110045.699000", "110045.702000", "110045.705000", "110045.708000", "110045.711000", "110045.714000", "110045.717000", "110045.720000", "110045.723000", "110045.725000", "110045.728000", "110045.731000", "110113.366000", "110113.369000", "110113.372000", "110113.375000", "110113.386000", "110113.388000", "110113.391000", "110113.394000", "110113.397000", "110113.400000", "110113.403000", "110113.406000", "110113.409000", "110113.412000", "110113.414000", "110113.417000", "110113.420000", "110113.423000", "110113.426000"],
