{
  "AcquisitionMatrixPE": 104,
  "AcquisitionNumber": 1,
  "AcquisitionTime": "10:27:5.257500",
  "BandwidthPerPixelPhaseEncode": 17.17,
  "BaseResolution": 104,
  "BodyPartExamined": "BRAIN",
  "CoilString": "HC1-7;NC1_2",
  "ConsistencyInfo": "N4_VE11C_LATEST_20160120",
  "ConversionSoftware": "dcm2niix",
  "ConversionSoftwareVersion": "v1.0.20190902",
  "DerivedVendorReportedEchoSpacing": 0.000560011,
  "DeviceSerialNumber": "167006",
  "DwellTime": 2.1e-06,
  "EchoTime": 0.037,
  "EchoTrainLength": 104,
  "EffectiveEchoSpacing": 0.000560011,
  "FlipAngle": 52,
  "ImageComments": "Unaliased_MB4_PE3_LB",
  "ImageOrientationPatientDICOM": [0.999985, -0.000625981, 0.00544988, 0.00331615, 0.860377, -0.509648],
  "ImageType": [
    "ORIGINAL",
    "PRIMARY",
    "M",
    "MB",
    "ND",
    "MOSAIC"
],
  "ImagingFrequency": 123.259,
  "InPlanePhaseEncodingDirectionDICOM": "COL",
  "InstitutionAddress": "Chemin_Queen-Mary_4565_Montreal_District_CA_H3W_1W5",
  "InstitutionName": "IUGM",
  "InstitutionalDepartmentName": "Department",
  "MRAcquisitionType": "2D",
  "MagneticFieldStrength": 3,
  "Manufacturer": "Siemens",
  "ManufacturersModelName": "Prisma_fit",
  "Modality": "MR",
  "MultibandAccelerationFactor": 4,
  "PartialFourier": 1,
  "PatientPosition": "HFS",
  "PercentPhaseFOV": 100,
  "PhaseEncodingDirection": "j",
  "PhaseEncodingSteps": 104,
  "PhaseResolution": 1,
  "PixelBandwidth": 2290,
  "ProcedureStepDescription": "video_friends",
  "ProtocolName": "func_task-friends-s04e14b",
  "PulseSequenceDetails": "%CustomerSeq%_cmrr_mbep2d_bold",
  "ReceiveCoilActiveElements": "HC1-7;NC1,2",
  "ReceiveCoilName": "HeadNeck_64",
  "ReconMatrixPE": 104,
  "RepetitionTime": 1.49,
  "SAR": 0.0370322,
  "ScanOptions": "FS",
  "ScanningSequence": "EP",
  "SequenceName": "epfid2d1_104",
  "SequenceVariant": "SK_SS",
  "SeriesDescription": "func_task-friends-s04e14b",
  "SeriesNumber": 15,
  "ShimSetting": [626, -7202, -8874, 382, -15, -211, 5, -28],
  "SliceThickness": 2,
  "SliceTiming": [0, 0.785, 0.0975, 0.8825, 0.195, 0.98, 0.295, 1.0775, 0.3925, 1.175, 0.49, 1.275, 0.5875, 1.3725, 0.685, 0, 0.785, 0.0975, 0.8825, 0.195, 0.98, 0.295, 1.0775, 0.3925, 1.175, 0.49, 1.275, 0.5875, 1.3725, 0.685, 0, 0.785, 0.0975, 0.8825, 0.195, 0.98, 0.295, 1.0775, 0.3925, 1.175, 0.49, 1.275, 0.5875, 1.3725, 0.685, 0, 0.785, 0.0975, 0.8825, 0.195, 0.98, 0.295, 1.0775, 0.3925, 1.175, 0.49, 1.275, 0.5875, 1.3725, 0.685],
  "SoftwareVersions": "syngo_MR_E11",
  "SpacingBetweenSlices": 2,
  "StationName": "MRC35049",
  "TaskName": "s04e14b",
  "TotalReadoutTime": 0.0576811,
  "TxRefAmp": 252.593,
  "WipMemBlock": "f1ee51c8-6c4d-498c-b8bc-f495e0e8363b||Sequence: R016 ve11c/master r/e634e98; Dec 19 2017 11:00:25 by eja",
  "dcmmeta_affine": [
    [-1.9999699592590332, 0.006632301956415176, 0.008739843033254147, 103.00021362304688],
    [0.0012519628508016467, 1.7207533121109009, -1.0193166732788086, -59.08806228637695],
    [0.01089976541697979, 1.0192959308624268, 1.7207316160202026, -97.70439910888672],
    [0.0, 0.0, 0.0, 1.0]
],
  "dcmmeta_reorient_transform": [
    [0.0, -1.0, 0.0, 103.0],
    [1.0, 0.0, 0.0, 0.0],
    [0.0, 0.0, 1.0, 0.0],
    [0.0, 0.0, 0.0, 1.0]
],
  "dcmmeta_shape": [104, 104, 60, 447],
  "dcmmeta_slice_dim": 2,
  "dcmmeta_version": 0.6,
  "global": {
    "const": {
      "AcquisitionMatrix": [104, 0, 0, 104],
      "AngioFlag": "N",
      "BitsAllocated": 16,
      "BitsStored": 16,
      "BodyPartExamined": "BRAIN",
      "Columns": 832,
      "EchoNumbers": 1,
      "EchoTime": 37.0,
      "EchoTrainLength": 104,
      "FlipAngle": 52.0,
      "HighBit": 15,
      "ImageOrientationPatient": [0.99998495335079, -0.0006259814157, 0.0054498825014, 0.00331615105939, 0.86037665278505, -0.509647935819],
      "ImagePositionPatient": [-834.08654453264, -744.04801504599, 374.33926168347],
      "ImageType": [
        "ORIGINAL",
        "PRIMARY",
        "M",
        "MB",
        "ND",
        "MOSAIC"
],
      "ImagedNucleus": "1H",
      "ImagingFrequency": 123.259028,
      "InPlanePhaseEncodingDirection": "COL",
      "MRAcquisitionType": "2D",
      "MagneticFieldStrength": 3.0,
      "Manufacturer": "SIEMENS",
      "ManufacturerModelName": "Prisma_fit",
      "Modality": "MR",
      "NumberOfAverages": 1.0,
      "NumberOfPhaseEncodingSteps": 104,
      "PercentPhaseFieldOfView": 100.0,
      "PercentSampling": 100.0,
      "PerformedProcedureStepStartTime": "090614.525000",
      "PhotometricInterpretation": "MONOCHROME2",
      "PixelBandwidth": 2290.0,
      "PixelRepresentation": 0,
      "PixelSpacing": [2.0, 2.0],
      "ProtocolName": "func_task-friends-s04e14b",
      "RepetitionTime": 1490.0,
      "Rows": 832,
      "SAR": 0.03703217457991,
      "SamplesPerPixel": 1,
      "ScanOptions": "FS",
      "ScanningSequence": "EP",
      "SequenceName": "epfid2d1_104",
      "SequenceVariant": [
        "SK",
        "SS"
],
      "SeriesDescription": "func_task-friends-s04e14b",
      "SeriesNumber": 15,
      "SeriesTime": "102831.443000",
      "SliceLocation": -53.496691521513,
      "SliceThickness": 2.0,
      "SmallestImagePixelValue": 0,
      "SoftwareVersions": "syngo MR E11",
      "SpacingBetweenSlices": 1.9999999954304,
      "SpecificCharacterSet": "ISO_IR 100",
      "StudyID": "1",
      "StudyTime": "090614.464000",
      "TransmitCoilName": "Body",
      "VariableFlipAngleFlag": "N",
      "WindowCenterWidthExplanation": "Algo1",
      "dBdt": 0.0},
    "slices": {}
  },
  "time": {
    "samples": {
      "AcquisitionNumber": [1, 2, 3, 4, 5, 6, 7, 8, 9, 10, 11, 12, 13, 14, 15, 16, 17, 18, 19, 20, 21, 22, 23, 24, 25, 26, 27, 28, 29, 30, 31, 32, 33, 34, 35, 36, 37, 38, 39, 40, 41, 42, 43, 44, 45, 46, 47, 48, 49, 50, 51, 52, 53, 54, 55, 56, 57, 58, 59, 60, 61, 62, 63, 64, 65, 66, 67, 68, 69, 70, 71, 72, 73, 74, 75, 76, 77, 78, 79, 80, 81, 82, 83, 84, 85, 86, 87, 88, 89, 90, 91, 92, 93, 94, 95, 96, 97, 98, 99, 100, 101, 102, 103, 104, 105, 106, 107, 108, 109, 110, 111, 112, 113, 114, 115, 116, 117, 118, 119, 120, 121, 122, 123, 124, 125, 126, 127, 128, 129, 130, 131, 132, 133, 134, 135, 136, 137, 138, 139, 140, 141, 142, 143, 144, 145, 146, 147, 148, 149, 150, 151, 152, 153, 154, 155, 156, 157, 158, 159, 160, 161, 162, 163, 164, 165, 166, 167, 168, 169, 170, 171, 172, 173, 174, 175, 176, 177, 178, 179, 180, 181, 182, 183, 184, 185, 186, 187, 188, 189, 190, 191, 192, 193, 194, 195, 196, 197, 198, 199, 200, 201, 202, 203, 204, 205, 206, 207, 208, 209, 210, 211, 212, 213, 214, 215, 216, 217, 218, 219, 220, 221, 222, 223, 224, 225, 226, 227, 228, 229, 230, 231, 232, 233, 234, 235, 236, 237, 238, 239, 240, 241, 242, 243, 244, 245, 246, 247, 248, 249, 250, 251, 252, 253, 254, 255, 256, 257, 258, 259, 260, 261, 262, 263, 264, 265, 266, 267, 268, 269, 270, 271, 272, 273, 274, 275, 276, 277, 278, 279, 280, 281, 282, 283, 284, 285, 286, 287, 288, 289, 290, 291, 292, 293, 294, 295, 296, 297, 298, 299, 300, 301, 302, 303, 304, 305, 306, 307, 308, 309, 310, 311, 312, 313, 314, 315, 316, 317, 318, 319, 320, 321, 322, 323, 324, 325, 326, 327, 328, 329, 330, 331, 332, 333, 334, 335, 336, 337, 338, 339, 340, 341, 342, 343, 344, 345, 346, 347, 348, 349, 350, 351, 352, 353, 354, 355, 356, 357, 358, 359, 360, 361, 362, 363, 364, 365, 366, 367, 368, 369, 370, 371, 372, 373, 374, 375, 376, 377, 378, 379, 380, 381, 382, 383, 384, 385, 386, 387, 388, 389, 390, 391, 392, 393, 394, 395, 396, 397, 398, 399, 400, 401, 402, 403, 404, 405, 406, 407, 408, 409, 410, 411, 412, 413, 414, 415, 416, 417, 418, 419, 420, 421, 422, 423, 424, 425, 426, 427, 428, 429, 430, 431, 432, 433, 434, 435, 436, 437, 438, 439, 440, 441, 442, 443, 444, 445, 446, 447],
      "AcquisitionTime": ["102705.257500", "102706.747500", "102708.237500", "102709.727500", "102711.217500", "102712.707500", "102714.197500", "102715.687500", "102717.177500", "102718.667500", "102720.157500", "102721.647500", "102723.137500", "102724.627500", "102726.117500", "102727.607500", "102729.097500", "102730.587500", "102732.077500", "102733.567500", "102735.057500", "102736.547500", "102738.037500", "102739.527500", "102741.017500", "102742.507500", "102743.997500", "102745.487500", "102746.977500", "102748.467500", "102749.957500", "102751.447500", "102752.937500", "102754.427500", "102755.917500", "102757.407500", "102758.897500", "102800.387500", "102801.877500", "102803.367500", "102804.857500", "102806.347500", "102807.837500", "102809.327500", "102810.817500", "102812.307500", "102813.797500", "102815.287500", "102816.777500", "102818.267500", "102819.757500", "102821.247500", "102822.737500", "102824.227500", "102825.717500", "102827.207500", "102828.697500", "102830.187500", "102831.677500", "102833.167500", "102834.657500", "102836.147500", "102837.637500", "102839.127500", "102840.617500", "102842.107500", "102843.597500", "102845.087500", "102846.577500", "102848.067500", "102849.557500", "102851.047500", "102852.537500", "102854.027500", "102855.517500", "102857.007500", "102858.497500", "102859.987500", "102901.477500", "102902.967500", "102904.457500", "102905.947500", "102907.437500", "102908.927500", "102910.417500", "102911.907500", "102913.397500", "102914.887500", "102916.377500", "102917.867500", "102919.357500", "102920.847500", "102922.337500", "102923.827500", "102925.317500", "102926.807500", "102928.297500", "102929.787500", "102931.277500", "102932.767500", "102934.257500", "102935.747500", "102937.237500", "102938.727500", "102940.217500", "102941.707500", "102943.197500", "102944.687500", "102946.177500", "102947.667500", "102949.157500", "102950.647500", "102952.137500", "102953.627500", "102955.117500", "102956.607500", "102958.097500", "102959.587500", "103001.077500", "103002.567500", "103004.057500", "103005.547500", "103007.037500", "103008.527500", "103010.017500", "103011.507500", "103012.997500", "103014.487500", "103015.977500", "103017.467500", "103018.957500", "103020.447500", "103021.937500", "103023.427500", "103024.917500", "103026.407500", "103027.897500", "103029.387500", "103030.877500", "103032.367500", "103033.857500", "103035.347500", "103036.837500", "103038.327500", "103039.817500", "103041.307500", "103042.797500", "103044.287500", "103045.777500", "103047.267500", "103048.757500", "103050.247500", "103051.737500", "103053.227500", "103054.717500", "103056.207500", "103057.697500", "103059.187500", "103100.677500", "103102.167500", "103103.657500", "103105.147500", "103106.637500", "103108.127500", "103109.617500", "103111.107500", "103112.597500", "103114.087500", "103115.577500", "103117.067500", "103118.557500", "103120.047500", "103121.537500", "103123.027500", "103124.517500", "103126.007500", "103127.497500", "103128.987500", "103130.477500", "103131.967500", "103133.457500", "103134.947500", "103136.437500", "103137.927500", "103139.417500", "103140.907500", "103142.397500", "103143.887500", "103145.377500", "103146.867500", "103148.357500", "103149.847500", "103151.337500", "103152.827500", "103154.317500", "103155.807500", "103157.297500", "103158.787500", "103200.277500", "103201.767500", "103203.257500", "103204.747500", "103206.237500", "103207.727500", "103209.217500", "103210.707500", "103212.197500", "103213.687500", "103215.177500", "103216.667500", "103218.157500", "103219.647500", "103221.137500", "103222.627500", "103224.117500", "103225.607500", "103227.097500", "103228.587500", "103230.077500", "103231.567500", "103233.057500", "103234.547500", "103236.037500", "103237.527500", "103239.017500", "103240.507500", "103241.997500", "103243.487500", "103244.977500", "103246.467500", "103247.957500", "103249.447500", "103250.937500", "103252.427500", "103253.917500", "103255.407500", "103256.897500", "103258.387500", "103259.877500", "103301.367500", "103302.857500", "103304.347500", "103305.837500", "103307.327500", "103308.817500", "103310.307500", "103311.797500", "103313.287500", "103314.777500", "103316.267500", "103317.757500", "103319.247500", "103320.737500", "103322.227500", "103323.717500", "103325.207500", "103326.697500", "103328.187500", "103329.677500", "103331.167500", "103332.657500", "103334.147500", "103335.637500", "103337.127500", "103338.617500", "103340.107500", "103341.597500", "103343.087500", "103344.577500", "103346.067500", "103347.557500", "103349.047500", "103350.537500", "103352.027500", "103353.517500", "103355.007500", "103356.497500", "103357.987500", "103359.477500", "103400.967500", "103402.457500", "103403.947500", "103405.437500", "103406.927500", "103408.417500", "103409.907500", "103411.397500", "103412.887500", "103414.377500", "103415.867500", "103417.357500", "103418.847500", "103420.337500", "103421.827500", "103423.317500", "103424.807500", "103426.297500", "103427.787500", "103429.277500", "103430.767500", "103432.257500", "103433.747500", "103435.237500", "103436.727500", "103438.217500", "103439.707500", "103441.197500", "103442.687500", "103444.177500", "103445.667500", "103447.157500", "103448.647500", "103450.137500", "103451.627500", "103453.117500", "103454.607500", "103456.097500", "103457.587500", "103459.077500", "103500.567500", "103502.057500", "103503.547500", "103505.037500", "103506.527500", "103508.017500", "103509.507500", "103510.997500", "103512.487500", "103513.977500", "103515.467500", "103516.957500", "103518.447500", "103519.937500", "103521.427500", "103522.917500", "103524.407500", "103525.897500", "103527.387500", "103528.877500", "103530.367500", "103531.857500", "103533.347500", "103534.837500", "103536.327500", "103537.817500", "103539.307500", "103540.797500", "103542.287500", "103543.777500", "103545.267500", "103546.757500", "103548.247500", "103549.737500", "103551.227500", "103552.717500", "103554.207500", "103555.697500", "103557.187500", "103558.677500", "103600.167500", "103601.657500", "103603.147500", "103604.637500", "103606.127500", "103607.617500", "103609.107500", "103610.597500", "103612.087500", "103613.577500", "103615.067500", "103616.557500", "103618.047500", "103619.537500", "103621.027500", "103622.517500", "103624.007500", "103625.497500", "103626.987500", "103628.477500", "103629.967500", "103631.457500", "103632.947500", "103634.437500", "103635.927500", "103637.417500", "103638.907500", "103640.397500", "103641.887500", "103643.377500", "103644.867500", "103646.357500", "103647.847500", "103649.337500", "103650.827500", "103652.317500", "103653.807500", "103655.297500", "103656.787500", "103658.277500", "103659.767500", "103701.257500", "103702.747500", "103704.237500", "103705.727500", "103707.217500", "103708.707500", "103710.197500", "103711.687500", "103713.177500", "103714.667500", "103716.157500", "103717.647500", "103719.137500", "103720.627500", "103722.117500", "103723.607500", "103725.097500", "103726.587500", "103728.077500", "103729.567500", "103731.057500", "103732.547500", "103734.037500", "103735.527500", "103737.017500", "103738.507500", "103739.997500", "103741.487500", "103742.977500", "103744.467500", "103745.957500", "103747.447500", "103748.937500", "103750.427500", "103751.917500", "103753.407500", "103754.897500", "103756.387500", "103757.877500", "103759.367500", "103800.857500", "103802.347500", "103803.837500", "103805.327500", "103806.817500", "103808.307500", "103809.797500"],
      "ContentTime": ["102831.446000", "102831.449000", "102831.452000", "102831.455000", "102831.458000", "102831.461000", "102831.463000", "102831.466000", "102831.469000", "102831.472000", "102831.475000", "102831.478000", "102831.481000", "102831.484000", "102831.486000", "102831.489000", "102831.492000", "102831.503000", "102831.506000", "102831.509000", "102831.512000", "102831.515000", "102831.517000", "102831.520000", "102831.523000", "102831.526000", "102831.529000", "102831.532000", "102831.535000", "102831.537000", "102831.540000", "102831.543000", "102851.411000", "102851.414000", "102851.417000", "102851.420000", "102851.422000", "102851.425000", "102851.428000", "102851.431000", "102851.434000", "102851.437000", "102851.440000", "102851.442000", "102851.445000", "102851.448000", "102851.451000", "102851.454000", "102851.457000", "102851.459000", "102851.462000", "102851.465000", "102911.411000", "102911.414000", "102911.417000", "102911.420000", "102911.422000", "102911.425000", "102911.428000", "102911.431000", "102911.434000", "102911.437000", "102911.440000", "102911.443000", "102911.445000", "102911.448000", "102911.462000", "102911.465000", "102911.468000", "102911.470000", "102911.473000", "102911.476000", "102931.411000", "102931.414000", "102931.417000", "102931.420000", "102931.422000", "102931.434000", "102931.437000", "102931.440000", "102931.443000", "102931.446000", "102931.449000", "102931.451000", "102931.454000", "102931.457000", "102931.460000", "102931.463000", "102931.466000", "102931.469000", "102931.472000", "102931.474000", "103011.410000", "103011.413000", "103011.416000", "103011.419000", "103011.421000", "103011.424000", "103011.427000", "103011.430000", "103011.433000", "103011.436000", "103011.439000", "103011.442000", "103011.445000", "103011.447000", "103011.451000", "103011.453000", "103011.456000", "103011.459000", "103011.462000", "103011.465000", "103011.468000", "103011.471000", "103011.474000", "103011.476000", "103011.479000", "103011.482000", "103011.485000", "103011.488000", "103011.491000", "103011.494000", "103011.497000", "103011.499000", "103051.410000", "103051.413000", "103051.416000", "103051.418000", "103051.421000", "103051.424000", "103051.427000", "103051.430000", "103051.433000", "103051.436000", "103051.439000", "103051.442000", "103051.445000", "103051.448000", "103051.450000", "103051.453000", "103051.456000", "103051.459000", "103051.462000", "103051.465000", "103051.468000", "103051.471000", "103051.474000", "103051.477000", "103051.480000", "103051.483000", "103051.486000", "103131.411000", "103131.414000", "103131.417000", "103131.420000", "103131.422000", "103131.425000", "103131.428000", "103131.431000", "103131.434000", "103131.437000", "103131.440000", "103131.443000", "103131.446000", "103131.448000", "103131.451000", "103131.454000", "103131.457000", "103131.460000", "103131.463000", "103131.466000", "103131.469000", "103131.471000", "103131.474000", "103131.477000", "103131.480000", "103131.483000", "103131.486000", "103151.411000", "103151.414000", "103151.427000", "103151.430000", "103151.433000", "103151.436000", "103151.439000", "103151.442000", "103151.444000", "103151.447000", "103151.450000", "103151.453000", "103151.456000", "103231.410000", "103231.413000", "103231.416000", "103231.419000", "103231.422000", "103231.424000", "103231.427000", "103231.430000", "103231.433000", "103231.436000", "103231.439000", "103231.442000", "103231.445000", "103231.447000", "103231.450000", "103231.453000", "103231.456000", "103231.459000", "103231.462000", "103231.465000", "103231.468000", "103231.470000", "103231.473000", "103231.476000", "103231.479000", "103231.482000", "103231.485000", "103311.410000", "103311.413000", "103311.416000", "103311.419000", "103311.422000", "103311.424000", "103311.427000", "103311.430000", "103311.433000", "103311.436000", "103311.439000", "103311.442000", "103311.445000", "103311.447000", "103311.456000", "103311.458000", "103311.461000", "103311.464000", "103311.467000", "103311.470000", "103311.473000", "103311.475000", "103311.479000", "103311.481000", "103311.484000", "103311.487000", "103311.490000", "103351.411000", "103351.414000", "103351.417000", "103351.420000", "103351.422000", "103351.426000", "103351.428000", "103351.431000", "103351.434000", "103351.459000", "103351.461000", "103351.464000", "103351.467000", "103351.470000", "103351.473000", "103351.476000", "103351.479000", "103351.482000", "103351.484000", "103351.487000", "103351.490000", "103351.493000", "103351.496000", "103351.499000", "103351.502000", "103351.505000", "103351.508000", "103431.410000", "103431.413000", "103431.416000", "103431.418000", "103431.422000", "103431.424000", "103431.427000", "103431.430000", "103431.433000", "103431.436000", "103431.439000", "103431.442000", "103431.445000", "103431.448000", "103431.451000", "103431.453000", "103431.456000", "103431.459000", "103431.462000", "103431.465000", "103431.468000", "103431.471000", "103431.474000", "103431.476000", "103431.480000", "103431.482000", "103431.485000", "103511.410000", "103511.413000", "103511.416000", "103511.419000", "103511.422000", "103511.424000", "103511.427000", "103511.430000", "103511.433000", "103511.436000", "103511.439000", "103511.442000", "103511.445000", "103511.448000", "103511.450000", "103511.453000", "103511.456000", "103511.459000", "103511.462000", "103511.465000", "103511.468000", "103511.471000", "103511.474000", "103511.477000", "103511.480000", "103511.482000", "103511.485000", "103551.411000", "103551.414000", "103551.417000", "103551.419000", "103551.422000", "103551.425000", "103551.428000", "103551.431000", "103551.434000", "103551.437000", "103551.440000", "103551.443000", "103551.446000", "103551.449000", "103551.452000", "103551.454000", "103551.457000", "103551.460000", "103551.463000", "103551.466000", "103551.469000", "103551.472000", "103551.475000", "103551.477000", "103551.480000", "103551.483000", "103631.411000", "103631.414000", "103631.417000", "103631.419000", "103631.423000", "103631.425000", "103631.428000", "103631.431000", "103631.434000", "103631.437000", "103631.440000", "103631.443000", "103631.446000", "103631.449000", "103631.451000", "103631.454000", "103631.457000", "103631.460000", "103631.463000", "103631.466000", "103631.469000", "103631.471000", "103631.474000", "103631.477000", "103631.480000", "103631.483000", "103631.486000", "103711.410000", "103711.413000", "103711.416000", "103711.419000", "103711.422000", "103711.425000", "103711.428000", "103711.431000", "103711.433000", "103711.436000", "103711.439000", "103711.442000", "103711.445000", "103711.448000", "103711.451000", "103711.454000", "103711.457000", "103711.460000", "103711.462000", "103711.465000", "103711.468000", "103711.471000", "103711.474000", "103711.477000", "103711.480000", "103711.483000", "103711.485000", "103751.410000", "103751.413000", "103751.416000", "103751.419000", "103751.422000", "103751.424000", "103751.427000", "103751.430000", "103751.433000", "103751.436000", "103751.439000", "103751.442000", "103751.445000", "103751.447000", "103751.451000", "103751.453000", "103751.456000", "103751.459000", "103751.462000", "103751.465000", "103751.468000", "103751.471000", "103751.474000", "103751.476000", "103751.479000", "103751.482000", "103751.485000", "103811.630000", "103811.634000", "103811.637000", "103811.648000", "103811.651000", "103811.654000", "103811.657000", "103811.660000", "103811.663000", "103811.666000", "103811.669000", "103811.672000", "103811.674000", "103811.677000"],
