{
  "AcquisitionMatrixPE": 104,
  "AcquisitionNumber": 1,
  "AcquisitionTime": "10:03:25.107500",
  "BandwidthPerPixelPhaseEncode": 17.17,
  "BaseResolution": 104,
  "BodyPartExamined": "BRAIN",
  "CoilString": "HC1-7;NC1_2",
  "ConsistencyInfo": "N4_VE11C_LATEST_20160120",
  "ConversionSoftware": "dcm2niix",
  "ConversionSoftwareVersion": "v1.0.20190902",
  "DerivedVendorReportedEchoSpacing": 0.000560011,
  "DeviceSerialNumber": "167006",
  "DwellTime": 2.1e-06,
  "EchoTime": 0.037,
  "EchoTrainLength": 104,
  "EffectiveEchoSpacing": 0.000560011,
  "FlipAngle": 52,
  "ImageComments": "Unaliased_MB4_PE3_LB",
  "ImageOrientationPatientDICOM": [0.999985, -0.000625981, 0.00544988, 0.00331615, 0.860377, -0.509648],
  "ImageType": [
    "ORIGINAL",
    "PRIMARY",
    "M",
    "MB",
    "ND",
    "MOSAIC"
],
  "ImagingFrequency": 123.259,
  "InPlanePhaseEncodingDirectionDICOM": "COL",
  "InstitutionAddress": "Chemin_Queen-Mary_4565_Montreal_District_CA_H3W_1W5",
  "InstitutionName": "IUGM",
  "InstitutionalDepartmentName": "Department",
  "MRAcquisitionType": "2D",
  "MagneticFieldStrength": 3,
  "Manufacturer": "Siemens",
  "ManufacturersModelName": "Prisma_fit",
  "Modality": "MR",
  "MultibandAccelerationFactor": 4,
  "PartialFourier": 1,
  "PatientPosition": "HFS",
  "PercentPhaseFOV": 100,
  "PhaseEncodingDirection": "j",
  "PhaseEncodingSteps": 104,
  "PhaseResolution": 1,
  "PixelBandwidth": 2290,
  "ProcedureStepDescription": "video_friends",
  "ProtocolName": "func_task-friends-s04e13b",
  "PulseSequenceDetails": "%CustomerSeq%_cmrr_mbep2d_bold",
  "ReceiveCoilActiveElements": "HC1-7;NC1,2",
  "ReceiveCoilName": "HeadNeck_64",
  "ReconMatrixPE": 104,
  "RepetitionTime": 1.49,
  "SAR": 0.0370325,
  "ScanOptions": "FS",
  "ScanningSequence": "EP",
  "SequenceName": "epfid2d1_104",
  "SequenceVariant": "SK_SS",
  "SeriesDescription": "func_task-friends-s04e13b",
  "SeriesNumber": 11,
  "ShimSetting": [626, -7202, -8874, 382, -15, -211, 5, -28],
  "SliceThickness": 2,
  "SliceTiming": [0, 0.7825, 0.0975, 0.8825, 0.195, 0.98, 0.2925, 1.0775, 0.3925, 1.175, 0.49, 1.2725, 0.5875, 1.3725, 0.685, 0, 0.7825, 0.0975, 0.8825, 0.195, 0.98, 0.2925, 1.0775, 0.3925, 1.175, 0.49, 1.2725, 0.5875, 1.3725, 0.685, 0, 0.7825, 0.0975, 0.8825, 0.195, 0.98, 0.2925, 1.0775, 0.3925, 1.175, 0.49, 1.2725, 0.5875, 1.3725, 0.685, 0, 0.7825, 0.0975, 0.8825, 0.195, 0.98, 0.2925, 1.0775, 0.3925, 1.175, 0.49, 1.2725, 0.5875, 1.3725, 0.685],
  "SoftwareVersions": "syngo_MR_E11",
  "SpacingBetweenSlices": 2,
  "StationName": "MRC35049",
  "TaskName": "s04e13b",
  "TotalReadoutTime": 0.0576811,
  "TxRefAmp": 252.593,
  "WipMemBlock": "0747a370-86e8-4cd9-b2b8-6c096f5a47dc||Sequence: R016 ve11c/master r/e634e98; Dec 19 2017 11:00:25 by eja",
  "dcmmeta_affine": [
    [-1.9999699592590332, 0.006632301956415176, 0.008739843033254147, 103.00021362304688],
    [0.0012519628508016467, 1.7207533121109009, -1.0193166732788086, -59.08806228637695],
    [0.01089976541697979, 1.0192959308624268, 1.7207316160202026, -97.70439910888672],
    [0.0, 0.0, 0.0, 1.0]
],
  "dcmmeta_reorient_transform": [
    [0.0, -1.0, 0.0, 103.0],
    [1.0, 0.0, 0.0, 0.0],
    [0.0, 0.0, 1.0, 0.0],
    [0.0, 0.0, 0.0, 1.0]
],
  "dcmmeta_shape": [104, 104, 60, 448],
  "dcmmeta_slice_dim": 2,
  "dcmmeta_version": 0.6,
  "global": {
    "const": {
      "AcquisitionMatrix": [104, 0, 0, 104],
      "AngioFlag": "N",
      "BitsAllocated": 16,
      "BitsStored": 16,
      "BodyPartExamined": "BRAIN",
      "Columns": 832,
      "EchoNumbers": 1,
      "EchoTime": 37.0,
      "EchoTrainLength": 104,
      "FlipAngle": 52.0,
      "HighBit": 15,
      "ImageOrientationPatient": [0.99998495335079, -0.0006259814157, 0.0054498825014, 0.00331615105939, 0.86037665278505, -0.509647935819],
      "ImagePositionPatient": [-834.08654453264, -744.04801504599, 374.33926168347],
      "ImageType": [
        "ORIGINAL",
        "PRIMARY",
        "M",
        "MB",
        "ND",
        "MOSAIC"
],
      "ImagedNucleus": "1H",
      "ImagingFrequency": 123.259016,
      "InPlanePhaseEncodingDirection": "COL",
      "MRAcquisitionType": "2D",
      "MagneticFieldStrength": 3.0,
      "Manufacturer": "SIEMENS",
      "ManufacturerModelName": "Prisma_fit",
      "Modality": "MR",
      "NumberOfAverages": 1.0,
      "NumberOfPhaseEncodingSteps": 104,
      "PercentPhaseFieldOfView": 100.0,
      "PercentSampling": 100.0,
      "PerformedProcedureStepStartTime": "090614.525000",
      "PhotometricInterpretation": "MONOCHROME2",
      "PixelBandwidth": 2290.0,
      "PixelRepresentation": 0,
      "PixelSpacing": [2.0, 2.0],
      "ProtocolName": "func_task-friends-s04e13b",
      "RepetitionTime": 1490.0,
      "Rows": 832,
      "SAR": 0.03703253752214,
      "SamplesPerPixel": 1,
      "ScanOptions": "FS",
      "ScanningSequence": "EP",
      "SequenceName": "epfid2d1_104",
      "SequenceVariant": [
        "SK",
        "SS"
],
      "SeriesDescription": "func_task-friends-s04e13b",
      "SeriesNumber": 11,
      "SeriesTime": "100431.441000",
      "SliceLocation": -53.496691521513,
      "SliceThickness": 2.0,
      "SmallestImagePixelValue": 0,
      "SoftwareVersions": "syngo MR E11",
      "SpacingBetweenSlices": 1.9999999954304,
      "SpecificCharacterSet": "ISO_IR 100",
      "StudyID": "1",
      "StudyTime": "090614.464000",
      "TransmitCoilName": "Body",
      "VariableFlipAngleFlag": "N",
      "WindowCenterWidthExplanation": "Algo1",
      "dBdt": 0.0},
    "slices": {}
  },
  "time": {
    "samples": {
      "AcquisitionNumber": [1, 2, 3, 4, 5, 6, 7, 8, 9, 10, 11, 12, 13, 14, 15, 16, 17, 18, 19, 20, 21, 22, 23, 24, 25, 26, 27, 28, 29, 30, 31, 32, 33, 34, 35, 36, 37, 38, 39, 40, 41, 42, 43, 44, 45, 46, 47, 48, 49, 50, 51, 52, 53, 54, 55, 56, 57, 58, 59, 60, 61, 62, 63, 64, 65, 66, 67, 68, 69, 70, 71, 72, 73, 74, 75, 76, 77, 78, 79, 80, 81, 82, 83, 84, 85, 86, 87, 88, 89, 90, 91, 92, 93, 94, 95, 96, 97, 98, 99, 100, 101, 102, 103, 104, 105, 106, 107, 108, 109, 110, 111, 112, 113, 114, 115, 116, 117, 118, 119, 120, 121, 122, 123, 124, 125, 126, 127, 128, 129, 130, 131, 132, 133, 134, 135, 136, 137, 138, 139, 140, 141, 142, 143, 144, 145, 146, 147, 148, 149, 150, 151, 152, 153, 154, 155, 156, 157, 158, 159, 160, 161, 162, 163, 164, 165, 166, 167, 168, 169, 170, 171, 172, 173, 174, 175, 176, 177, 178, 179, 180, 181, 182, 183, 184, 185, 186, 187, 188, 189, 190, 191, 192, 193, 194, 195, 196, 197, 198, 199, 200, 201, 202, 203, 204, 205, 206, 207, 208, 209, 210, 211, 212, 213, 214, 215, 216, 217, 218, 219, 220, 221, 222, 223, 224, 225, 226, 227, 228, 229, 230, 231, 232, 233, 234, 235, 236, 237, 238, 239, 240, 241, 242, 243, 244, 245, 246, 247, 248, 249, 250, 251, 252, 253, 254, 255, 256, 257, 258, 259, 260, 261, 262, 263, 264, 265, 266, 267, 268, 269, 270, 271, 272, 273, 274, 275, 276, 277, 278, 279, 280, 281, 282, 283, 284, 285, 286, 287, 288, 289, 290, 291, 292, 293, 294, 295, 296, 297, 298, 299, 300, 301, 302, 303, 304, 305, 306, 307, 308, 309, 310, 311, 312, 313, 314, 315, 316, 317, 318, 319, 320, 321, 322, 323, 324, 325, 326, 327, 328, 329, 330, 331, 332, 333, 334, 335, 336, 337, 338, 339, 340, 341, 342, 343, 344, 345, 346, 347, 348, 349, 350, 351, 352, 353, 354, 355, 356, 357, 358, 359, 360, 361, 362, 363, 364, 365, 366, 367, 368, 369, 370, 371, 372, 373, 374, 375, 376, 377, 378, 379, 380, 381, 382, 383, 384, 385, 386, 387, 388, 389, 390, 391, 392, 393, 394, 395, 396, 397, 398, 399, 400, 401, 402, 403, 404, 405, 406, 407, 408, 409, 410, 411, 412, 413, 414, 415, 416, 417, 418, 419, 420, 421, 422, 423, 424, 425, 426, 427, 428, 429, 430, 431, 432, 433, 434, 435, 436, 437, 438, 439, 440, 441, 442, 443, 444, 445, 446, 447, 448],
      "AcquisitionTime": ["100325.107500", "100326.597500", "100328.087500", "100329.577500", "100331.067500", "100332.557500", "100334.047500", "100335.537500", "100337.027500", "100338.517500", "100340.007500", "100341.497500", "100342.987500", "100344.477500", "100345.967500", "100347.457500", "100348.947500", "100350.437500", "100351.927500", "100353.417500", "100354.907500", "100356.397500", "100357.887500", "100359.377500", "100400.867500", "100402.357500", "100403.847500", "100405.337500", "100406.827500", "100408.317500", "100409.807500", "100411.297500", "100412.787500", "100414.277500", "100415.767500", "100417.257500", "100418.747500", "100420.237500", "100421.727500", "100423.217500", "100424.707500", "100426.197500", "100427.687500", "100429.177500", "100430.667500", "100432.157500", "100433.647500", "100435.137500", "100436.627500", "100438.117500", "100439.607500", "100441.097500", "100442.587500", "100444.077500", "100445.567500", "100447.057500", "100448.547500", "100450.037500", "100451.527500", "100453.017500", "100454.507500", "100455.997500", "100457.487500", "100458.977500", "100500.467500", "100501.957500", "100503.447500", "100504.937500", "100506.427500", "100507.917500", "100509.407500", "100510.897500", "100512.387500", "100513.877500", "100515.367500", "100516.857500", "100518.347500", "100519.837500", "100521.327500", "100522.817500", "100524.307500", "100525.797500", "100527.287500", "100528.777500", "100530.267500", "100531.757500", "100533.247500", "100534.737500", "100536.227500", "100537.717500", "100539.207500", "100540.697500", "100542.187500", "100543.677500", "100545.167500", "100546.657500", "100548.147500", "100549.637500", "100551.127500", "100552.617500", "100554.107500", "100555.597500", "100557.087500", "100558.577500", "100600.067500", "100601.557500", "100603.047500", "100604.537500", "100606.027500", "100607.517500", "100609.007500", "100610.497500", "100611.987500", "100613.477500", "100614.967500", "100616.457500", "100617.947500", "100619.437500", "100620.927500", "100622.417500", "100623.907500", "100625.397500", "100626.887500", "100628.377500", "100629.867500", "100631.357500", "100632.847500", "100634.337500", "100635.827500", "100637.317500", "100638.807500", "100640.297500", "100641.787500", "100643.277500", "100644.767500", "100646.257500", "100647.747500", "100649.237500", "100650.727500", "100652.217500", "100653.707500", "100655.197500", "100656.687500", "100658.177500", "100659.667500", "100701.157500", "100702.647500", "100704.137500", "100705.627500", "100707.117500", "100708.607500", "100710.097500", "100711.587500", "100713.077500", "100714.567500", "100716.057500", "100717.547500", "100719.037500", "100720.527500", "100722.017500", "100723.507500", "100724.997500", "100726.487500", "100727.977500", "100729.467500", "100730.957500", "100732.447500", "100733.937500", "100735.427500", "100736.917500", "100738.407500", "100739.897500", "100741.387500", "100742.877500", "100744.367500", "100745.857500", "100747.347500", "100748.837500", "100750.327500", "100751.817500", "100753.307500", "100754.797500", "100756.287500", "100757.777500", "100759.267500", "100800.757500", "100802.247500", "100803.737500", "100805.227500", "100806.717500", "100808.207500", "100809.697500", "100811.187500", "100812.677500", "100814.167500", "100815.657500", "100817.147500", "100818.637500", "100820.127500", "100821.617500", "100823.107500", "100824.597500", "100826.087500", "100827.577500", "100829.067500", "100830.557500", "100832.047500", "100833.537500", "100835.027500", "100836.517500", "100838.007500", "100839.497500", "100840.987500", "100842.477500", "100843.967500", "100845.457500", "100846.947500", "100848.437500", "100849.927500", "100851.417500", "100852.907500", "100854.397500", "100855.887500", "100857.377500", "100858.867500", "100900.357500", "100901.847500", "100903.337500", "100904.827500", "100906.317500", "100907.807500", "100909.297500", "100910.787500", "100912.277500", "100913.767500", "100915.257500", "100916.747500", "100918.237500", "100919.727500", "100921.217500", "100922.707500", "100924.197500", "100925.687500", "100927.177500", "100928.667500", "100930.157500", "100931.647500", "100933.137500", "100934.627500", "100936.117500", "100937.607500", "100939.097500", "100940.587500", "100942.077500", "100943.567500", "100945.057500", "100946.547500", "100948.037500", "100949.527500", "100951.017500", "100952.507500", "100953.997500", "100955.487500", "100956.977500", "100958.467500", "100959.957500", "101001.447500", "101002.937500", "101004.427500", "101005.917500", "101007.407500", "101008.897500", "101010.387500", "101011.877500", "101013.367500", "101014.857500", "101016.347500", "101017.837500", "101019.327500", "101020.817500", "101022.307500", "101023.797500", "101025.287500", "101026.777500", "101028.267500", "101029.757500", "101031.247500", "101032.737500", "101034.227500", "101035.717500", "101037.207500", "101038.697500", "101040.187500", "101041.677500", "101043.167500", "101044.657500", "101046.147500", "101047.637500", "101049.127500", "101050.617500", "101052.107500", "101053.597500", "101055.087500", "101056.577500", "101058.067500", "101059.557500", "101101.047500", "101102.537500", "101104.027500", "101105.517500", "101107.007500", "101108.497500", "101109.987500", "101111.477500", "101112.967500", "101114.457500", "101115.947500", "101117.437500", "101118.927500", "101120.417500", "101121.907500", "101123.397500", "101124.887500", "101126.377500", "101127.867500", "101129.357500", "101130.847500", "101132.337500", "101133.827500", "101135.317500", "101136.807500", "101138.297500", "101139.787500", "101141.277500", "101142.767500", "101144.257500", "101145.747500", "101147.237500", "101148.727500", "101150.217500", "101151.707500", "101153.197500", "101154.687500", "101156.177500", "101157.667500", "101159.157500", "101200.647500", "101202.137500", "101203.627500", "101205.117500", "101206.607500", "101208.097500", "101209.587500", "101211.077500", "101212.567500", "101214.057500", "101215.547500", "101217.037500", "101218.527500", "101220.017500", "101221.507500", "101222.997500", "101224.487500", "101225.977500", "101227.467500", "101228.957500", "101230.447500", "101231.937500", "101233.427500", "101234.917500", "101236.407500", "101237.897500", "101239.387500", "101240.877500", "101242.367500", "101243.857500", "101245.347500", "101246.837500", "101248.327500", "101249.817500", "101251.307500", "101252.797500", "101254.287500", "101255.777500", "101257.267500", "101258.757500", "101300.247500", "101301.737500", "101303.227500", "101304.717500", "101306.207500", "101307.697500", "101309.187500", "101310.677500", "101312.167500", "101313.657500", "101315.147500", "101316.637500", "101318.127500", "101319.617500", "101321.107500", "101322.597500", "101324.087500", "101325.577500", "101327.067500", "101328.557500", "101330.047500", "101331.537500", "101333.027500", "101334.517500", "101336.007500", "101337.497500", "101338.987500", "101340.477500", "101341.967500", "101343.457500", "101344.947500", "101346.437500", "101347.927500", "101349.417500", "101350.907500", "101352.397500", "101353.887500", "101355.377500", "101356.867500", "101358.357500", "101359.847500", "101401.337500", "101402.827500", "101404.317500", "101405.807500", "101407.297500", "101408.787500", "101410.277500", "101411.767500", "101413.257500", "101414.747500", "101416.237500", "101417.727500", "101419.217500", "101420.707500", "101422.197500", "101423.687500", "101425.177500", "101426.667500", "101428.157500", "101429.647500", "101431.137500"],
      "ContentTime": ["100431.444000", "100431.447000", "100431.450000", "100431.453000", "100431.456000", "100431.459000", "100431.462000", "100431.465000", "100431.480000", "100431.486000", "100431.489000", "100431.491000", "100451.410000", "100451.413000", "100451.416000", "100451.418000", "100451.421000", "100451.424000", "100451.427000", "100451.430000", "100451.433000", "100451.436000", "100451.438000", "100451.441000", "100451.444000", "100451.463000", "100451.466000", "100451.469000", "100451.472000", "100451.475000", "100451.477000", "100451.480000", "100511.410000", "100511.413000", "100511.416000", "100511.418000", "100511.421000", "100511.424000", "100511.427000", "100511.430000", "100511.433000", "100511.436000", "100511.438000", "100511.441000", "100511.444000", "100511.447000", "100511.450000", "100511.453000", "100511.456000", "100511.458000", "100511.461000", "100511.464000", "100531.410000", "100531.413000", "100531.416000", "100531.418000", "100531.421000", "100531.424000", "100531.427000", "100531.430000", "100531.433000", "100531.436000", "100531.438000", "100531.441000", "100531.444000", "100531.447000", "100531.450000", "100531.453000", "100531.456000", "100531.459000", "100531.461000", "100531.464000", "100551.411000", "100551.414000", "100551.416000", "100551.419000", "100551.422000", "100551.425000", "100551.428000", "100551.448000", "100551.451000", "100551.454000", "100551.457000", "100551.460000", "100551.463000", "100551.465000", "100551.468000", "100551.471000", "100551.478000", "100551.481000", "100551.484000", "100551.486000", "100631.411000", "100631.414000", "100631.422000", "100631.425000", "100631.428000", "100631.430000", "100631.433000", "100631.436000", "100631.439000", "100631.442000", "100631.445000", "100631.448000", "100631.450000", "100631.453000", "100631.456000", "100631.459000", "100631.462000", "100631.465000", "100631.468000", "100631.470000", "100631.473000", "100631.476000", "100631.479000", "100631.482000", "100631.485000", "100631.487000", "100631.490000", "100631.493000", "100631.497000", "100631.500000", "100631.502000", "100631.505000", "100711.410000", "100711.413000", "100711.416000", "100711.419000", "100711.422000", "100711.425000", "100711.427000", "100711.430000", "100711.433000", "100711.436000", "100711.439000", "100711.442000", "100711.444000", "100711.447000", "100711.450000", "100711.453000", "100711.456000", "100711.459000", "100711.461000", "100711.464000", "100711.467000", "100711.470000", "100711.473000", "100711.476000", "100711.479000", "100711.481000", "100711.484000", "100751.410000", "100751.413000", "100751.416000", "100751.419000", "100751.421000", "100751.424000", "100751.427000", "100751.430000", "100751.433000", "100751.436000", "100751.439000", "100751.442000", "100751.444000", "100751.447000", "100751.450000", "100751.453000", "100751.456000", "100751.459000", "100751.462000", "100751.465000", "100751.467000", "100751.470000", "100751.473000", "100751.476000", "100751.479000", "100751.482000", "100751.485000", "100831.411000", "100831.414000", "100831.417000", "100831.419000", "100831.430000", "100831.433000", "100831.436000", "100831.438000", "100831.442000", "100831.444000", "100831.447000", "100831.450000", "100831.453000", "100831.456000", "100831.459000", "100831.462000", "100831.464000", "100831.467000", "100831.470000", "100831.473000", "100831.476000", "100831.479000", "100831.482000", "100831.484000", "100831.487000", "100831.490000", "100831.493000", "100911.410000", "100911.413000", "100911.416000", "100911.419000", "100911.422000", "100911.425000", "100911.428000", "100911.431000", "100911.433000", "100911.437000", "100911.439000", "100911.442000", "100911.445000", "100911.448000", "100911.451000", "100911.476000", "100911.479000", "100911.482000", "100911.485000", "100911.488000", "100911.490000", "100911.494000", "100911.506000", "100911.510000", "100911.512000", "100911.516000", "100951.410000", "100951.413000", "100951.416000", "100951.419000", "100951.422000", "100951.425000", "100951.427000", "100951.430000", "100951.433000", "100951.436000", "100951.439000", "100951.442000", "100951.445000", "100951.448000", "100951.450000", "100951.453000", "100951.456000", "100951.459000", "100951.462000", "100951.465000", "100951.468000", "100951.471000", "100951.474000", "100951.476000", "100951.479000", "100951.482000", "100951.485000", "101031.411000", "101031.414000", "101031.417000", "101031.419000", "101031.422000", "101031.425000", "101031.428000", "101031.431000", "101031.434000", "101031.437000", "101031.440000", "101031.443000", "101031.446000", "101031.448000", "101031.451000", "101031.454000", "101031.457000", "101031.460000", "101031.463000", "101031.466000", "101031.469000", "101031.471000", "101031.474000", "101031.477000", "101031.480000", "101031.483000", "101031.486000", "101111.411000", "101111.414000", "101111.417000", "101111.420000", "101111.422000", "101111.425000", "101111.428000", "101111.431000", "101111.434000", "101111.437000", "101111.440000", "101111.443000", "101111.446000", "101111.448000", "101111.451000", "101111.454000", "101111.457000", "101111.460000", "101111.463000", "101111.466000", "101111.469000", "101111.471000", "101111.474000", "101111.477000", "101111.480000", "101111.483000", "101111.486000", "101151.410000", "101151.413000", "101151.416000", "101151.419000", "101151.422000", "101151.424000", "101151.427000", "101151.430000", "101151.433000", "101151.436000", "101151.439000", "101151.442000", "101151.445000", "101151.448000", "101151.451000", "101151.453000", "101151.456000", "101151.459000", "101151.462000", "101151.465000", "101151.468000", "101151.470000", "101151.473000", "101151.476000", "101151.479000", "101151.482000", "101151.485000", "101231.410000", "101231.413000", "101231.416000", "101231.419000", "101231.422000", "101231.425000", "101231.427000", "101231.430000", "101231.433000", "101231.436000", "101231.439000", "101231.442000", "101231.445000", "101231.448000", "101231.450000", "101231.453000", "101231.456000", "101231.459000", "101231.462000", "101231.465000", "101231.468000", "101231.471000", "101231.474000", "101231.476000", "101231.479000", "101231.482000", "101231.485000", "101311.411000", "101311.414000", "101311.417000", "101311.420000", "101311.423000", "101311.425000", "101311.428000", "101311.431000", "101311.434000", "101311.437000", "101311.440000", "101311.443000", "101311.446000", "101311.448000", "101311.451000", "101311.454000", "101311.457000", "101311.460000", "101311.463000", "101311.466000", "101311.468000", "101311.471000", "101311.474000", "101311.477000", "101311.480000", "101311.483000", "101311.486000", "101351.410000", "101351.413000", "101351.416000", "101351.419000", "101351.422000", "101351.425000", "101351.427000", "101351.430000", "101351.433000", "101351.436000", "101351.439000", "101351.442000", "101351.445000", "101351.448000", "101351.451000", "101351.453000", "101351.456000", "101351.459000", "101351.462000", "101351.465000", "101351.468000", "101351.471000", "101351.475000", "101351.478000", "101351.480000", "101351.483000", "101431.410000", "101431.413000", "101431.416000", "101431.419000", "101431.421000", "101431.424000", "101431.427000", "101431.430000", "101431.433000", "101431.436000", "101431.439000", "101431.442000", "101431.445000", "101431.448000", "101431.451000", "101431.453000", "101431.456000", "101431.459000", "101431.462000", "101431.465000", "101431.468000", "101431.471000", "101431.474000", "101431.476000", "101431.479000", "101431.482000", "101431.485000", "101433.369000", "101433.372000"],
