{
  "AcquisitionMatrixPE": 104,
  "AcquisitionNumber": 1,
  "AcquisitionTime": "10:15:29.027500",
  "BandwidthPerPixelPhaseEncode": 17.17,
  "BaseResolution": 104,
  "BodyPartExamined": "BRAIN",
  "CoilString": "HC1-7;NC1_2",
  "ConsistencyInfo": "N4_VE11C_LATEST_20160120",
  "ConversionSoftware": "dcm2niix",
  "ConversionSoftwareVersion": "v1.0.20190902",
  "DerivedVendorReportedEchoSpacing": 0.000560011,
  "DeviceSerialNumber": "167006",
  "DwellTime": 2.1e-06,
  "EchoTime": 0.037,
  "EchoTrainLength": 104,
  "EffectiveEchoSpacing": 0.000560011,
  "FlipAngle": 52,
  "ImageComments": "Unaliased_MB4_PE3_LB",
  "ImageOrientationPatientDICOM": [0.999985, -0.000625981, 0.00544988, 0.00331615, 0.860377, -0.509648],
  "ImageType": [
    "ORIGINAL",
    "PRIMARY",
    "M",
    "MB",
    "ND",
    "MOSAIC"
],
  "ImagingFrequency": 123.259,
  "InPlanePhaseEncodingDirectionDICOM": "COL",
  "InstitutionAddress": "Chemin_Queen-Mary_4565_Montreal_District_CA_H3W_1W5",
  "InstitutionName": "IUGM",
  "InstitutionalDepartmentName": "Department",
  "MRAcquisitionType": "2D",
  "MagneticFieldStrength": 3,
  "Manufacturer": "Siemens",
  "ManufacturersModelName": "Prisma_fit",
  "Modality": "MR",
  "MultibandAccelerationFactor": 4,
  "PartialFourier": 1,
  "PatientPosition": "HFS",
  "PercentPhaseFOV": 100,
  "PhaseEncodingDirection": "j",
  "PhaseEncodingSteps": 104,
  "PhaseResolution": 1,
  "PixelBandwidth": 2290,
  "ProcedureStepDescription": "video_friends",
  "ProtocolName": "func_task-friends-s04e14a",
  "PulseSequenceDetails": "%CustomerSeq%_cmrr_mbep2d_bold",
  "ReceiveCoilActiveElements": "HC1-7;NC1,2",
  "ReceiveCoilName": "HeadNeck_64",
  "ReconMatrixPE": 104,
  "RepetitionTime": 1.49,
  "SAR": 0.0370322,
  "ScanOptions": "FS",
  "ScanningSequence": "EP",
  "SequenceName": "epfid2d1_104",
  "SequenceVariant": "SK_SS",
  "SeriesDescription": "func_task-friends-s04e14a",
  "SeriesNumber": 13,
  "ShimSetting": [626, -7202, -8874, 382, -15, -211, 5, -28],
  "SliceThickness": 2,
  "SliceTiming": [0, 0.7825, 0.0975, 0.88, 0.195, 0.98, 0.2925, 1.0775, 0.39, 1.175, 0.49, 1.2725, 0.5875, 1.37, 0.685, 0, 0.7825, 0.0975, 0.88, 0.195, 0.98, 0.2925, 1.0775, 0.39, 1.175, 0.49, 1.2725, 0.5875, 1.37, 0.685, 0, 0.7825, 0.0975, 0.88, 0.195, 0.98, 0.2925, 1.0775, 0.39, 1.175, 0.49, 1.2725, 0.5875, 1.37, 0.685, 0, 0.7825, 0.0975, 0.88, 0.195, 0.98, 0.2925, 1.0775, 0.39, 1.175, 0.49, 1.2725, 0.5875, 1.37, 0.685],
  "SoftwareVersions": "syngo_MR_E11",
  "SpacingBetweenSlices": 2,
  "StationName": "MRC35049",
  "TaskName": "s04e14a",
  "TotalReadoutTime": 0.0576811,
  "TxRefAmp": 252.593,
  "WipMemBlock": "e430dc25-546b-41d9-a964-fc6e79e3861a||Sequence: R016 ve11c/master r/e634e98; Dec 19 2017 11:00:25 by eja",
  "dcmmeta_affine": [
    [-1.9999699592590332, 0.006632301956415176, 0.008739843033254147, 103.00021362304688],
    [0.0012519628508016467, 1.7207533121109009, -1.0193166732788086, -59.08806228637695],
    [0.01089976541697979, 1.0192959308624268, 1.7207316160202026, -97.70439910888672],
    [0.0, 0.0, 0.0, 1.0]
],
  "dcmmeta_reorient_transform": [
    [0.0, -1.0, 0.0, 103.0],
    [1.0, 0.0, 0.0, 0.0],
    [0.0, 0.0, 1.0, 0.0],
    [0.0, 0.0, 0.0, 1.0]
],
  "dcmmeta_shape": [104, 104, 60, 447],
  "dcmmeta_slice_dim": 2,
  "dcmmeta_version": 0.6,
  "global": {
    "const": {
      "AcquisitionMatrix": [104, 0, 0, 104],
      "AngioFlag": "N",
      "BitsAllocated": 16,
      "BitsStored": 16,
      "BodyPartExamined": "BRAIN",
      "Columns": 832,
      "EchoNumbers": 1,
      "EchoTime": 37.0,
      "EchoTrainLength": 104,
      "FlipAngle": 52.0,
      "HighBit": 15,
      "ImageOrientationPatient": [0.99998495335079, -0.0006259814157, 0.0054498825014, 0.00331615105939, 0.86037665278505, -0.509647935819],
      "ImagePositionPatient": [-834.08654453264, -744.04801504599, 374.33926168347],
      "ImageType": [
        "ORIGINAL",
        "PRIMARY",
        "M",
        "MB",
        "ND",
        "MOSAIC"
],
      "ImagedNucleus": "1H",
      "ImagingFrequency": 123.259018,
      "InPlanePhaseEncodingDirection": "COL",
      "MRAcquisitionType": "2D",
      "MagneticFieldStrength": 3.0,
      "Manufacturer": "SIEMENS",
      "ManufacturerModelName": "Prisma_fit",
      "Modality": "MR",
      "NumberOfAverages": 1.0,
      "NumberOfPhaseEncodingSteps": 104,
      "PercentPhaseFieldOfView": 100.0,
      "PercentSampling": 100.0,
      "PerformedProcedureStepStartTime": "090614.525000",
      "PhotometricInterpretation": "MONOCHROME2",
      "PixelBandwidth": 2290.0,
      "PixelRepresentation": 0,
      "PixelSpacing": [2.0, 2.0],
      "ProtocolName": "func_task-friends-s04e14a",
      "RepetitionTime": 1490.0,
      "Rows": 832,
      "SAR": 0.03703217457991,
      "SamplesPerPixel": 1,
      "ScanOptions": "FS",
      "ScanningSequence": "EP",
      "SequenceName": "epfid2d1_104",
      "SequenceVariant": [
        "SK",
        "SS"
],
      "SeriesDescription": "func_task-friends-s04e14a",
      "SeriesNumber": 13,
      "SeriesTime": "101645.683000",
      "SliceLocation": -53.496691521513,
      "SliceThickness": 2.0,
      "SmallestImagePixelValue": 0,
      "SoftwareVersions": "syngo MR E11",
      "SpacingBetweenSlices": 1.9999999954304,
      "SpecificCharacterSet": "ISO_IR 100",
      "StudyID": "1",
      "StudyTime": "090614.464000",
      "TransmitCoilName": "Body",
      "VariableFlipAngleFlag": "N",
      "WindowCenterWidthExplanation": "Algo1",
      "dBdt": 0.0},
    "slices": {}
  },
  "time": {
    "samples": {
      "AcquisitionNumber": [1, 2, 3, 4, 5, 6, 7, 8, 9, 10, 11, 12, 13, 14, 15, 16, 17, 18, 19, 20, 21, 22, 23, 24, 25, 26, 27, 28, 29, 30, 31, 32, 33, 34, 35, 36, 37, 38, 39, 40, 41, 42, 43, 44, 45, 46, 47, 48, 49, 50, 51, 52, 53, 54, 55, 56, 57, 58, 59, 60, 61, 62, 63, 64, 65, 66, 67, 68, 69, 70, 71, 72, 73, 74, 75, 76, 77, 78, 79, 80, 81, 82, 83, 84, 85, 86, 87, 88, 89, 90, 91, 92, 93, 94, 95, 96, 97, 98, 99, 100, 101, 102, 103, 104, 105, 106, 107, 108, 109, 110, 111, 112, 113, 114, 115, 116, 117, 118, 119, 120, 121, 122, 123, 124, 125, 126, 127, 128, 129, 130, 131, 132, 133, 134, 135, 136, 137, 138, 139, 140, 141, 142, 143, 144, 145, 146, 147, 148, 149, 150, 151, 152, 153, 154, 155, 156, 157, 158, 159, 160, 161, 162, 163, 164, 165, 166, 167, 168, 169, 170, 171, 172, 173, 174, 175, 176, 177, 178, 179, 180, 181, 182, 183, 184, 185, 186, 187, 188, 189, 190, 191, 192, 193, 194, 195, 196, 197, 198, 199, 200, 201, 202, 203, 204, 205, 206, 207, 208, 209, 210, 211, 212, 213, 214, 215, 216, 217, 218, 219, 220, 221, 222, 223, 224, 225, 226, 227, 228, 229, 230, 231, 232, 233, 234, 235, 236, 237, 238, 239, 240, 241, 242, 243, 244, 245, 246, 247, 248, 249, 250, 251, 252, 253, 254, 255, 256, 257, 258, 259, 260, 261, 262, 263, 264, 265, 266, 267, 268, 269, 270, 271, 272, 273, 274, 275, 276, 277, 278, 279, 280, 281, 282, 283, 284, 285, 286, 287, 288, 289, 290, 291, 292, 293, 294, 295, 296, 297, 298, 299, 300, 301, 302, 303, 304, 305, 306, 307, 308, 309, 310, 311, 312, 313, 314, 315, 316, 317, 318, 319, 320, 321, 322, 323, 324, 325, 326, 327, 328, 329, 330, 331, 332, 333, 334, 335, 336, 337, 338, 339, 340, 341, 342, 343, 344, 345, 346, 347, 348, 349, 350, 351, 352, 353, 354, 355, 356, 357, 358, 359, 360, 361, 362, 363, 364, 365, 366, 367, 368, 369, 370, 371, 372, 373, 374, 375, 376, 377, 378, 379, 380, 381, 382, 383, 384, 385, 386, 387, 388, 389, 390, 391, 392, 393, 394, 395, 396, 397, 398, 399, 400, 401, 402, 403, 404, 405, 406, 407, 408, 409, 410, 411, 412, 413, 414, 415, 416, 417, 418, 419, 420, 421, 422, 423, 424, 425, 426, 427, 428, 429, 430, 431, 432, 433, 434, 435, 436, 437, 438, 439, 440, 441, 442, 443, 444, 445, 446, 447],
      "AcquisitionTime": ["101529.027500", "101530.517500", "101532.007500", "101533.497500", "101534.987500", "101536.477500", "101537.967500", "101539.457500", "101540.947500", "101542.437500", "101543.927500", "101545.417500", "101546.907500", "101548.397500", "101549.887500", "101551.377500", "101552.867500", "101554.357500", "101555.847500", "101557.337500", "101558.827500", "101600.317500", "101601.807500", "101603.297500", "101604.787500", "101606.277500", "101607.767500", "101609.257500", "101610.747500", "101612.237500", "101613.727500", "101615.217500", "101616.707500", "101618.197500", "101619.687500", "101621.177500", "101622.667500", "101624.157500", "101625.647500", "101627.137500", "101628.627500", "101630.117500", "101631.607500", "101633.097500", "101634.587500", "101636.077500", "101637.567500", "101639.057500", "101640.547500", "101642.037500", "101643.527500", "101645.017500", "101646.507500", "101647.997500", "101649.487500", "101650.977500", "101652.467500", "101653.957500", "101655.447500", "101656.937500", "101658.427500", "101659.917500", "101701.407500", "101702.897500", "101704.387500", "101705.877500", "101707.367500", "101708.857500", "101710.347500", "101711.837500", "101713.327500", "101714.817500", "101716.307500", "101717.797500", "101719.287500", "101720.777500", "101722.267500", "101723.757500", "101725.247500", "101726.737500", "101728.227500", "101729.717500", "101731.207500", "101732.697500", "101734.187500", "101735.677500", "101737.167500", "101738.657500", "101740.147500", "101741.637500", "101743.127500", "101744.617500", "101746.107500", "101747.597500", "101749.087500", "101750.577500", "101752.067500", "101753.557500", "101755.047500", "101756.537500", "101758.027500", "101759.517500", "101801.007500", "101802.497500", "101803.987500", "101805.477500", "101806.967500", "101808.457500", "101809.947500", "101811.437500", "101812.927500", "101814.417500", "101815.907500", "101817.397500", "101818.887500", "101820.377500", "101821.867500", "101823.357500", "101824.847500", "101826.337500", "101827.827500", "101829.317500", "101830.807500", "101832.297500", "101833.787500", "101835.277500", "101836.767500", "101838.257500", "101839.747500", "101841.237500", "101842.727500", "101844.217500", "101845.707500", "101847.197500", "101848.687500", "101850.177500", "101851.667500", "101853.157500", "101854.647500", "101856.137500", "101857.627500", "101859.117500", "101900.607500", "101902.097500", "101903.587500", "101905.077500", "101906.567500", "101908.057500", "101909.547500", "101911.037500", "101912.527500", "101914.017500", "101915.507500", "101916.997500", "101918.487500", "101919.977500", "101921.467500", "101922.957500", "101924.447500", "101925.937500", "101927.427500", "101928.917500", "101930.407500", "101931.897500", "101933.387500", "101934.877500", "101936.367500", "101937.857500", "101939.347500", "101940.837500", "101942.327500", "101943.817500", "101945.307500", "101946.797500", "101948.287500", "101949.777500", "101951.267500", "101952.757500", "101954.247500", "101955.737500", "101957.227500", "101958.717500", "102000.207500", "102001.697500", "102003.187500", "102004.677500", "102006.167500", "102007.657500", "102009.147500", "102010.637500", "102012.127500", "102013.617500", "102015.107500", "102016.597500", "102018.087500", "102019.577500", "102021.067500", "102022.557500", "102024.047500", "102025.537500", "102027.027500", "102028.517500", "102030.007500", "102031.497500", "102032.987500", "102034.477500", "102035.967500", "102037.457500", "102038.947500", "102040.437500", "102041.927500", "102043.417500", "102044.907500", "102046.397500", "102047.887500", "102049.377500", "102050.867500", "102052.357500", "102053.847500", "102055.337500", "102056.827500", "102058.317500", "102059.807500", "102101.297500", "102102.787500", "102104.277500", "102105.767500", "102107.257500", "102108.747500", "102110.237500", "102111.727500", "102113.217500", "102114.707500", "102116.197500", "102117.687500", "102119.177500", "102120.667500", "102122.157500", "102123.647500", "102125.137500", "102126.627500", "102128.117500", "102129.607500", "102131.097500", "102132.587500", "102134.077500", "102135.567500", "102137.057500", "102138.547500", "102140.037500", "102141.527500", "102143.017500", "102144.507500", "102145.997500", "102147.487500", "102148.977500", "102150.467500", "102151.957500", "102153.447500", "102154.937500", "102156.427500", "102157.917500", "102159.407500", "102200.897500", "102202.387500", "102203.877500", "102205.367500", "102206.857500", "102208.347500", "102209.837500", "102211.327500", "102212.817500", "102214.307500", "102215.797500", "102217.287500", "102218.777500", "102220.267500", "102221.757500", "102223.247500", "102224.737500", "102226.227500", "102227.717500", "102229.207500", "102230.697500", "102232.187500", "102233.677500", "102235.167500", "102236.657500", "102238.147500", "102239.637500", "102241.127500", "102242.617500", "102244.107500", "102245.597500", "102247.087500", "102248.577500", "102250.067500", "102251.557500", "102253.047500", "102254.537500", "102256.027500", "102257.517500", "102259.007500", "102300.497500", "102301.987500", "102303.477500", "102304.967500", "102306.457500", "102307.947500", "102309.437500", "102310.927500", "102312.417500", "102313.907500", "102315.397500", "102316.887500", "102318.377500", "102319.867500", "102321.357500", "102322.847500", "102324.337500", "102325.827500", "102327.317500", "102328.807500", "102330.297500", "102331.787500", "102333.277500", "102334.767500", "102336.257500", "102337.747500", "102339.237500", "102340.727500", "102342.217500", "102343.707500", "102345.197500", "102346.687500", "102348.177500", "102349.667500", "102351.157500", "102352.647500", "102354.137500", "102355.627500", "102357.117500", "102358.607500", "102400.097500", "102401.587500", "102403.077500", "102404.567500", "102406.057500", "102407.547500", "102409.037500", "102410.527500", "102412.017500", "102413.507500", "102414.997500", "102416.487500", "102417.977500", "102419.467500", "102420.957500", "102422.447500", "102423.937500", "102425.427500", "102426.917500", "102428.407500", "102429.897500", "102431.387500", "102432.877500", "102434.367500", "102435.857500", "102437.347500", "102438.837500", "102440.327500", "102441.817500", "102443.307500", "102444.797500", "102446.287500", "102447.777500", "102449.267500", "102450.757500", "102452.247500", "102453.737500", "102455.227500", "102456.717500", "102458.207500", "102459.697500", "102501.187500", "102502.677500", "102504.167500", "102505.657500", "102507.147500", "102508.637500", "102510.127500", "102511.617500", "102513.107500", "102514.597500", "102516.087500", "102517.577500", "102519.067500", "102520.557500", "102522.047500", "102523.537500", "102525.027500", "102526.517500", "102528.007500", "102529.497500", "102530.987500", "102532.477500", "102533.967500", "102535.457500", "102536.947500", "102538.437500", "102539.927500", "102541.417500", "102542.907500", "102544.397500", "102545.887500", "102547.377500", "102548.867500", "102550.357500", "102551.847500", "102553.337500", "102554.827500", "102556.317500", "102557.807500", "102559.297500", "102600.787500", "102602.277500", "102603.767500", "102605.257500", "102606.747500", "102608.237500", "102609.727500", "102611.217500", "102612.707500", "102614.197500", "102615.687500", "102617.177500", "102618.667500", "102620.157500", "102621.647500", "102623.137500", "102624.627500", "102626.117500", "102627.607500", "102629.097500", "102630.587500", "102632.077500", "102633.567500"],
      "ContentTime": ["101645.686000", "101645.689000", "101645.692000", "101645.695000", "101645.698000", "101645.701000", "101645.704000", "101645.707000", "101645.710000", "101645.712000", "101645.720000", "101645.722000", "101645.726000", "101645.728000", "101645.731000", "101645.734000", "101645.737000", "101645.740000", "101645.743000", "101645.754000", "101645.757000", "101645.760000", "101645.763000", "101705.656000", "101705.659000", "101705.662000", "101705.665000", "101705.668000", "101705.671000", "101705.673000", "101705.676000", "101705.679000", "101705.682000", "101705.685000", "101705.688000", "101705.691000", "101705.694000", "101705.696000", "101705.699000", "101705.702000", "101705.705000", "101705.708000", "101705.711000", "101725.656000", "101725.659000", "101725.662000", "101725.664000", "101725.668000", "101725.670000", "101725.673000", "101725.676000", "101725.679000", "101725.682000", "101725.685000", "101725.688000", "101725.691000", "101725.693000", "101725.696000", "101725.699000", "101725.702000", "101725.705000", "101725.708000", "101725.710000", "101745.656000", "101745.659000", "101745.662000", "101745.665000", "101745.668000", "101745.671000", "101745.674000", "101745.677000", "101745.679000", "101745.682000", "101745.685000", "101745.688000", "101745.691000", "101745.694000", "101745.697000", "101745.699000", "101745.702000", "101745.705000", "101745.708000", "101745.711000", "101745.714000", "101805.657000", "101805.665000", "101805.668000", "101805.671000", "101805.674000", "101805.677000", "101805.679000", "101805.682000", "101805.685000", "101805.688000", "101805.691000", "101805.694000", "101805.697000", "101805.700000", "101805.703000", "101805.705000", "101805.708000", "101805.711000", "101805.714000", "101805.717000", "101845.656000", "101845.659000", "101845.662000", "101845.665000", "101845.668000", "101845.671000", "101845.674000", "101845.677000", "101845.680000", "101845.682000", "101845.685000", "101845.688000", "101845.691000", "101845.694000", "101845.697000", "101845.704000", "101845.706000", "101845.709000", "101845.712000", "101845.715000", "101845.718000", "101845.721000", "101845.724000", "101845.727000", "101845.729000", "101845.732000", "101845.735000", "101925.656000", "101925.659000", "101925.662000", "101925.665000", "101925.668000", "101925.670000", "101925.674000", "101925.676000", "101925.679000", "101925.682000", "101925.685000", "101925.688000", "101925.691000", "101925.693000", "101925.696000", "101925.709000", "101925.712000", "101925.714000", "101925.717000", "101925.720000", "101925.723000", "101925.726000", "101925.729000", "101925.732000", "101925.735000", "101925.737000", "101925.740000", "102005.656000", "102005.659000", "102005.662000", "102005.665000", "102005.668000", "102005.671000", "102005.674000", "102005.677000", "102005.680000", "102005.683000", "102005.686000", "102005.689000", "102005.692000", "102005.695000", "102005.697000", "102005.700000", "102005.703000", "102005.706000", "102005.709000", "102005.712000", "102005.715000", "102005.718000", "102005.720000", "102005.723000", "102005.726000", "102005.729000", "102005.732000", "102045.656000", "102045.659000", "102045.662000", "102045.665000", "102045.668000", "102045.671000", "102045.674000", "102045.677000", "102045.679000", "102045.682000", "102045.685000", "102045.688000", "102045.691000", "102045.694000", "102045.697000", "102045.700000", "102045.703000", "102045.705000", "102045.708000", "102045.711000", "102045.714000", "102045.717000", "102045.720000", "102045.723000", "102045.725000", "102045.728000", "102125.656000", "102125.659000", "102125.662000", "102125.665000", "102125.668000", "102125.671000", "102125.674000", "102125.677000", "102125.679000", "102125.682000", "102125.685000", "102125.688000", "102125.691000", "102125.694000", "102125.697000", "102125.700000", "102125.703000", "102125.705000", "102125.708000", "102125.711000", "102125.714000", "102125.717000", "102125.720000", "102125.723000", "102125.726000", "102125.728000", "102125.731000", "102205.656000", "102205.659000", "102205.662000", "102205.665000", "102205.668000", "102205.671000", "102205.674000", "102205.677000", "102205.680000", "102205.683000", "102205.685000", "102205.688000", "102205.691000", "102205.694000", "102205.697000", "102205.700000", "102205.703000", "102205.706000", "102205.709000", "102205.711000", "102205.714000", "102205.717000", "102205.720000", "102205.723000", "102205.726000", "102205.729000", "102205.731000", "102245.657000", "102245.660000", "102245.663000", "102245.666000", "102245.669000", "102245.672000", "102245.674000", "102245.677000", "102245.680000", "102245.683000", "102245.686000", "102245.689000", "102245.692000", "102245.695000", "102245.698000", "102245.701000", "102245.704000", "102245.707000", "102245.709000", "102245.712000", "102245.715000", "102245.718000", "102245.721000", "102245.724000", "102245.727000", "102245.730000", "102245.732000", "102325.656000", "102325.659000", "102325.662000", "102325.665000", "102325.668000", "102325.671000", "102325.674000", "102325.677000", "102325.679000", "102325.682000", "102325.685000", "102325.688000", "102325.691000", "102325.694000", "102325.699000", "102325.702000", "102325.705000", "102325.708000", "102325.711000", "102325.714000", "102325.717000", "102325.720000", "102325.722000", "102325.725000", "102325.728000", "102325.731000", "102325.734000", "102405.656000", "102405.659000", "102405.662000", "102405.665000", "102405.668000", "102405.671000", "102405.674000", "102405.677000", "102405.679000", "102405.682000", "102405.685000", "102405.688000", "102405.691000", "102405.694000", "102405.697000", "102405.700000", "102405.703000", "102405.705000", "102405.708000", "102405.711000", "102405.714000", "102405.717000", "102405.720000", "102405.723000", "102405.726000", "102405.728000", "102405.731000", "102445.656000", "102445.659000", "102445.662000", "102445.665000", "102445.668000", "102445.671000", "102445.673000", "102445.676000", "102445.679000", "102445.682000", "102445.685000", "102445.688000", "102445.691000", "102445.694000", "102445.697000", "102445.700000", "102445.703000", "102445.706000", "102445.709000", "102445.711000", "102445.714000", "102445.717000", "102445.720000", "102445.723000", "102445.726000", "102445.729000", "102525.656000", "102525.659000", "102525.662000", "102525.665000", "102525.668000", "102525.671000", "102525.674000", "102525.677000", "102525.680000", "102525.682000", "102525.685000", "102525.688000", "102525.691000", "102525.694000", "102525.697000", "102525.700000", "102525.703000", "102525.706000", "102525.709000", "102525.711000", "102525.714000", "102525.717000", "102525.720000", "102525.723000", "102525.726000", "102525.729000", "102525.731000", "102605.656000", "102605.659000", "102605.662000", "102605.665000", "102605.668000", "102605.671000", "102605.674000", "102605.677000", "102605.680000", "102605.682000", "102605.685000", "102605.688000", "102605.691000", "102605.694000", "102605.697000", "102605.700000", "102605.703000", "102605.706000", "102605.709000", "102605.711000", "102605.714000", "102605.717000", "102605.720000", "102605.723000", "102605.726000", "102605.729000", "102605.732000", "102636.068000", "102636.071000", "102636.074000", "102636.077000", "102636.080000", "102636.083000", "102636.085000", "102636.088000", "102636.091000", "102636.094000", "102636.097000", "102636.100000", "102636.103000", "102636.106000", "102636.109000", "102636.112000", "102636.115000", "102636.118000", "102636.121000", "102636.124000", "102636.127000"],
