{
  "AcquisitionMatrixPE": 104,
  "AcquisitionNumber": 1,
  "AcquisitionTime": "10:09:36.735000",
  "BandwidthPerPixelPhaseEncode": 17.17,
  "BaseResolution": 104,
  "BodyPartExamined": "BRAIN",
  "CoilString": "HC1-7;NC1_2",
  "ConsistencyInfo": "N4_VE11C_LATEST_20160120",
  "ConversionSoftware": "dcm2niix",
  "ConversionSoftwareVersion": "v1.0.20190902",
  "DerivedVendorReportedEchoSpacing": 0.000560011,
  "DeviceSerialNumber": "167006",
  "DwellTime": 2.1e-06,
  "EchoTime": 0.037,
  "EchoTrainLength": 104,
  "EffectiveEchoSpacing": 0.000560011,
  "FlipAngle": 52,
  "ImageComments": "Unaliased_MB4_PE3_LB",
  "ImageOrientationPatientDICOM": [0.999786, 0.0206848, -0.00067859, -0.0181496, 0.860549, -0.509044],
  "ImageType": [
    "ORIGINAL",
    "PRIMARY",
    "M",
    "MB",
    "ND",
    "MOSAIC"
],
  "ImagingFrequency": 123.259,
  "InPlanePhaseEncodingDirectionDICOM": "COL",
  "InstitutionAddress": "Chemin_Queen-Mary_4565_Montreal_District_CA_H3W_1W5",
  "InstitutionName": "IUGM",
  "InstitutionalDepartmentName": "Department",
  "MRAcquisitionType": "2D",
  "MagneticFieldStrength": 3,
  "Manufacturer": "Siemens",
  "ManufacturersModelName": "Prisma_fit",
  "Modality": "MR",
  "MultibandAccelerationFactor": 4,
  "PartialFourier": 1,
  "PatientPosition": "HFS",
  "PercentPhaseFOV": 100,
  "PhaseEncodingDirection": "j",
  "PhaseEncodingSteps": 104,
  "PhaseResolution": 1,
  "PixelBandwidth": 2290,
  "ProcedureStepDescription": "video_friends",
  "ProtocolName": "func_task-friends-s04e01a",
  "PulseSequenceDetails": "%CustomerSeq%_cmrr_mbep2d_bold",
  "ReceiveCoilActiveElements": "HC1-7;NC1,2",
  "ReceiveCoilName": "HeadNeck_64",
  "ReconMatrixPE": 104,
  "RepetitionTime": 1.49,
  "SAR": 0.0364738,
  "ScanOptions": "FS",
  "ScanningSequence": "EP",
  "SequenceName": "epfid2d1_104",
  "SequenceVariant": "SK_SS",
  "SeriesDescription": "func_task-friends-s04e01a",
  "SeriesNumber": 19,
  "ShimSetting": [624, -7195, -8866, 396, -3, -183, -6, -25],
  "SliceThickness": 2,
  "SliceTiming": [0, 0.785, 0.0975, 0.8825, 0.1975, 0.98, 0.295, 1.0775, 0.3925, 1.1775, 0.49, 1.275, 0.5875, 1.3725, 0.6875, 0, 0.785, 0.0975, 0.8825, 0.1975, 0.98, 0.295, 1.0775, 0.3925, 1.1775, 0.49, 1.275, 0.5875, 1.3725, 0.6875, 0, 0.785, 0.0975, 0.8825, 0.1975, 0.98, 0.295, 1.0775, 0.3925, 1.1775, 0.49, 1.275, 0.5875, 1.3725, 0.6875, 0, 0.785, 0.0975, 0.8825, 0.1975, 0.98, 0.295, 1.0775, 0.3925, 1.1775, 0.49, 1.275, 0.5875, 1.3725, 0.6875],
  "SoftwareVersions": "syngo_MR_E11",
  "SpacingBetweenSlices": 2,
  "StationName": "MRC35049",
  "TaskName": "s04e01a",
  "TotalReadoutTime": 0.0576811,
  "TxRefAmp": 251.937,
  "WipMemBlock": "fb8667c7-4a08-4dcf-9a8e-d965ee87ab82||Sequence: R016 ve11c/master r/e634e98; Dec 19 2017 11:00:25 by eja",
  "dcmmeta_affine": [
    [-1.999571681022644, -0.03629918396472931, 0.019891027361154556, 104.64407348632812],
    [-0.04136957600712776, 1.7210978269577026, -1.017895221710205, -57.74560546875],
    [-0.0013571798335760832, 1.0180885791778564, 1.721480131149292, -96.93646240234375],
    [0.0, 0.0, 0.0, 1.0]
],
  "dcmmeta_reorient_transform": [
    [0.0, -1.0, 0.0, 103.0],
    [1.0, 0.0, 0.0, 0.0],
    [0.0, 0.0, 1.0, 0.0],
    [0.0, 0.0, 0.0, 1.0]
],
  "dcmmeta_shape": [104, 104, 60, 468],
  "dcmmeta_slice_dim": 2,
  "dcmmeta_version": 0.6,
  "global": {
    "const": {
      "AcquisitionMatrix": [104, 0, 0, 104],
      "AngioFlag": "N",
      "BitsAllocated": 16,
      "BitsStored": 16,
      "BodyPartExamined": "BRAIN",
      "Columns": 832,
      "EchoNumbers": 1,
      "EchoTime": 37.0,
      "EchoTrainLength": 104,
      "FlipAngle": 52.0,
      "HighBit": 15,
      "ImageOrientationPatient": [0.99978581660321, 0.02068478751999, -0.0006785899406, -0.0181495916948, 0.86054894143216, -0.5090443121392],
      "ImagePositionPatient": [-815.53642727667, -761.0656319523, 379.0049399125],
      "ImageType": [
        "ORIGINAL",
        "PRIMARY",
        "M",
        "MB",
        "ND",
        "MOSAIC"
],
      "ImagedNucleus": "1H",
      "ImagingFrequency": 123.25942,
      "InPlanePhaseEncodingDirection": "COL",
      "MRAcquisitionType": "2D",
      "MagneticFieldStrength": 3.0,
      "Manufacturer": "SIEMENS",
      "ManufacturerModelName": "Prisma_fit",
      "Modality": "MR",
      "NumberOfAverages": 1.0,
      "NumberOfPhaseEncodingSteps": 104,
      "PercentPhaseFieldOfView": 100.0,
      "PercentSampling": 100.0,
      "PerformedProcedureStepStartTime": "085951.000000",
      "PhotometricInterpretation": "MONOCHROME2",
      "PixelBandwidth": 2290.0,
      "PixelRepresentation": 0,
      "PixelSpacing": [2.0, 2.0],
      "ProtocolName": "func_task-friends-s04e01a",
      "RepetitionTime": 1490.0,
      "Rows": 832,
      "SAR": 0.03647375430811,
      "SamplesPerPixel": 1,
      "ScanOptions": "FS",
      "ScanningSequence": "EP",
      "SequenceName": "epfid2d1_104",
      "SequenceVariant": [
        "SK",
        "SS"
],
      "SeriesDescription": "func_task-friends-s04e01a",
      "SeriesNumber": 19,
      "SeriesTime": "101052.080000",
      "SliceLocation": -53.00686814219,
      "SliceThickness": 2.0,
      "SmallestImagePixelValue": 0,
      "SoftwareVersions": "syngo MR E11",
      "SpacingBetweenSlices": 2.0000000006118,
      "SpecificCharacterSet": "ISO_IR 100",
      "StudyID": "1",
      "StudyTime": "085950.885000",
      "TransmitCoilName": "Body",
      "VariableFlipAngleFlag": "N",
      "WindowCenterWidthExplanation": "Algo1",
      "dBdt": 0.0},
    "slices": {}
  },
  "time": {
    "samples": {
      "AcquisitionNumber": [1, 2, 3, 4, 5, 6, 7, 8, 9, 10, 11, 12, 13, 14, 15, 16, 17, 18, 19, 20, 21, 22, 23, 24, 25, 26, 27, 28, 29, 30, 31, 32, 33, 34, 35, 36, 37, 38, 39, 40, 41, 42, 43, 44, 45, 46, 47, 48, 49, 50, 51, 52, 53, 54, 55, 56, 57, 58, 59, 60, 61, 62, 63, 64, 65, 66, 67, 68, 69, 70, 71, 72, 73, 74, 75, 76, 77, 78, 79, 80, 81, 82, 83, 84, 85, 86, 87, 88, 89, 90, 91, 92, 93, 94, 95, 96, 97, 98, 99, 100, 101, 102, 103, 104, 105, 106, 107, 108, 109, 110, 111, 112, 113, 114, 115, 116, 117, 118, 119, 120, 121, 122, 123, 124, 125, 126, 127, 128, 129, 130, 131, 132, 133, 134, 135, 136, 137, 138, 139, 140, 141, 142, 143, 144, 145, 146, 147, 148, 149, 150, 151, 152, 153, 154, 155, 156, 157, 158, 159, 160, 161, 162, 163, 164, 165, 166, 167, 168, 169, 170, 171, 172, 173, 174, 175, 176, 177, 178, 179, 180, 181, 182, 183, 184, 185, 186, 187, 188, 189, 190, 191, 192, 193, 194, 195, 196, 197, 198, 199, 200, 201, 202, 203, 204, 205, 206, 207, 208, 209, 210, 211, 212, 213, 214, 215, 216, 217, 218, 219, 220, 221, 222, 223, 224, 225, 226, 227, 228, 229, 230, 231, 232, 233, 234, 235, 236, 237, 238, 239, 240, 241, 242, 243, 244, 245, 246, 247, 248, 249, 250, 251, 252, 253, 254, 255, 256, 257, 258, 259, 260, 261, 262, 263, 264, 265, 266, 267, 268, 269, 270, 271, 272, 273, 274, 275, 276, 277, 278, 279, 280, 281, 282, 283, 284, 285, 286, 287, 288, 289, 290, 291, 292, 293, 294, 295, 296, 297, 298, 299, 300, 301, 302, 303, 304, 305, 306, 307, 308, 309, 310, 311, 312, 313, 314, 315, 316, 317, 318, 319, 320, 321, 322, 323, 324, 325, 326, 327, 328, 329, 330, 331, 332, 333, 334, 335, 336, 337, 338, 339, 340, 341, 342, 343, 344, 345, 346, 347, 348, 349, 350, 351, 352, 353, 354, 355, 356, 357, 358, 359, 360, 361, 362, 363, 364, 365, 366, 367, 368, 369, 370, 371, 372, 373, 374, 375, 376, 377, 378, 379, 380, 381, 382, 383, 384, 385, 386, 387, 388, 389, 390, 391, 392, 393, 394, 395, 396, 397, 398, 399, 400, 401, 402, 403, 404, 405, 406, 407, 408, 409, 410, 411, 412, 413, 414, 415, 416, 417, 418, 419, 420, 421, 422, 423, 424, 425, 426, 427, 428, 429, 430, 431, 432, 433, 434, 435, 436, 437, 438, 439, 440, 441, 442, 443, 444, 445, 446, 447, 448, 449, 450, 451, 452, 453, 454, 455, 456, 457, 458, 459, 460, 461, 462, 463, 464, 465, 466, 467, 468],
      "AcquisitionTime": ["100936.735000", "100938.225000", "100939.715000", "100941.205000", "100942.695000", "100944.185000", "100945.675000", "100947.165000", "100948.655000", "100950.145000", "100951.635000", "100953.125000", "100954.615000", "100956.105000", "100957.595000", "100959.085000", "101000.575000", "101002.065000", "101003.555000", "101005.045000", "101006.535000", "101008.025000", "101009.515000", "101011.005000", "101012.495000", "101013.985000", "101015.475000", "101016.965000", "101018.455000", "101019.945000", "101021.435000", "101022.925000", "101024.415000", "101025.905000", "101027.395000", "101028.885000", "101030.375000", "101031.865000", "101033.355000", "101034.845000", "101036.335000", "101037.825000", "101039.315000", "101040.805000", "101042.295000", "101043.785000", "101045.275000", "101046.765000", "101048.255000", "101049.745000", "101051.235000", "101052.725000", "101054.215000", "101055.705000", "101057.195000", "101058.685000", "101100.175000", "101101.665000", "101103.155000", "101104.645000", "101106.135000", "101107.625000", "101109.115000", "101110.605000", "101112.095000", "101113.585000", "101115.075000", "101116.565000", "101118.055000", "101119.545000", "101121.035000", "101122.525000", "101124.015000", "101125.505000", "101126.995000", "101128.485000", "101129.975000", "101131.465000", "101132.955000", "101134.445000", "101135.935000", "101137.425000", "101138.915000", "101140.405000", "101141.895000", "101143.385000", "101144.875000", "101146.365000", "101147.855000", "101149.345000", "101150.835000", "101152.325000", "101153.815000", "101155.305000", "101156.795000", "101158.285000", "101159.775000", "101201.265000", "101202.755000", "101204.245000", "101205.735000", "101207.225000", "101208.715000", "101210.205000", "101211.695000", "101213.185000", "101214.675000", "101216.165000", "101217.655000", "101219.145000", "101220.635000", "101222.125000", "101223.615000", "101225.105000", "101226.595000", "101228.085000", "101229.575000", "101231.065000", "101232.555000", "101234.045000", "101235.535000", "101237.025000", "101238.515000", "101240.005000", "101241.495000", "101242.985000", "101244.475000", "101245.965000", "101247.455000", "101248.945000", "101250.435000", "101251.925000", "101253.415000", "101254.905000", "101256.395000", "101257.885000", "101259.375000", "101300.865000", "101302.355000", "101303.845000", "101305.335000", "101306.825000", "101308.315000", "101309.805000", "101311.295000", "101312.785000", "101314.275000", "101315.765000", "101317.255000", "101318.745000", "101320.235000", "101321.725000", "101323.215000", "101324.705000", "101326.195000", "101327.685000", "101329.175000", "101330.665000", "101332.155000", "101333.645000", "101335.135000", "101336.625000", "101338.115000", "101339.605000", "101341.095000", "101342.585000", "101344.075000", "101345.565000", "101347.055000", "101348.545000", "101350.035000", "101351.525000", "101353.015000", "101354.505000", "101355.995000", "101357.485000", "101358.975000", "101400.465000", "101401.955000", "101403.445000", "101404.935000", "101406.425000", "101407.915000", "101409.405000", "101410.895000", "101412.385000", "101413.875000", "101415.365000", "101416.855000", "101418.345000", "101419.835000", "101421.325000", "101422.815000", "101424.305000", "101425.795000", "101427.285000", "101428.775000", "101430.265000", "101431.755000", "101433.245000", "101434.735000", "101436.225000", "101437.715000", "101439.205000", "101440.695000", "101442.185000", "101443.675000", "101445.165000", "101446.655000", "101448.145000", "101449.635000", "101451.125000", "101452.615000", "101454.105000", "101455.595000", "101457.085000", "101458.575000", "101500.065000", "101501.555000", "101503.045000", "101504.535000", "101506.025000", "101507.515000", "101509.005000", "101510.495000", "101511.985000", "101513.475000", "101514.965000", "101516.455000", "101517.945000", "101519.435000", "101520.925000", "101522.415000", "101523.905000", "101525.395000", "101526.885000", "101528.375000", "101529.865000", "101531.355000", "101532.845000", "101534.335000", "101535.825000", "101537.315000", "101538.805000", "101540.295000", "101541.785000", "101543.275000", "101544.765000", "101546.255000", "101547.745000", "101549.235000", "101550.725000", "101552.215000", "101553.705000", "101555.195000", "101556.685000", "101558.175000", "101559.665000", "101601.155000", "101602.645000", "101604.135000", "101605.625000", "101607.115000", "101608.605000", "101610.095000", "101611.585000", "101613.075000", "101614.565000", "101616.055000", "101617.545000", "101619.035000", "101620.525000", "101622.015000", "101623.505000", "101624.995000", "101626.485000", "101627.975000", "101629.465000", "101630.955000", "101632.445000", "101633.935000", "101635.425000", "101636.915000", "101638.405000", "101639.895000", "101641.385000", "101642.875000", "101644.365000", "101645.855000", "101647.345000", "101648.835000", "101650.325000", "101651.815000", "101653.305000", "101654.795000", "101656.285000", "101657.775000", "101659.265000", "101700.755000", "101702.245000", "101703.735000", "101705.225000", "101706.715000", "101708.205000", "101709.695000", "101711.185000", "101712.675000", "101714.165000", "101715.655000", "101717.145000", "101718.635000", "101720.125000", "101721.615000", "101723.105000", "101724.595000", "101726.085000", "101727.575000", "101729.065000", "101730.555000", "101732.045000", "101733.535000", "101735.025000", "101736.515000", "101738.005000", "101739.495000", "101740.985000", "101742.475000", "101743.965000", "101745.455000", "101746.945000", "101748.435000", "101749.925000", "101751.415000", "101752.905000", "101754.395000", "101755.885000", "101757.375000", "101758.865000", "101800.355000", "101801.845000", "101803.335000", "101804.825000", "101806.315000", "101807.805000", "101809.295000", "101810.785000", "101812.275000", "101813.765000", "101815.255000", "101816.745000", "101818.235000", "101819.725000", "101821.215000", "101822.705000", "101824.195000", "101825.685000", "101827.175000", "101828.665000", "101830.155000", "101831.645000", "101833.135000", "101834.625000", "101836.115000", "101837.605000", "101839.095000", "101840.585000", "101842.075000", "101843.565000", "101845.055000", "101846.545000", "101848.035000", "101849.525000", "101851.015000", "101852.505000", "101853.995000", "101855.485000", "101856.975000", "101858.465000", "101859.955000", "101901.445000", "101902.935000", "101904.425000", "101905.915000", "101907.405000", "101908.895000", "101910.385000", "101911.875000", "101913.365000", "101914.855000", "101916.345000", "101917.835000", "101919.325000", "101920.815000", "101922.305000", "101923.795000", "101925.285000", "101926.775000", "101928.265000", "101929.755000", "101931.245000", "101932.735000", "101934.225000", "101935.715000", "101937.205000", "101938.695000", "101940.185000", "101941.675000", "101943.165000", "101944.655000", "101946.145000", "101947.635000", "101949.125000", "101950.615000", "101952.105000", "101953.595000", "101955.085000", "101956.575000", "101958.065000", "101959.555000", "102001.045000", "102002.535000", "102004.025000", "102005.515000", "102007.005000", "102008.495000", "102009.985000", "102011.475000", "102012.965000", "102014.455000", "102015.945000", "102017.435000", "102018.925000", "102020.415000", "102021.905000", "102023.395000", "102024.885000", "102026.375000", "102027.865000", "102029.355000", "102030.845000", "102032.335000", "102033.825000", "102035.315000", "102036.805000", "102038.295000", "102039.785000", "102041.275000", "102042.765000", "102044.255000", "102045.745000", "102047.235000", "102048.725000", "102050.215000", "102051.705000", "102053.195000", "102054.685000", "102056.175000", "102057.665000", "102059.155000", "102100.645000", "102102.135000", "102103.625000", "102105.115000", "102106.605000", "102108.095000", "102109.585000", "102111.075000", "102112.565000"],
      "ContentTime": ["101052.083000", "101052.086000", "101052.089000", "101052.092000", "101052.095000", "101052.102000", "101052.105000", "101052.108000", "101052.110000", "101052.113000", "101052.116000", "101052.119000", "101052.122000", "101052.125000", "101052.128000", "101052.131000", "101052.133000", "101052.136000", "101052.139000", "101052.142000", "101052.144000", "101112.044000", "101112.047000", "101112.050000", "101112.053000", "101112.055000", "101112.058000", "101112.061000", "101112.064000", "101112.067000", "101112.069000", "101112.072000", "101112.080000", "101112.083000", "101112.086000", "101112.089000", "101112.091000", "101112.094000", "101112.097000", "101112.100000", "101112.103000", "101112.106000", "101132.044000", "101132.047000", "101132.050000", "101132.052000", "101132.055000", "101132.058000", "101132.061000", "101132.064000", "101132.066000", "101132.069000", "101132.078000", "101132.081000", "101132.084000", "101132.087000", "101132.089000", "101132.092000", "101132.095000", "101132.098000", "101132.101000", "101132.103000", "101152.043000", "101152.046000", "101152.049000", "101152.051000", "101152.054000", "101152.057000", "101152.060000", "101152.063000", "101152.065000", "101152.068000", "101152.071000", "101152.074000", "101152.077000", "101152.079000", "101152.082000", "101152.085000", "101152.088000", "101152.091000", "101152.094000", "101152.096000", "101212.043000", "101212.046000", "101212.049000", "101212.051000", "101212.054000", "101212.057000", "101212.060000", "101212.063000", "101212.066000", "101212.069000", "101212.071000", "101212.074000", "101212.077000", "101212.080000", "101212.083000", "101212.085000", "101212.088000", "101212.091000", "101212.094000", "101212.097000", "101252.044000", "101252.061000", "101252.064000", "101252.067000", "101252.070000", "101252.072000", "101252.075000", "101252.078000", "101252.081000", "101252.084000", "101252.086000", "101252.089000", "101252.092000", "101252.095000", "101252.098000", "101252.101000", "101252.103000", "101252.106000", "101252.109000", "101252.112000", "101252.115000", "101252.118000", "101252.120000", "101252.123000", "101252.126000", "101252.129000", "101252.132000", "101252.134000", "101332.044000", "101332.047000", "101332.050000", "101332.053000", "101332.056000", "101332.058000", "101332.061000", "101332.064000", "101332.067000", "101332.070000", "101332.072000", "101332.075000", "101332.078000", "101332.081000", "101332.084000", "101332.087000", "101332.089000", "101332.092000", "101332.095000", "101332.098000", "101332.101000", "101332.104000", "101332.107000", "101332.109000", "101332.112000", "101332.115000", "101332.118000", "101352.044000", "101352.047000", "101352.050000", "101352.053000", "101352.055000", "101352.058000", "101352.061000", "101352.064000", "101352.067000", "101352.069000", "101352.072000", "101352.075000", "101352.078000", "101432.043000", "101432.046000", "101432.049000", "101432.052000", "101432.054000", "101432.057000", "101432.060000", "101432.063000", "101432.066000", "101432.069000", "101432.071000", "101432.074000", "101432.077000", "101432.080000", "101432.083000", "101432.086000", "101432.089000", "101432.091000", "101432.094000", "101432.097000", "101432.100000", "101432.103000", "101432.105000", "101432.108000", "101432.111000", "101432.114000", "101432.117000", "101512.044000", "101512.047000", "101512.050000", "101512.053000", "101512.060000", "101512.063000", "101512.066000", "101512.069000", "101512.072000", "101512.074000", "101512.077000", "101512.080000", "101512.083000", "101512.086000", "101512.089000", "101512.092000", "101512.094000", "101512.097000", "101512.100000", "101512.103000", "101512.106000", "101512.109000", "101512.112000", "101512.114000", "101512.117000", "101512.120000", "101512.123000", "101552.044000", "101552.047000", "101552.050000", "101552.053000", "101552.055000", "101552.058000", "101552.061000", "101552.064000", "101552.067000", "101552.069000", "101552.072000", "101552.075000", "101552.078000", "101552.081000", "101552.084000", "101552.087000", "101552.090000", "101552.092000", "101552.095000", "101552.098000", "101552.101000", "101552.104000", "101552.107000", "101552.110000", "101552.112000", "101552.115000", "101552.118000", "101632.043000", "101632.046000", "101632.049000", "101632.052000", "101632.054000", "101632.057000", "101632.060000", "101632.063000", "101632.066000", "101632.069000", "101632.072000", "101632.074000", "101632.077000", "101632.080000", "101632.083000", "101632.086000", "101632.089000", "101632.091000", "101632.094000", "101632.097000", "101632.100000", "101632.103000", "101632.106000", "101632.109000", "101632.111000", "101632.114000", "101632.117000", "101712.044000", "101712.047000", "101712.050000", "101712.053000", "101712.056000", "101712.058000", "101712.061000", "101712.064000", "101712.067000", "101712.070000", "101712.073000", "101712.076000", "101712.078000", "101712.081000", "101712.084000", "101712.087000", "101712.090000", "101712.092000", "101712.095000", "101712.098000", "101712.101000", "101712.104000", "101712.121000", "101712.124000", "101712.127000", "101712.130000", "101712.132000", "101752.044000", "101752.047000", "101752.050000", "101752.053000", "101752.055000", "101752.058000", "101752.061000", "101752.064000", "101752.067000", "101752.070000", "101752.073000", "101752.075000", "101752.078000", "101752.082000", "101752.085000", "101752.088000", "101752.090000", "101752.093000", "101752.096000", "101752.099000", "101752.102000", "101752.105000", "101752.108000", "101752.110000", "101752.113000", "101752.116000", "101832.044000", "101832.047000", "101832.050000", "101832.053000", "101832.056000", "101832.058000", "101832.061000", "101832.064000", "101832.067000", "101832.070000", "101832.073000", "101832.075000", "101832.078000", "101832.081000", "101832.084000", "101832.087000", "101832.090000", "101832.092000", "101832.095000", "101832.098000", "101832.101000", "101832.104000", "101832.107000", "101832.110000", "101832.112000", "101832.115000", "101832.118000", "101912.043000", "101912.046000", "101912.049000", "101912.052000", "101912.055000", "101912.057000", "101912.060000", "101912.063000", "101912.066000", "101912.069000", "101912.072000", "101912.075000", "101912.077000", "101912.080000", "101912.083000", "101912.086000", "101912.089000", "101912.092000", "101912.095000", "101912.097000", "101912.100000", "101912.103000", "101912.106000", "101912.109000", "101912.112000", "101912.115000", "101912.118000", "101952.044000", "101952.047000", "101952.050000", "101952.053000", "101952.056000", "101952.058000", "101952.061000", "101952.064000", "101952.067000", "101952.070000", "101952.073000", "101952.075000", "101952.078000", "101952.081000", "101952.084000", "101952.087000", "101952.090000", "101952.093000", "101952.095000", "101952.098000", "101952.101000", "101952.104000", "101952.107000", "101952.110000", "101952.112000", "101952.115000", "101952.118000", "102032.044000", "102032.047000", "102032.050000", "102032.053000", "102032.056000", "102032.059000", "102032.061000", "102032.064000", "102032.067000", "102032.070000", "102032.073000", "102032.076000", "102032.078000", "102032.081000", "102032.084000", "102032.087000", "102032.090000", "102032.092000", "102032.095000", "102032.098000", "102032.101000", "102032.104000", "102032.107000", "102032.110000", "102032.112000", "102032.115000", "102032.118000", "102112.043000", "102112.046000", "102112.049000", "102112.052000", "102112.055000", "102112.057000", "102112.060000", "102112.063000", "102112.066000", "102112.069000", "102112.072000", "102112.075000", "102112.077000", "102112.080000", "102112.083000", "102112.096000", "102112.098000", "102112.101000", "102112.104000", "102112.107000", "102112.110000", "102112.113000", "102112.115000", "102112.118000", "102112.121000", "102112.124000", "102112.127000", "102114.909000", "102114.912000"],
