{
  "AcquisitionMatrixPE": 104,
  "AcquisitionNumber": 1,
  "AcquisitionTime": "10:21:43.337500",
  "BandwidthPerPixelPhaseEncode": 17.17,
  "BaseResolution": 104,
  "BodyPartExamined": "BRAIN",
  "CoilString": "HC1-7;NC1_2",
  "ConsistencyInfo": "N4_VE11C_LATEST_20160120",
  "ConversionSoftware": "dcm2niix",
  "ConversionSoftwareVersion": "v1.0.20190902",
  "DerivedVendorReportedEchoSpacing": 0.000560011,
  "DeviceSerialNumber": "167006",
  "DwellTime": 2.1e-06,
  "EchoTime": 0.037,
  "EchoTrainLength": 104,
  "EffectiveEchoSpacing": 0.000560011,
  "FlipAngle": 52,
  "ImageComments": "Unaliased_MB4_PE3_LB",
  "ImageOrientationPatientDICOM": [0.999786, 0.0206848, -0.00067859, -0.0181496, 0.860549, -0.509044],
  "ImageType": [
    "ORIGINAL",
    "PRIMARY",
    "M",
    "MB",
    "ND",
    "MOSAIC"
],
  "ImagingFrequency": 123.259,
  "InPlanePhaseEncodingDirectionDICOM": "COL",
  "InstitutionAddress": "Chemin_Queen-Mary_4565_Montreal_District_CA_H3W_1W5",
  "InstitutionName": "IUGM",
  "InstitutionalDepartmentName": "Department",
  "MRAcquisitionType": "2D",
  "MagneticFieldStrength": 3,
  "Manufacturer": "Siemens",
  "ManufacturersModelName": "Prisma_fit",
  "Modality": "MR",
  "MultibandAccelerationFactor": 4,
  "PartialFourier": 1,
  "PatientPosition": "HFS",
  "PercentPhaseFOV": 100,
  "PhaseEncodingDirection": "j",
  "PhaseEncodingSteps": 104,
  "PhaseResolution": 1,
  "PixelBandwidth": 2290,
  "ProcedureStepDescription": "video_friends",
  "ProtocolName": "func_task-friends-s04e01b",
  "PulseSequenceDetails": "%CustomerSeq%_cmrr_mbep2d_bold",
  "ReceiveCoilActiveElements": "HC1-7;NC1,2",
  "ReceiveCoilName": "HeadNeck_64",
  "ReconMatrixPE": 104,
  "RepetitionTime": 1.49,
  "SAR": 0.0364738,
  "ScanOptions": "FS",
  "ScanningSequence": "EP",
  "SequenceName": "epfid2d1_104",
  "SequenceVariant": "SK_SS",
  "SeriesDescription": "func_task-friends-s04e01b",
  "SeriesNumber": 21,
  "ShimSetting": [624, -7195, -8866, 396, -3, -183, -6, -25],
  "SliceThickness": 2,
  "SliceTiming": [0, 0.7825, 0.0975, 0.8825, 0.195, 0.98, 0.295, 1.0775, 0.3925, 1.175, 0.49, 1.2725, 0.5875, 1.3725, 0.685, 0, 0.7825, 0.0975, 0.8825, 0.195, 0.98, 0.295, 1.0775, 0.3925, 1.175, 0.49, 1.2725, 0.5875, 1.3725, 0.685, 0, 0.7825, 0.0975, 0.8825, 0.195, 0.98, 0.295, 1.0775, 0.3925, 1.175, 0.49, 1.2725, 0.5875, 1.3725, 0.685, 0, 0.7825, 0.0975, 0.8825, 0.195, 0.98, 0.295, 1.0775, 0.3925, 1.175, 0.49, 1.2725, 0.5875, 1.3725, 0.685],
  "SoftwareVersions": "syngo_MR_E11",
  "SpacingBetweenSlices": 2,
  "StationName": "MRC35049",
  "TaskName": "s04e01b",
  "TotalReadoutTime": 0.0576811,
  "TxRefAmp": 251.937,
  "WipMemBlock": "7c9bb87c-9639-4e6b-9a01-28265e2fd123||Sequence: R016 ve11c/master r/e634e98; Dec 19 2017 11:00:25 by eja",
  "dcmmeta_affine": [
    [-1.999571681022644, -0.03629918396472931, 0.019891027361154556, 104.64407348632812],
    [-0.04136957600712776, 1.7210978269577026, -1.017895221710205, -57.74560546875],
    [-0.0013571798335760832, 1.0180885791778564, 1.721480131149292, -96.93646240234375],
    [0.0, 0.0, 0.0, 1.0]
],
  "dcmmeta_reorient_transform": [
    [0.0, -1.0, 0.0, 103.0],
    [1.0, 0.0, 0.0, 0.0],
    [0.0, 0.0, 1.0, 0.0],
    [0.0, 0.0, 0.0, 1.0]
],
  "dcmmeta_shape": [104, 104, 60, 468],
  "dcmmeta_slice_dim": 2,
  "dcmmeta_version": 0.6,
  "global": {
    "const": {
      "AcquisitionMatrix": [104, 0, 0, 104],
      "AngioFlag": "N",
      "BitsAllocated": 16,
      "BitsStored": 16,
      "BodyPartExamined": "BRAIN",
      "Columns": 832,
      "EchoNumbers": 1,
      "EchoTime": 37.0,
      "EchoTrainLength": 104,
      "FlipAngle": 52.0,
      "HighBit": 15,
      "ImageOrientationPatient": [0.99978581660321, 0.02068478751999, -0.0006785899406, -0.0181495916948, 0.86054894143216, -0.5090443121392],
      "ImagePositionPatient": [-815.53642727667, -761.0656319523, 379.0049399125],
      "ImageType": [
        "ORIGINAL",
        "PRIMARY",
        "M",
        "MB",
        "ND",
        "MOSAIC"
],
      "ImagedNucleus": "1H",
      "ImagingFrequency": 123.259425,
      "InPlanePhaseEncodingDirection": "COL",
      "MRAcquisitionType": "2D",
      "MagneticFieldStrength": 3.0,
      "Manufacturer": "SIEMENS",
      "ManufacturerModelName": "Prisma_fit",
      "Modality": "MR",
      "NumberOfAverages": 1.0,
      "NumberOfPhaseEncodingSteps": 104,
      "PercentPhaseFieldOfView": 100.0,
      "PercentSampling": 100.0,
      "PerformedProcedureStepStartTime": "085951.000000",
      "PhotometricInterpretation": "MONOCHROME2",
      "PixelBandwidth": 2290.0,
      "PixelRepresentation": 0,
      "PixelSpacing": [2.0, 2.0],
      "ProtocolName": "func_task-friends-s04e01b",
      "RepetitionTime": 1490.0,
      "Rows": 832,
      "SAR": 0.03647375430811,
      "SamplesPerPixel": 1,
      "ScanOptions": "FS",
      "ScanningSequence": "EP",
      "SequenceName": "epfid2d1_104",
      "SequenceVariant": [
        "SK",
        "SS"
],
      "SeriesDescription": "func_task-friends-s04e01b",
      "SeriesNumber": 21,
      "SeriesTime": "102305.779000",
      "SliceLocation": -53.00686814219,
      "SliceThickness": 2.0,
      "SmallestImagePixelValue": 0,
      "SoftwareVersions": "syngo MR E11",
      "SpacingBetweenSlices": 2.0000000006118,
      "SpecificCharacterSet": "ISO_IR 100",
      "StudyID": "1",
      "StudyTime": "085950.885000",
      "TransmitCoilName": "Body",
      "VariableFlipAngleFlag": "N",
      "WindowCenterWidthExplanation": "Algo1",
      "dBdt": 0.0},
    "slices": {}
  },
  "time": {
    "samples": {
      "AcquisitionNumber": [1, 2, 3, 4, 5, 6, 7, 8, 9, 10, 11, 12, 13, 14, 15, 16, 17, 18, 19, 20, 21, 22, 23, 24, 25, 26, 27, 28, 29, 30, 31, 32, 33, 34, 35, 36, 37, 38, 39, 40, 41, 42, 43, 44, 45, 46, 47, 48, 49, 50, 51, 52, 53, 54, 55, 56, 57, 58, 59, 60, 61, 62, 63, 64, 65, 66, 67, 68, 69, 70, 71, 72, 73, 74, 75, 76, 77, 78, 79, 80, 81, 82, 83, 84, 85, 86, 87, 88, 89, 90, 91, 92, 93, 94, 95, 96, 97, 98, 99, 100, 101, 102, 103, 104, 105, 106, 107, 108, 109, 110, 111, 112, 113, 114, 115, 116, 117, 118, 119, 120, 121, 122, 123, 124, 125, 126, 127, 128, 129, 130, 131, 132, 133, 134, 135, 136, 137, 138, 139, 140, 141, 142, 143, 144, 145, 146, 147, 148, 149, 150, 151, 152, 153, 154, 155, 156, 157, 158, 159, 160, 161, 162, 163, 164, 165, 166, 167, 168, 169, 170, 171, 172, 173, 174, 175, 176, 177, 178, 179, 180, 181, 182, 183, 184, 185, 186, 187, 188, 189, 190, 191, 192, 193, 194, 195, 196, 197, 198, 199, 200, 201, 202, 203, 204, 205, 206, 207, 208, 209, 210, 211, 212, 213, 214, 215, 216, 217, 218, 219, 220, 221, 222, 223, 224, 225, 226, 227, 228, 229, 230, 231, 232, 233, 234, 235, 236, 237, 238, 239, 240, 241, 242, 243, 244, 245, 246, 247, 248, 249, 250, 251, 252, 253, 254, 255, 256, 257, 258, 259, 260, 261, 262, 263, 264, 265, 266, 267, 268, 269, 270, 271, 272, 273, 274, 275, 276, 277, 278, 279, 280, 281, 282, 283, 284, 285, 286, 287, 288, 289, 290, 291, 292, 293, 294, 295, 296, 297, 298, 299, 300, 301, 302, 303, 304, 305, 306, 307, 308, 309, 310, 311, 312, 313, 314, 315, 316, 317, 318, 319, 320, 321, 322, 323, 324, 325, 326, 327, 328, 329, 330, 331, 332, 333, 334, 335, 336, 337, 338, 339, 340, 341, 342, 343, 344, 345, 346, 347, 348, 349, 350, 351, 352, 353, 354, 355, 356, 357, 358, 359, 360, 361, 362, 363, 364, 365, 366, 367, 368, 369, 370, 371, 372, 373, 374, 375, 376, 377, 378, 379, 380, 381, 382, 383, 384, 385, 386, 387, 388, 389, 390, 391, 392, 393, 394, 395, 396, 397, 398, 399, 400, 401, 402, 403, 404, 405, 406, 407, 408, 409, 410, 411, 412, 413, 414, 415, 416, 417, 418, 419, 420, 421, 422, 423, 424, 425, 426, 427, 428, 429, 430, 431, 432, 433, 434, 435, 436, 437, 438, 439, 440, 441, 442, 443, 444, 445, 446, 447, 448, 449, 450, 451, 452, 453, 454, 455, 456, 457, 458, 459, 460, 461, 462, 463, 464, 465, 466, 467, 468],
      "AcquisitionTime": ["102143.337500", "102144.827500", "102146.317500", "102147.807500", "102149.297500", "102150.787500", "102152.277500", "102153.767500", "102155.257500", "102156.747500", "102158.237500", "102159.727500", "102201.217500", "102202.707500", "102204.197500", "102205.687500", "102207.177500", "102208.667500", "102210.157500", "102211.647500", "102213.137500", "102214.627500", "102216.117500", "102217.607500", "102219.097500", "102220.587500", "102222.077500", "102223.567500", "102225.057500", "102226.547500", "102228.037500", "102229.527500", "102231.017500", "102232.507500", "102233.997500", "102235.487500", "102236.977500", "102238.467500", "102239.957500", "102241.447500", "102242.937500", "102244.427500", "102245.917500", "102247.407500", "102248.897500", "102250.387500", "102251.877500", "102253.367500", "102254.857500", "102256.347500", "102257.837500", "102259.327500", "102300.817500", "102302.307500", "102303.797500", "102305.287500", "102306.777500", "102308.267500", "102309.757500", "102311.247500", "102312.737500", "102314.227500", "102315.717500", "102317.207500", "102318.697500", "102320.187500", "102321.677500", "102323.167500", "102324.657500", "102326.147500", "102327.637500", "102329.127500", "102330.617500", "102332.107500", "102333.597500", "102335.087500", "102336.577500", "102338.067500", "102339.557500", "102341.047500", "102342.537500", "102344.027500", "102345.517500", "102347.007500", "102348.497500", "102349.987500", "102351.477500", "102352.967500", "102354.457500", "102355.947500", "102357.437500", "102358.927500", "102400.417500", "102401.907500", "102403.397500", "102404.887500", "102406.377500", "102407.867500", "102409.357500", "102410.847500", "102412.337500", "102413.827500", "102415.317500", "102416.807500", "102418.297500", "102419.787500", "102421.277500", "102422.767500", "102424.257500", "102425.747500", "102427.237500", "102428.727500", "102430.217500", "102431.707500", "102433.197500", "102434.687500", "102436.177500", "102437.667500", "102439.157500", "102440.647500", "102442.137500", "102443.627500", "102445.117500", "102446.607500", "102448.097500", "102449.587500", "102451.077500", "102452.567500", "102454.057500", "102455.547500", "102457.037500", "102458.527500", "102500.017500", "102501.507500", "102502.997500", "102504.487500", "102505.977500", "102507.467500", "102508.957500", "102510.447500", "102511.937500", "102513.427500", "102514.917500", "102516.407500", "102517.897500", "102519.387500", "102520.877500", "102522.367500", "102523.857500", "102525.347500", "102526.837500", "102528.327500", "102529.817500", "102531.307500", "102532.797500", "102534.287500", "102535.777500", "102537.267500", "102538.757500", "102540.247500", "102541.737500", "102543.227500", "102544.717500", "102546.207500", "102547.697500", "102549.187500", "102550.677500", "102552.167500", "102553.657500", "102555.147500", "102556.637500", "102558.127500", "102559.617500", "102601.107500", "102602.597500", "102604.087500", "102605.577500", "102607.067500", "102608.557500", "102610.047500", "102611.537500", "102613.027500", "102614.517500", "102616.007500", "102617.497500", "102618.987500", "102620.477500", "102621.967500", "102623.457500", "102624.947500", "102626.437500", "102627.927500", "102629.417500", "102630.907500", "102632.397500", "102633.887500", "102635.377500", "102636.867500", "102638.357500", "102639.847500", "102641.337500", "102642.827500", "102644.317500", "102645.807500", "102647.297500", "102648.787500", "102650.277500", "102651.767500", "102653.257500", "102654.747500", "102656.237500", "102657.727500", "102659.217500", "102700.707500", "102702.197500", "102703.687500", "102705.177500", "102706.667500", "102708.157500", "102709.647500", "102711.137500", "102712.627500", "102714.117500", "102715.607500", "102717.097500", "102718.587500", "102720.077500", "102721.567500", "102723.057500", "102724.547500", "102726.037500", "102727.527500", "102729.017500", "102730.507500", "102731.997500", "102733.487500", "102734.977500", "102736.467500", "102737.957500", "102739.447500", "102740.937500", "102742.427500", "102743.917500", "102745.407500", "102746.897500", "102748.387500", "102749.877500", "102751.367500", "102752.857500", "102754.347500", "102755.837500", "102757.327500", "102758.817500", "102800.307500", "102801.797500", "102803.287500", "102804.777500", "102806.267500", "102807.757500", "102809.247500", "102810.737500", "102812.227500", "102813.717500", "102815.207500", "102816.697500", "102818.187500", "102819.677500", "102821.167500", "102822.657500", "102824.147500", "102825.637500", "102827.127500", "102828.617500", "102830.107500", "102831.597500", "102833.087500", "102834.577500", "102836.067500", "102837.557500", "102839.047500", "102840.537500", "102842.027500", "102843.517500", "102845.007500", "102846.497500", "102847.987500", "102849.477500", "102850.967500", "102852.457500", "102853.947500", "102855.437500", "102856.927500", "102858.417500", "102859.907500", "102901.397500", "102902.887500", "102904.377500", "102905.867500", "102907.357500", "102908.847500", "102910.337500", "102911.827500", "102913.317500", "102914.807500", "102916.297500", "102917.787500", "102919.277500", "102920.767500", "102922.257500", "102923.747500", "102925.237500", "102926.727500", "102928.217500", "102929.707500", "102931.197500", "102932.687500", "102934.177500", "102935.667500", "102937.157500", "102938.647500", "102940.137500", "102941.627500", "102943.117500", "102944.607500", "102946.097500", "102947.587500", "102949.077500", "102950.567500", "102952.057500", "102953.547500", "102955.037500", "102956.527500", "102958.017500", "102959.507500", "103000.997500", "103002.487500", "103003.977500", "103005.467500", "103006.957500", "103008.447500", "103009.937500", "103011.427500", "103012.917500", "103014.407500", "103015.897500", "103017.387500", "103018.877500", "103020.367500", "103021.857500", "103023.347500", "103024.837500", "103026.327500", "103027.817500", "103029.307500", "103030.797500", "103032.287500", "103033.777500", "103035.267500", "103036.757500", "103038.247500", "103039.737500", "103041.227500", "103042.717500", "103044.207500", "103045.697500", "103047.187500", "103048.677500", "103050.167500", "103051.657500", "103053.147500", "103054.637500", "103056.127500", "103057.617500", "103059.107500", "103100.597500", "103102.087500", "103103.577500", "103105.067500", "103106.557500", "103108.047500", "103109.537500", "103111.027500", "103112.517500", "103114.007500", "103115.497500", "103116.987500", "103118.477500", "103119.967500", "103121.457500", "103122.947500", "103124.437500", "103125.927500", "103127.417500", "103128.907500", "103130.397500", "103131.887500", "103133.377500", "103134.867500", "103136.357500", "103137.847500", "103139.337500", "103140.827500", "103142.317500", "103143.807500", "103145.297500", "103146.787500", "103148.277500", "103149.767500", "103151.257500", "103152.747500", "103154.237500", "103155.727500", "103157.217500", "103158.707500", "103200.197500", "103201.687500", "103203.177500", "103204.667500", "103206.157500", "103207.647500", "103209.137500", "103210.627500", "103212.117500", "103213.607500", "103215.097500", "103216.587500", "103218.077500", "103219.567500", "103221.057500", "103222.547500", "103224.037500", "103225.527500", "103227.017500", "103228.507500", "103229.997500", "103231.487500", "103232.977500", "103234.467500", "103235.957500", "103237.447500", "103238.937500", "103240.427500", "103241.917500", "103243.407500", "103244.897500", "103246.387500", "103247.877500", "103249.367500", "103250.857500", "103252.347500", "103253.837500", "103255.327500", "103256.817500", "103258.307500", "103259.797500", "103301.287500", "103302.777500", "103304.267500", "103305.757500", "103307.247500", "103308.737500", "103310.227500", "103311.717500", "103313.207500", "103314.697500", "103316.187500", "103317.677500", "103319.167500"],
      "ContentTime": ["102305.781000", "102305.785000", "102305.788000", "102305.791000", "102305.793000", "102305.796000", "102305.799000", "102305.802000", "102305.805000", "102305.816000", "102305.819000", "102305.822000", "102305.826000", "102305.829000", "102305.832000", "102305.835000", "102305.838000", "102305.841000", "102305.844000", "102305.847000", "102305.850000", "102305.852000", "102305.855000", "102305.859000", "102305.862000", "102305.864000", "102305.867000", "102305.870000", "102305.873000", "102325.745000", "102325.748000", "102325.751000", "102325.754000", "102325.756000", "102325.759000", "102325.762000", "102325.765000", "102325.768000", "102325.772000", "102325.775000", "102325.779000", "102325.782000", "102325.785000", "102325.788000", "102325.790000", "102325.793000", "102325.796000", "102325.799000", "102325.802000", "102345.745000", "102345.748000", "102345.751000", "102345.753000", "102345.761000", "102345.764000", "102345.767000", "102345.770000", "102345.772000", "102345.775000", "102345.778000", "102345.781000", "102345.784000", "102345.786000", "102345.789000", "102345.792000", "102345.795000", "102345.798000", "102345.801000", "102345.804000", "102345.807000", "102405.745000", "102405.748000", "102405.751000", "102405.754000", "102405.756000", "102405.759000", "102405.762000", "102405.765000", "102405.768000", "102405.770000", "102405.773000", "102405.776000", "102405.779000", "102405.782000", "102405.785000", "102405.787000", "102405.790000", "102405.793000", "102405.796000", "102405.799000", "102445.746000", "102445.749000", "102445.752000", "102445.755000", "102445.757000", "102445.760000", "102445.763000", "102445.766000", "102445.769000", "102445.771000", "102445.774000", "102445.777000", "102445.780000", "102445.783000", "102445.786000", "102445.788000", "102445.791000", "102445.794000", "102445.797000", "102445.800000", "102445.802000", "102445.805000", "102445.808000", "102445.811000", "102445.814000", "102445.817000", "102445.820000", "102445.822000", "102445.825000", "102445.828000", "102445.831000", "102525.746000", "102525.749000", "102525.752000", "102525.755000", "102525.757000", "102525.760000", "102525.763000", "102525.766000", "102525.769000", "102525.772000", "102525.774000", "102525.777000", "102525.780000", "102525.783000", "102525.786000", "102525.788000", "102525.791000", "102525.794000", "102525.797000", "102525.800000", "102525.802000", "102525.805000", "102525.808000", "102525.811000", "102525.814000", "102525.817000", "102525.819000", "102605.745000", "102605.748000", "102605.751000", "102605.753000", "102605.756000", "102605.759000", "102605.762000", "102605.765000", "102605.768000", "102605.770000", "102605.773000", "102605.776000", "102605.779000", "102605.782000", "102605.785000", "102605.787000", "102605.790000", "102605.793000", "102605.796000", "102605.799000", "102605.802000", "102605.818000", "102605.821000", "102605.824000", "102605.827000", "102605.830000", "102605.833000", "102645.746000", "102645.749000", "102645.752000", "102645.755000", "102645.758000", "102645.761000", "102645.763000", "102645.766000", "102645.769000", "102645.772000", "102645.775000", "102645.778000", "102645.780000", "102645.783000", "102645.786000", "102645.789000", "102645.792000", "102645.794000", "102645.797000", "102645.800000", "102645.803000", "102645.806000", "102645.809000", "102645.811000", "102645.814000", "102645.817000", "102645.820000", "102725.746000", "102725.749000", "102725.752000", "102725.755000", "102725.758000", "102725.761000", "102725.765000", "102725.768000", "102725.771000", "102725.774000", "102725.778000", "102725.781000", "102725.785000", "102725.788000", "102725.792000", "102725.795000", "102725.798000", "102725.801000", "102725.805000", "102725.808000", "102725.812000", "102725.815000", "102725.818000", "102725.821000", "102725.824000", "102725.828000", "102725.831000", "102805.745000", "102805.748000", "102805.751000", "102805.753000", "102805.756000", "102805.759000", "102805.762000", "102805.765000", "102805.768000", "102805.770000", "102805.773000", "102805.776000", "102805.779000", "102805.782000", "102805.785000", "102805.788000", "102805.790000", "102805.793000", "102805.796000", "102805.799000", "102805.802000", "102805.805000", "102805.807000", "102805.810000", "102805.813000", "102805.816000", "102805.819000", "102845.746000", "102845.749000", "102845.752000", "102845.755000", "102845.758000", "102845.761000", "102845.764000", "102845.766000", "102845.769000", "102845.772000", "102845.775000", "102845.778000", "102845.781000", "102845.783000", "102845.786000", "102845.789000", "102845.792000", "102845.795000", "102845.798000", "102845.801000", "102845.803000", "102845.806000", "102845.809000", "102845.812000", "102845.815000", "102845.818000", "102925.746000", "102925.749000", "102925.752000", "102925.755000", "102925.758000", "102925.760000", "102925.763000", "102925.766000", "102925.769000", "102925.772000", "102925.775000", "102925.777000", "102925.780000", "102925.783000", "102925.786000", "102925.789000", "102925.791000", "102925.794000", "102925.797000", "102925.800000", "102925.803000", "102925.806000", "102925.808000", "102925.811000", "102925.814000", "102925.817000", "102925.820000", "103005.746000", "103005.749000", "103005.752000", "103005.755000", "103005.757000", "103005.760000", "103005.763000", "103005.766000", "103005.769000", "103005.772000", "103005.775000", "103005.778000", "103005.781000", "103005.784000", "103005.786000", "103005.789000", "103005.792000", "103005.795000", "103005.807000", "103005.810000", "103005.813000", "103005.816000", "103005.818000", "103005.821000", "103005.824000", "103005.827000", "103005.830000", "103045.745000", "103045.748000", "103045.751000", "103045.754000", "103045.756000", "103045.759000", "103045.762000", "103045.765000", "103045.768000", "103045.771000", "103045.773000", "103045.776000", "103045.779000", "103045.782000", "103045.785000", "103045.788000", "103045.791000", "103045.794000", "103045.796000", "103045.799000", "103045.802000", "103045.805000", "103045.808000", "103045.811000", "103045.814000", "103045.816000", "103045.819000", "103125.745000", "103125.748000", "103125.766000", "103125.769000", "103125.772000", "103125.774000", "103125.777000", "103125.780000", "103125.783000", "103125.786000", "103125.789000", "103125.791000", "103125.794000", "103125.797000", "103125.800000", "103125.803000", "103125.806000", "103125.808000", "103125.811000", "103125.814000", "103125.817000", "103125.820000", "103125.822000", "103125.825000", "103125.828000", "103125.831000", "103125.834000", "103205.746000", "103205.749000", "103205.752000", "103205.755000", "103205.758000", "103205.760000", "103205.763000", "103205.766000", "103205.769000", "103205.772000", "103205.774000", "103205.777000", "103205.780000", "103205.783000", "103205.786000", "103205.789000", "103205.791000", "103205.794000", "103205.797000", "103205.800000", "103205.803000", "103205.806000", "103205.808000", "103205.811000", "103205.814000", "103205.817000", "103205.820000", "103245.745000", "103245.748000", "103245.752000", "103245.757000", "103245.761000", "103245.764000", "103245.767000", "103245.770000", "103245.773000", "103245.776000", "103245.779000", "103245.782000", "103245.785000", "103245.788000", "103245.791000", "103245.793000", "103245.796000", "103245.799000", "103245.802000", "103245.805000", "103245.808000", "103245.810000", "103245.813000", "103245.816000", "103245.819000", "103245.822000", "103321.572000", "103321.576000", "103321.578000", "103321.581000", "103321.584000", "103321.587000", "103321.590000", "103321.593000", "103321.596000", "103321.598000", "103321.601000", "103321.604000", "103321.607000", "103321.610000", "103321.613000", "103321.616000", "103321.618000", "103321.621000", "103321.624000", "103321.627000", "103321.630000", "103321.633000", "103321.636000", "103321.638000", "103321.641000"],
