{
  "AcquisitionMatrixPE": 104,
  "AcquisitionNumber": 1,
  "AcquisitionTime": "11:36:6.770000",
  "BandwidthPerPixelPhaseEncode": 17.17,
  "BaseResolution": 104,
  "BodyPartExamined": "BRAIN",
  "CoilString": "HC1-7;NC1_2",
  "ConsistencyInfo": "N4_VE11C_LATEST_20160120",
  "ConversionSoftware": "dcm2niix",
  "ConversionSoftwareVersion": "v1.0.20190902",
  "DerivedVendorReportedEchoSpacing": 0.000560011,
  "DeviceSerialNumber": "167006",
  "DwellTime": 2.1e-06,
  "EchoTime": 0.037,
  "EchoTrainLength": 104,
  "EffectiveEchoSpacing": 0.000560011,
  "FlipAngle": 52,
  "ImageComments": "Unaliased_MB4_PE3_LB",
  "ImageOrientationPatientDICOM": [0.998792, 0.034682, 0.0348184, -0.0200498, 0.934417, -0.355616],
  "ImageType": [
    "ORIGINAL",
    "PRIMARY",
    "M",
    "MB",
    "ND",
    "MOSAIC"
],
  "ImagingFrequency": 123.259,
  "InPlanePhaseEncodingDirectionDICOM": "COL",
  "InstitutionAddress": "Chemin_Queen-Mary_4565_Montreal_District_CA_H3W_1W5",
  "InstitutionName": "IUGM",
  "InstitutionalDepartmentName": "Department",
  "MRAcquisitionType": "2D",
  "MagneticFieldStrength": 3,
  "Manufacturer": "Siemens",
  "ManufacturersModelName": "Prisma_fit",
  "Modality": "MR",
  "MultibandAccelerationFactor": 4,
  "PartialFourier": 1,
  "PatientPosition": "HFS",
  "PercentPhaseFOV": 100,
  "PhaseEncodingDirection": "j",
  "PhaseEncodingSteps": 104,
  "PhaseResolution": 1,
  "PixelBandwidth": 2290,
  "ProcedureStepDescription": "video_friends",
  "ProtocolName": "func_task-friends-s04e19b",
  "PulseSequenceDetails": "%CustomerSeq%_cmrr_mbep2d_bold",
  "ReceiveCoilActiveElements": "HC1-7;NC1,2",
  "ReceiveCoilName": "HeadNeck_64",
  "ReconMatrixPE": 104,
  "RepetitionTime": 1.49,
  "SAR": 0.0412267,
  "ScanOptions": "FS",
  "ScanningSequence": "EP",
  "SequenceName": "epfid2d1_104",
  "SequenceVariant": "SK_SS",
  "SeriesDescription": "func_task-friends-s04e19b",
  "SeriesNumber": 15,
  "ShimSetting": [635, -7212, -8867, 673, 71, -97, 71, -14],
  "SliceThickness": 2,
  "SliceTiming": [0, 0.785, 0.1, 0.8825, 0.1975, 0.98, 0.295, 1.08, 0.3925, 1.1775, 0.49, 1.275, 0.59, 1.3725, 0.6875, 0, 0.785, 0.1, 0.8825, 0.1975, 0.98, 0.295, 1.08, 0.3925, 1.1775, 0.49, 1.275, 0.59, 1.3725, 0.6875, 0, 0.785, 0.1, 0.8825, 0.1975, 0.98, 0.295, 1.08, 0.3925, 1.1775, 0.49, 1.275, 0.59, 1.3725, 0.6875, 0, 0.785, 0.1, 0.8825, 0.1975, 0.98, 0.295, 1.08, 0.3925, 1.1775, 0.49, 1.275, 0.59, 1.3725, 0.6875],
  "SoftwareVersions": "syngo_MR_E11",
  "SpacingBetweenSlices": 2,
  "StationName": "MRC35049",
  "TaskName": "s04e19b",
  "TotalReadoutTime": 0.0576811,
  "TxRefAmp": 251.557,
  "WipMemBlock": "1b0d2b36-bdb4-47f5-9092-e9dc3aa55ea9||Sequence: R016 ve11c/master r/e634e98; Dec 19 2017 11:00:25 by eja",
  "dcmmeta_affine": [
    [-1.9975833892822266, -0.04009952023625374, 0.0897367000579834, 102.76419067382812],
    [-0.06936409324407578, 1.868834137916565, -0.7089763879776001, -65.08354949951172],
    [0.06963670253753662, 0.7112320065498352, 1.867966651916504, -77.137939453125],
    [0.0, 0.0, 0.0, 1.0]
],
  "dcmmeta_reorient_transform": [
    [0.0, -1.0, 0.0, 103.0],
    [1.0, 0.0, 0.0, 0.0],
    [0.0, 0.0, 1.0, 0.0],
    [0.0, 0.0, 0.0, 1.0]
],
  "dcmmeta_shape": [104, 104, 60, 437],
  "dcmmeta_slice_dim": 2,
  "dcmmeta_version": 0.6,
  "global": {
    "const": {
      "AcquisitionMatrix": [104, 0, 0, 104],
      "AngioFlag": "N",
      "BitsAllocated": 16,
      "BitsStored": 16,
      "BodyPartExamined": "BRAIN",
      "Columns": 832,
      "EchoNumbers": 1,
      "EchoTime": 37.0,
      "EchoTrainLength": 104,
      "FlipAngle": 52.0,
      "HighBit": 15,
      "ImageOrientationPatient": [0.99879168904861, 0.03468204734725, 0.03481834974872, -0.0200497610299, 0.93441707176964, -0.3556160050786],
      "ImagePositionPatient": [-811.15806050351, -832.91052707229, 229.6596497533],
      "ImageType": [
        "ORIGINAL",
        "PRIMARY",
        "M",
        "MB",
        "ND",
        "MOSAIC"
],
      "ImagedNucleus": "1H",
      "ImagingFrequency": 123.259024,
      "InPlanePhaseEncodingDirection": "COL",
      "MRAcquisitionType": "2D",
      "MagneticFieldStrength": 3.0,
      "Manufacturer": "SIEMENS",
      "ManufacturerModelName": "Prisma_fit",
      "Modality": "MR",
      "NumberOfAverages": 1.0,
      "NumberOfPhaseEncodingSteps": 104,
      "PercentPhaseFieldOfView": 100.0,
      "PercentSampling": 100.0,
      "PerformedProcedureStepStartTime": "103745.597000",
      "PhotometricInterpretation": "MONOCHROME2",
      "PixelBandwidth": 2290.0,
      "PixelRepresentation": 0,
      "PixelSpacing": [2.0, 2.0],
      "ProtocolName": "func_task-friends-s04e19b",
      "RepetitionTime": 1490.0,
      "Rows": 832,
      "SAR": 0.04122666904296,
      "SamplesPerPixel": 1,
      "ScanOptions": "FS",
      "ScanningSequence": "EP",
      "SequenceName": "epfid2d1_104",
      "SequenceVariant": [
        "SK",
        "SS"
],
      "SeriesDescription": "func_task-friends-s04e19b",
      "SeriesNumber": 15,
      "SeriesTime": "113720.488000",
      "SliceLocation": -44.363343338236,
      "SliceThickness": 2.0,
      "SmallestImagePixelValue": 0,
      "SoftwareVersions": "syngo MR E11",
      "SpacingBetweenSlices": 1.9999999230415,
      "SpecificCharacterSet": "ISO_IR 100",
      "StudyID": "1",
      "StudyTime": "103745.522000",
      "TransmitCoilName": "Body",
      "VariableFlipAngleFlag": "N",
      "WindowCenterWidthExplanation": "Algo1",
      "dBdt": 0.0},
    "slices": {}
  },
  "time": {
    "samples": {
      "AcquisitionNumber": [1, 2, 3, 4, 5, 6, 7, 8, 9, 10, 11, 12, 13, 14, 15, 16, 17, 18, 19, 20, 21, 22, 23, 24, 25, 26, 27, 28, 29, 30, 31, 32, 33, 34, 35, 36, 37, 38, 39, 40, 41, 42, 43, 44, 45, 46, 47, 48, 49, 50, 51, 52, 53, 54, 55, 56, 57, 58, 59, 60, 61, 62, 63, 64, 65, 66, 67, 68, 69, 70, 71, 72, 73, 74, 75, 76, 77, 78, 79, 80, 81, 82, 83, 84, 85, 86, 87, 88, 89, 90, 91, 92, 93, 94, 95, 96, 97, 98, 99, 100, 101, 102, 103, 104, 105, 106, 107, 108, 109, 110, 111, 112, 113, 114, 115, 116, 117, 118, 119, 120, 121, 122, 123, 124, 125, 126, 127, 128, 129, 130, 131, 132, 133, 134, 135, 136, 137, 138, 139, 140, 141, 142, 143, 144, 145, 146, 147, 148, 149, 150, 151, 152, 153, 154, 155, 156, 157, 158, 159, 160, 161, 162, 163, 164, 165, 166, 167, 168, 169, 170, 171, 172, 173, 174, 175, 176, 177, 178, 179, 180, 181, 182, 183, 184, 185, 186, 187, 188, 189, 190, 191, 192, 193, 194, 195, 196, 197, 198, 199, 200, 201, 202, 203, 204, 205, 206, 207, 208, 209, 210, 211, 212, 213, 214, 215, 216, 217, 218, 219, 220, 221, 222, 223, 224, 225, 226, 227, 228, 229, 230, 231, 232, 233, 234, 235, 236, 237, 238, 239, 240, 241, 242, 243, 244, 245, 246, 247, 248, 249, 250, 251, 252, 253, 254, 255, 256, 257, 258, 259, 260, 261, 262, 263, 264, 265, 266, 267, 268, 269, 270, 271, 272, 273, 274, 275, 276, 277, 278, 279, 280, 281, 282, 283, 284, 285, 286, 287, 288, 289, 290, 291, 292, 293, 294, 295, 296, 297, 298, 299, 300, 301, 302, 303, 304, 305, 306, 307, 308, 309, 310, 311, 312, 313, 314, 315, 316, 317, 318, 319, 320, 321, 322, 323, 324, 325, 326, 327, 328, 329, 330, 331, 332, 333, 334, 335, 336, 337, 338, 339, 340, 341, 342, 343, 344, 345, 346, 347, 348, 349, 350, 351, 352, 353, 354, 355, 356, 357, 358, 359, 360, 361, 362, 363, 364, 365, 366, 367, 368, 369, 370, 371, 372, 373, 374, 375, 376, 377, 378, 379, 380, 381, 382, 383, 384, 385, 386, 387, 388, 389, 390, 391, 392, 393, 394, 395, 396, 397, 398, 399, 400, 401, 402, 403, 404, 405, 406, 407, 408, 409, 410, 411, 412, 413, 414, 415, 416, 417, 418, 419, 420, 421, 422, 423, 424, 425, 426, 427, 428, 429, 430, 431, 432, 433, 434, 435, 436, 437],
      "AcquisitionTime": ["113606.770000", "113608.260000", "113609.750000", "113611.240000", "113612.730000", "113614.220000", "113615.710000", "113617.200000", "113618.690000", "113620.180000", "113621.670000", "113623.160000", "113624.650000", "113626.140000", "113627.630000", "113629.120000", "113630.610000", "113632.100000", "113633.590000", "113635.080000", "113636.570000", "113638.060000", "113639.550000", "113641.040000", "113642.530000", "113644.020000", "113645.510000", "113647.000000", "113648.490000", "113649.980000", "113651.470000", "113652.960000", "113654.450000", "113655.940000", "113657.430000", "113658.920000", "113700.410000", "113701.900000", "113703.390000", "113704.880000", "113706.370000", "113707.860000", "113709.350000", "113710.840000", "113712.330000", "113713.820000", "113715.310000", "113716.800000", "113718.290000", "113719.780000", "113721.270000", "113722.760000", "113724.250000", "113725.740000", "113727.230000", "113728.720000", "113730.210000", "113731.700000", "113733.190000", "113734.680000", "113736.170000", "113737.660000", "113739.150000", "113740.640000", "113742.130000", "113743.620000", "113745.110000", "113746.600000", "113748.090000", "113749.580000", "113751.070000", "113752.560000", "113754.050000", "113755.540000", "113757.030000", "113758.520000", "113800.010000", "113801.500000", "113802.990000", "113804.480000", "113805.970000", "113807.460000", "113808.950000", "113810.440000", "113811.930000", "113813.420000", "113814.910000", "113816.400000", "113817.890000", "113819.380000", "113820.870000", "113822.360000", "113823.850000", "113825.340000", "113826.830000", "113828.320000", "113829.810000", "113831.300000", "113832.790000", "113834.280000", "113835.770000", "113837.260000", "113838.750000", "113840.240000", "113841.730000", "113843.220000", "113844.710000", "113846.200000", "113847.690000", "113849.180000", "113850.670000", "113852.160000", "113853.650000", "113855.140000", "113856.630000", "113858.120000", "113859.610000", "113901.100000", "113902.590000", "113904.080000", "113905.570000", "113907.060000", "113908.550000", "113910.040000", "113911.530000", "113913.020000", "113914.510000", "113916.000000", "113917.490000", "113918.980000", "113920.470000", "113921.960000", "113923.450000", "113924.940000", "113926.430000", "113927.920000", "113929.410000", "113930.900000", "113932.390000", "113933.880000", "113935.370000", "113936.860000", "113938.350000", "113939.840000", "113941.330000", "113942.820000", "113944.310000", "113945.800000", "113947.290000", "113948.780000", "113950.270000", "113951.760000", "113953.250000", "113954.740000", "113956.230000", "113957.720000", "113959.210000", "114000.700000", "114002.190000", "114003.680000", "114005.170000", "114006.660000", "114008.150000", "114009.640000", "114011.130000", "114012.620000", "114014.110000", "114015.600000", "114017.090000", "114018.580000", "114020.070000", "114021.560000", "114023.050000", "114024.540000", "114026.030000", "114027.520000", "114029.010000", "114030.500000", "114031.990000", "114033.480000", "114034.970000", "114036.460000", "114037.950000", "114039.440000", "114040.930000", "114042.420000", "114043.910000", "114045.400000", "114046.890000", "114048.380000", "114049.870000", "114051.360000", "114052.850000", "114054.340000", "114055.830000", "114057.320000", "114058.810000", "114100.300000", "114101.790000", "114103.280000", "114104.770000", "114106.260000", "114107.750000", "114109.240000", "114110.730000", "114112.220000", "114113.710000", "114115.200000", "114116.690000", "114118.180000", "114119.670000", "114121.160000", "114122.650000", "114124.140000", "114125.630000", "114127.120000", "114128.610000", "114130.100000", "114131.590000", "114133.080000", "114134.570000", "114136.060000", "114137.550000", "114139.040000", "114140.530000", "114142.020000", "114143.510000", "114145.000000", "114146.490000", "114147.980000", "114149.470000", "114150.960000", "114152.450000", "114153.940000", "114155.430000", "114156.920000", "114158.410000", "114159.900000", "114201.390000", "114202.880000", "114204.370000", "114205.860000", "114207.350000", "114208.840000", "114210.330000", "114211.820000", "114213.310000", "114214.800000", "114216.290000", "114217.780000", "114219.270000", "114220.760000", "114222.250000", "114223.740000", "114225.230000", "114226.720000", "114228.210000", "114229.700000", "114231.190000", "114232.680000", "114234.170000", "114235.660000", "114237.150000", "114238.640000", "114240.130000", "114241.620000", "114243.110000", "114244.600000", "114246.090000", "114247.580000", "114249.070000", "114250.560000", "114252.050000", "114253.540000", "114255.030000", "114256.520000", "114258.010000", "114259.500000", "114300.990000", "114302.480000", "114303.970000", "114305.460000", "114306.950000", "114308.440000", "114309.930000", "114311.420000", "114312.910000", "114314.400000", "114315.890000", "114317.380000", "114318.870000", "114320.360000", "114321.850000", "114323.340000", "114324.830000", "114326.320000", "114327.810000", "114329.300000", "114330.790000", "114332.280000", "114333.770000", "114335.260000", "114336.750000", "114338.240000", "114339.730000", "114341.220000", "114342.710000", "114344.200000", "114345.690000", "114347.180000", "114348.670000", "114350.160000", "114351.650000", "114353.140000", "114354.630000", "114356.120000", "114357.610000", "114359.100000", "114400.590000", "114402.080000", "114403.570000", "114405.060000", "114406.550000", "114408.040000", "114409.530000", "114411.020000", "114412.510000", "114414.000000", "114415.490000", "114416.980000", "114418.470000", "114419.960000", "114421.450000", "114422.940000", "114424.430000", "114425.920000", "114427.410000", "114428.900000", "114430.390000", "114431.880000", "114433.370000", "114434.860000", "114436.350000", "114437.840000", "114439.330000", "114440.820000", "114442.310000", "114443.800000", "114445.290000", "114446.780000", "114448.270000", "114449.760000", "114451.250000", "114452.740000", "114454.230000", "114455.720000", "114457.210000", "114458.700000", "114500.190000", "114501.680000", "114503.170000", "114504.660000", "114506.150000", "114507.640000", "114509.130000", "114510.620000", "114512.110000", "114513.600000", "114515.090000", "114516.580000", "114518.070000", "114519.560000", "114521.050000", "114522.540000", "114524.030000", "114525.520000", "114527.010000", "114528.500000", "114529.990000", "114531.480000", "114532.970000", "114534.460000", "114535.950000", "114537.440000", "114538.930000", "114540.420000", "114541.910000", "114543.400000", "114544.890000", "114546.380000", "114547.870000", "114549.360000", "114550.850000", "114552.340000", "114553.830000", "114555.320000", "114556.810000", "114558.300000", "114559.790000", "114601.280000", "114602.770000", "114604.260000", "114605.750000", "114607.240000", "114608.730000", "114610.220000", "114611.710000", "114613.200000", "114614.690000", "114616.180000", "114617.670000", "114619.160000", "114620.650000", "114622.140000", "114623.630000", "114625.120000", "114626.610000", "114628.100000", "114629.590000", "114631.080000", "114632.570000", "114634.060000", "114635.550000", "114637.040000", "114638.530000", "114640.020000", "114641.510000", "114643.000000", "114644.490000", "114645.980000", "114647.470000", "114648.960000", "114650.450000", "114651.940000", "114653.430000", "114654.920000", "114656.410000"],
      "ContentTime": ["113720.491000", "113720.494000", "113720.497000", "113720.499000", "113720.503000", "113720.505000", "113720.508000", "113720.511000", "113720.514000", "113720.526000", "113720.529000", "113720.532000", "113720.535000", "113720.538000", "113720.540000", "113720.561000", "113720.577000", "113720.580000", "113720.583000", "113720.585000", "113740.452000", "113740.458000", "113740.461000", "113740.464000", "113740.467000", "113740.469000", "113740.472000", "113740.475000", "113740.478000", "113740.481000", "113740.483000", "113740.486000", "113740.489000", "113740.492000", "113740.495000", "113740.497000", "113740.500000", "113740.503000", "113740.506000", "113740.509000", "113740.511000", "113800.451000", "113800.454000", "113800.457000", "113800.459000", "113800.462000", "113800.465000", "113800.468000", "113800.471000", "113800.474000", "113800.477000", "113800.480000", "113800.483000", "113800.486000", "113800.488000", "113800.491000", "113800.494000", "113800.497000", "113800.499000", "113800.502000", "113800.505000", "113820.452000", "113820.455000", "113820.458000", "113820.460000", "113820.463000", "113820.466000", "113820.469000", "113820.472000", "113820.475000", "113820.477000", "113820.480000", "113820.483000", "113820.486000", "113820.489000", "113820.491000", "113820.494000", "113820.497000", "113820.500000", "113820.503000", "113820.505000", "113840.452000", "113840.455000", "113840.458000", "113840.460000", "113840.463000", "113840.466000", "113840.469000", "113840.472000", "113840.475000", "113840.477000", "113840.480000", "113840.483000", "113840.486000", "113840.489000", "113840.491000", "113840.494000", "113840.497000", "113840.500000", "113840.503000", "113840.505000", "113920.452000", "113920.455000", "113920.458000", "113920.461000", "113920.463000", "113920.466000", "113920.469000", "113920.472000", "113920.475000", "113920.477000", "113920.480000", "113920.483000", "113920.486000", "113920.489000", "113920.492000", "113920.495000", "113920.498000", "113920.500000", "113920.503000", "113920.506000", "113920.509000", "113920.512000", "113920.514000", "113920.517000", "113920.520000", "113920.523000", "113920.526000", "113920.528000", "114000.451000", "114000.454000", "114000.457000", "114000.459000", "114000.462000", "114000.465000", "114000.468000", "114000.471000", "114000.474000", "114000.477000", "114000.479000", "114000.482000", "114000.485000", "114000.488000", "114000.491000", "114000.493000", "114000.496000", "114000.499000", "114000.502000", "114000.505000", "114000.508000", "114000.510000", "114000.513000", "114000.516000", "114000.519000", "114000.522000", "114000.524000", "114040.452000", "114040.455000", "114040.458000", "114040.461000", "114040.464000", "114040.470000", "114040.473000", "114040.476000", "114040.479000", "114040.482000", "114040.484000", "114040.487000", "114040.490000", "114040.493000", "114040.496000", "114040.499000", "114040.501000", "114040.504000", "114040.507000", "114040.510000", "114040.513000", "114040.516000", "114040.518000", "114040.521000", "114040.524000", "114040.527000", "114040.530000", "114120.452000", "114120.455000", "114120.458000", "114120.461000", "114120.464000", "114120.466000", "114120.469000", "114120.472000", "114120.475000", "114120.478000", "114120.481000", "114120.483000", "114120.486000", "114120.489000", "114120.492000", "114120.495000", "114120.497000", "114120.519000", "114120.522000", "114120.525000", "114120.533000", "114120.536000", "114120.539000", "114120.542000", "114120.545000", "114120.547000", "114120.550000", "114200.452000", "114200.455000", "114200.458000", "114200.461000", "114200.464000", "114200.467000", "114200.470000", "114200.472000", "114200.475000", "114200.479000", "114200.482000", "114200.485000", "114200.488000", "114200.491000", "114200.494000", "114200.497000", "114200.499000", "114200.502000", "114200.505000", "114200.508000", "114200.511000", "114200.514000", "114200.516000", "114200.519000", "114200.522000", "114200.525000", "114240.451000", "114240.454000", "114240.457000", "114240.460000", "114240.462000", "114240.465000", "114240.468000", "114240.471000", "114240.474000", "114240.477000", "114240.479000", "114240.482000", "114240.485000", "114240.488000", "114240.491000", "114240.494000", "114240.497000", "114240.499000", "114240.502000", "114240.505000", "114240.508000", "114240.511000", "114240.514000", "114240.516000", "114240.519000", "114240.522000", "114240.525000", "114320.452000", "114320.455000", "114320.458000", "114320.461000", "114320.464000", "114320.467000", "114320.469000", "114320.472000", "114320.475000", "114320.478000", "114320.481000", "114320.483000", "114320.486000", "114320.489000", "114320.492000", "114320.495000", "114320.497000", "114320.500000", "114320.503000", "114320.506000", "114320.509000", "114320.512000", "114320.514000", "114320.517000", "114320.520000", "114320.523000", "114320.526000", "114400.452000", "114400.455000", "114400.458000", "114400.461000", "114400.463000", "114400.466000", "114400.469000", "114400.472000", "114400.475000", "114400.478000", "114400.480000", "114400.483000", "114400.486000", "114400.489000", "114400.492000", "114400.495000", "114400.497000", "114400.500000", "114400.503000", "114400.506000", "114400.509000", "114400.512000", "114400.515000", "114400.517000", "114400.520000", "114400.523000", "114400.526000", "114440.451000", "114440.454000", "114440.457000", "114440.460000", "114440.462000", "114440.465000", "114440.468000", "114440.471000", "114440.474000", "114440.477000", "114440.479000", "114440.482000", "114440.485000", "114440.488000", "114440.491000", "114440.494000", "114440.496000", "114440.499000", "114440.502000", "114440.505000", "114440.508000", "114440.511000", "114440.513000", "114440.516000", "114440.519000", "114440.522000", "114440.525000", "114520.452000", "114520.455000", "114520.458000", "114520.461000", "114520.464000", "114520.466000", "114520.469000", "114520.472000", "114520.475000", "114520.478000", "114520.481000", "114520.483000", "114520.486000", "114520.489000", "114520.492000", "114520.495000", "114520.498000", "114520.501000", "114520.503000", "114520.506000", "114520.509000", "114520.512000", "114520.515000", "114520.518000", "114520.520000", "114520.523000", "114520.526000", "114600.452000", "114600.455000", "114600.458000", "114600.461000", "114600.463000", "114600.466000", "114600.469000", "114600.472000", "114600.475000", "114600.478000", "114600.480000", "114600.483000", "114600.486000", "114600.489000", "114600.492000", "114600.495000", "114600.498000", "114600.501000", "114600.504000", "114600.507000", "114600.510000", "114600.512000", "114600.515000", "114600.518000", "114600.521000", "114600.524000", "114600.526000", "114640.452000", "114640.455000", "114640.458000", "114640.461000", "114640.464000", "114640.466000", "114640.470000", "114640.473000", "114640.476000", "114640.479000", "114640.482000", "114640.485000", "114640.488000", "114640.490000", "114640.493000", "114640.496000", "114640.499000", "114640.502000", "114640.505000", "114640.508000", "114640.510000", "114640.513000", "114640.516000", "114640.519000", "114640.522000", "114640.525000", "114658.533000", "114658.537000", "114658.539000", "114658.543000", "114658.546000", "114658.549000", "114658.552000", "114658.554000", "114658.557000", "114658.560000", "114658.563000", "114658.566000", "114658.569000"],
      "InstanceCreationTime": ["113720.491000", "113720.494000", "113720.497000", "113720.499000", "113720.503000", "113720.505000", "113720.508000", "113720.511000", "113720.514000", "113720.526000", "113720.529000", "113720.532000", "113720.535000", "113720.538000", "113720.540000", "113720.561000", "113720.577000", "113720.580000", "113720.583000", "113720.585000", "113740.452000", "113740.458000", "113740.461000", "113740.464000", "113740.467000", "113740.469000", "113740.472000", "113740.475000", "113740.478000", "113740.481000", "113740.483000", "113740.486000", "113740.489000", "113740.492000", "113740.495000", "113740.497000", "113740.500000", "113740.503000", "113740.506000", "113740.509000", "113740.511000", "113800.451000", "113800.454000", "113800.457000", "113800.459000", "113800.462000", "113800.465000", "113800.468000", "113800.471000", "113800.474000", "113800.477000", "113800.480000", "113800.483000", "113800.486000", "113800.488000", "113800.491000", "113800.494000", "113800.497000", "113800.499000", "113800.502000", "113800.505000", "113820.452000", "113820.455000", "113820.458000", "113820.460000", "113820.463000", "113820.466000", "113820.469000", "113820.472000", "113820.475000", "113820.477000", "113820.480000", "113820.483000", "113820.486000", "113820.489000", "113820.491000", "113820.494000", "113820.497000", "113820.500000", "113820.503000", "113820.505000", "113840.452000", "113840.455000", "113840.458000", "113840.460000", "113840.463000", "113840.466000", "113840.469000", "113840.472000", "113840.475000", "113840.477000", "113840.480000", "113840.483000", "113840.486000", "113840.489000", "113840.491000", "113840.494000", "113840.497000", "113840.500000", "113840.503000", "113840.505000", "113920.452000", "113920.455000", "113920.458000", "113920.461000", "113920.463000", "113920.466000", "113920.469000", "113920.472000", "113920.475000", "113920.477000", "113920.480000", "113920.483000", "113920.486000", "113920.489000", "113920.492000", "113920.495000", "113920.498000", "113920.500000", "113920.503000", "113920.506000", "113920.509000", "113920.512000", "113920.514000", "113920.517000", "113920.520000", "113920.523000", "113920.526000", "113920.528000", "114000.451000", "114000.454000", "114000.457000", "114000.459000", "114000.462000", "114000.465000", "114000.468000", "114000.471000", "114000.474000", "114000.477000", "114000.479000", "114000.482000", "114000.485000", "114000.488000", "114000.491000", "114000.493000", "114000.496000", "114000.499000", "114000.502000", "114000.505000", "114000.508000", "114000.510000", "114000.513000", "114000.516000", "114000.519000", "114000.522000", "114000.524000", "114040.452000", "114040.455000", "114040.458000", "114040.461000", "114040.464000", "114040.470000", "114040.473000", "114040.476000", "114040.479000", "114040.482000", "114040.484000", "114040.487000", "114040.490000", "114040.493000", "114040.496000", "114040.499000", "114040.501000", "114040.504000", "114040.507000", "114040.510000", "114040.513000", "114040.516000", "114040.518000", "114040.521000", "114040.524000", "114040.527000", "114040.530000", "114120.452000", "114120.455000", "114120.458000", "114120.461000", "114120.464000", "114120.466000", "114120.469000", "114120.472000", "114120.475000", "114120.478000", "114120.481000", "114120.483000", "114120.486000", "114120.489000", "114120.492000", "114120.495000", "114120.497000", "114120.519000", "114120.522000", "114120.525000", "114120.533000", "114120.536000", "114120.539000", "114120.542000", "114120.545000", "114120.547000", "114120.550000", "114200.452000", "114200.455000", "114200.458000", "114200.461000", "114200.464000", "114200.467000", "114200.470000", "114200.472000", "114200.475000", "114200.479000", "114200.482000", "114200.485000", "114200.488000", "114200.491000", "114200.494000", "114200.497000", "114200.499000", "114200.502000", "114200.505000", "114200.508000", "114200.511000", "114200.514000", "114200.516000", "114200.519000", "114200.522000", "114200.525000", "114240.451000", "114240.454000", "114240.457000", "114240.460000", "114240.462000", "114240.465000", "114240.468000", "114240.471000", "114240.474000", "114240.477000", "114240.479000", "114240.482000", "114240.485000", "114240.488000", "114240.491000", "114240.494000", "114240.497000", "114240.499000", "114240.502000", "114240.505000", "114240.508000", "114240.511000", "114240.514000", "114240.516000", "114240.519000", "114240.522000", "114240.525000", "114320.452000", "114320.455000", "114320.458000", "114320.461000", "114320.464000", "114320.467000", "114320.469000", "114320.472000", "114320.475000", "114320.478000", "114320.481000", "114320.483000", "114320.486000", "114320.489000", "114320.492000", "114320.495000", "114320.497000", "114320.500000", "114320.503000", "114320.506000", "114320.509000", "114320.512000", "114320.514000", "114320.517000", "114320.520000", "114320.523000", "114320.526000", "114400.452000", "114400.455000", "114400.458000", "114400.461000", "114400.463000", "114400.466000", "114400.469000", "114400.472000", "114400.475000", "114400.478000", "114400.480000", "114400.483000", "114400.486000", "114400.489000", "114400.492000", "114400.495000", "114400.497000", "114400.500000", "114400.503000", "114400.506000", "114400.509000", "114400.512000", "114400.515000", "114400.517000", "114400.520000", "114400.523000", "114400.526000", "114440.451000", "114440.454000", "114440.457000", "114440.460000", "114440.462000", "114440.465000", "114440.468000", "114440.471000", "114440.474000", "114440.477000", "114440.479000", "114440.482000", "114440.485000", "114440.488000", "114440.491000", "114440.494000", "114440.496000", "114440.499000", "114440.502000", "114440.505000", "114440.508000", "114440.511000", "114440.513000", "114440.516000", "114440.519000", "114440.522000", "114440.525000", "114520.452000", "114520.455000", "114520.458000", "114520.461000", "114520.464000", "114520.466000", "114520.469000", "114520.472000", "114520.475000", "114520.478000", "114520.481000", "114520.483000", "114520.486000", "114520.489000", "114520.492000", "114520.495000", "114520.498000", "114520.501000", "114520.503000", "114520.506000", "114520.509000", "114520.512000", "114520.515000", "114520.518000", "114520.520000", "114520.523000", "114520.526000", "114600.452000", "114600.455000", "114600.458000", "114600.461000", "114600.463000", "114600.466000", "114600.469000", "114600.472000", "114600.475000", "114600.478000", "114600.480000", "114600.483000", "114600.486000", "114600.489000", "114600.492000", "114600.495000", "114600.498000", "114600.501000", "114600.504000", "114600.507000", "114600.510000", "114600.512000", "114600.515000", "114600.518000", "114600.521000", "114600.524000", "114600.526000", "114640.452000", "114640.455000", "114640.458000", "114640.461000", "114640.464000", "114640.466000", "114640.470000", "114640.473000", "114640.476000", "114640.479000", "114640.482000", "114640.485000", "114640.488000", "114640.490000", "114640.493000", "114640.496000", "114640.499000", "114640.502000", "114640.505000", "114640.508000", "114640.510000", "114640.513000", "114640.516000", "114640.519000", "114640.522000", "114640.525000", "114658.533000", "114658.537000", "114658.539000", "114658.543000", "114658.546000", "114658.549000", "114658.552000", "114658.554000", "114658.557000", "114658.560000", "114658.563000", "114658.566000", "114658.569000"],
