{
  "AcquisitionMatrixPE": 104,
  "AcquisitionNumber": 1,
  "AcquisitionTime": "09:29:49.397500",
  "BandwidthPerPixelPhaseEncode": 17.17,
  "BaseResolution": 104,
  "BodyPartExamined": "BRAIN",
  "CoilString": "HC1-7;NC1_2",
  "ConsistencyInfo": "N4_VE11C_LATEST_20160120",
  "ConversionSoftware": "dcm2niix",
  "ConversionSoftwareVersion": "v1.0.20190720  (JP2:OpenJPEG) GCC7.3.0",
  "DerivedVendorReportedEchoSpacing": 0.000560011,
  "DeviceSerialNumber": "167006",
  "DwellTime": 2.1e-06,
  "EchoTime": 0.037,
  "EchoTrainLength": 104,
  "EffectiveEchoSpacing": 0.000560011,
  "FlipAngle": 52,
  "ImageComments": "Unaliased_MB4_PE3_LB",
  "ImageOrientationPatientDICOM": [0.999758, -0.0187198, 0.011537, 0.0219894, 0.851564, -0.523789],
  "ImageType": [
    "ORIGINAL",
    "PRIMARY",
    "M",
    "MB",
    "ND",
    "MOSAIC"
],
  "ImagingFrequency": 123.259,
  "InPlanePhaseEncodingDirectionDICOM": "COL",
  "InstitutionAddress": "Chemin_Queen-Mary_4565_Montreal_District_CA_H3W_1W5",
  "InstitutionName": "IUGM",
  "InstitutionalDepartmentName": "Department",
  "MRAcquisitionType": "2D",
  "MagneticFieldStrength": 3,
  "Manufacturer": "Siemens",
  "ManufacturersModelName": "Prisma_fit",
  "Modality": "MR",
  "MultibandAccelerationFactor": 4,
  "PartialFourier": 1,
  "PatientPosition": "HFS",
  "PercentPhaseFOV": 100,
  "PhaseEncodingDirection": "j",
  "PhaseEncodingSteps": 104,
  "PhaseResolution": 1,
  "PixelBandwidth": 2290,
  "ProcedureStepDescription": "video_friends",
  "ProtocolName": "func_task-s01e12a",
  "PulseSequenceDetails": "%CustomerSeq%_cmrr_mbep2d_bold",
  "ReceiveCoilActiveElements": "HC1-7;NC1,2",
  "ReceiveCoilName": "HeadNeck_64",
  "ReconMatrixPE": 104,
  "RepetitionTime": 1.49,
  "SAR": 0.036265,
  "ScanOptions": "FS",
  "ScanningSequence": "EP",
  "SequenceName": "epfid2d1_104",
  "SequenceVariant": "SK_SS",
  "SeriesDescription": "func_task-s01e12a",
  "SeriesNumber": 8,
  "ShimSetting": [622, -7197, -8856, 377, -40, -179, 25, -13],
  "SliceThickness": 2,
  "SliceTiming": [0, 0.7825, 0.0975, 0.8825, 0.195, 0.98, 0.2925, 1.0775, 0.3925, 1.175, 0.49, 1.2725, 0.5875, 1.3725, 0.685, 0, 0.7825, 0.0975, 0.8825, 0.195, 0.98, 0.2925, 1.0775, 0.3925, 1.175, 0.49, 1.2725, 0.5875, 1.3725, 0.685, 0, 0.7825, 0.0975, 0.8825, 0.195, 0.98, 0.2925, 1.0775, 0.3925, 1.175, 0.49, 1.2725, 0.5875, 1.3725, 0.685, 0, 0.7825, 0.0975, 0.8825, 0.195, 0.98, 0.2925, 1.0775, 0.3925, 1.175, 0.49, 1.2725, 0.5875, 1.3725, 0.685],
  "SoftwareVersions": "syngo_MR_E11",
  "SpacingBetweenSlices": 2,
  "StationName": "MRC35049",
  "TaskName": "friends",
  "TotalReadoutTime": 0.0576811,
  "TxRefAmp": 249.91,
  "WipMemBlock": "30c50e13-e97c-4e51-b231-8a580815042a||Sequence: R016 ve11c/master r/e634e98; Dec 19 2017 11:00:25 by eja",
  "dcmmeta_affine": [
    [-1.9995163679122925, 0.0439787432551384, 3.852000372717157e-05, 101.21416473388672],
    [0.03743959963321686, 1.703128695487976, -1.0478315353393555, -59.80520248413086],
    [0.023073958232998848, 1.0475775003433228, 1.7035402059555054, -90.12505340576172],
    [0.0, 0.0, 0.0, 1.0]
],
  "dcmmeta_reorient_transform": [
    [0.0, -1.0, 0.0, 103.0],
    [1.0, 0.0, 0.0, 0.0],
    [0.0, 0.0, 1.0, 0.0],
    [0.0, 0.0, 0.0, 1.0]
],
  "dcmmeta_shape": [104, 104, 60, 472],
  "dcmmeta_slice_dim": 2,
  "dcmmeta_version": 0.6,
  "global": {
    "const": {
      "AcquisitionMatrix": [104, 0, 0, 104],
      "AngioFlag": "N",
      "BitsAllocated": 16,
      "BitsStored": 16,
      "BodyPartExamined": "BRAIN",
      "Columns": 832,
      "EchoNumbers": 1,
      "EchoTime": 37.0,
      "EchoTrainLength": 104,
      "FlipAngle": 52.0,
      "HighBit": 15,
      "ImageOrientationPatient": [0.99975820434963, -0.0187198007174, 0.0115369795316, 0.02198937162959, 0.85156435051306, -0.5237887212136],
      "ImagePositionPatient": [-849.57621036134, -721.92788613311, 390.69468885606],
      "ImageType": [
        "ORIGINAL",
        "PRIMARY",
        "M",
        "MB",
        "ND",
        "MOSAIC"
],
      "ImagedNucleus": "1H",
      "ImagingFrequency": 123.259104,
      "InPlanePhaseEncodingDirection": "COL",
      "MRAcquisitionType": "2D",
      "MagneticFieldStrength": 3.0,
      "Manufacturer": "SIEMENS",
      "ManufacturerModelName": "Prisma_fit",
      "Modality": "MR",
      "NumberOfAverages": 1.0,
      "NumberOfPhaseEncodingSteps": 104,
      "PercentPhaseFieldOfView": 100.0,
      "PercentSampling": 100.0,
      "PerformedProcedureStepStartTime": "082810.608000",
      "PhotometricInterpretation": "MONOCHROME2",
      "PixelBandwidth": 2290.0,
      "PixelRepresentation": 0,
      "PixelSpacing": [2.0, 2.0],
      "ProtocolName": "func_task-s01e12a",
      "RepetitionTime": 1490.0,
      "Rows": 832,
      "SAR": 0.03626496124869,
      "SamplesPerPixel": 1,
      "ScanOptions": "FS",
      "ScanningSequence": "EP",
      "SequenceName": "epfid2d1_104",
      "SequenceVariant": [
        "SK",
        "SS"
],
      "SeriesDescription": "func_task-s01e12a",
      "SeriesNumber": 8,
      "SeriesTime": "093119.267000",
      "SliceLocation": -45.430988552987,
      "SliceThickness": 2.0,
      "SmallestImagePixelValue": 0,
      "SoftwareVersions": "syngo MR E11",
      "SpacingBetweenSlices": 1.999999988817,
      "SpecificCharacterSet": "ISO_IR 100",
      "StudyID": "1",
      "StudyTime": "082810.501000",
      "TransmitCoilName": "Body",
      "VariableFlipAngleFlag": "N",
      "WindowCenterWidthExplanation": "Algo1",
      "dBdt": 0.0},
    "slices": {}
  },
  "time": {
    "samples": {
      "AcquisitionNumber": [1, 2, 3, 4, 5, 6, 7, 8, 9, 10, 11, 12, 13, 14, 15, 16, 17, 18, 19, 20, 21, 22, 23, 24, 25, 26, 27, 28, 29, 30, 31, 32, 33, 34, 35, 36, 37, 38, 39, 40, 41, 42, 43, 44, 45, 46, 47, 48, 49, 50, 51, 52, 53, 54, 55, 56, 57, 58, 59, 60, 61, 62, 63, 64, 65, 66, 67, 68, 69, 70, 71, 72, 73, 74, 75, 76, 77, 78, 79, 80, 81, 82, 83, 84, 85, 86, 87, 88, 89, 90, 91, 92, 93, 94, 95, 96, 97, 98, 99, 100, 101, 102, 103, 104, 105, 106, 107, 108, 109, 110, 111, 112, 113, 114, 115, 116, 117, 118, 119, 120, 121, 122, 123, 124, 125, 126, 127, 128, 129, 130, 131, 132, 133, 134, 135, 136, 137, 138, 139, 140, 141, 142, 143, 144, 145, 146, 147, 148, 149, 150, 151, 152, 153, 154, 155, 156, 157, 158, 159, 160, 161, 162, 163, 164, 165, 166, 167, 168, 169, 170, 171, 172, 173, 174, 175, 176, 177, 178, 179, 180, 181, 182, 183, 184, 185, 186, 187, 188, 189, 190, 191, 192, 193, 194, 195, 196, 197, 198, 199, 200, 201, 202, 203, 204, 205, 206, 207, 208, 209, 210, 211, 212, 213, 214, 215, 216, 217, 218, 219, 220, 221, 222, 223, 224, 225, 226, 227, 228, 229, 230, 231, 232, 233, 234, 235, 236, 237, 238, 239, 240, 241, 242, 243, 244, 245, 246, 247, 248, 249, 250, 251, 252, 253, 254, 255, 256, 257, 258, 259, 260, 261, 262, 263, 264, 265, 266, 267, 268, 269, 270, 271, 272, 273, 274, 275, 276, 277, 278, 279, 280, 281, 282, 283, 284, 285, 286, 287, 288, 289, 290, 291, 292, 293, 294, 295, 296, 297, 298, 299, 300, 301, 302, 303, 304, 305, 306, 307, 308, 309, 310, 311, 312, 313, 314, 315, 316, 317, 318, 319, 320, 321, 322, 323, 324, 325, 326, 327, 328, 329, 330, 331, 332, 333, 334, 335, 336, 337, 338, 339, 340, 341, 342, 343, 344, 345, 346, 347, 348, 349, 350, 351, 352, 353, 354, 355, 356, 357, 358, 359, 360, 361, 362, 363, 364, 365, 366, 367, 368, 369, 370, 371, 372, 373, 374, 375, 376, 377, 378, 379, 380, 381, 382, 383, 384, 385, 386, 387, 388, 389, 390, 391, 392, 393, 394, 395, 396, 397, 398, 399, 400, 401, 402, 403, 404, 405, 406, 407, 408, 409, 410, 411, 412, 413, 414, 415, 416, 417, 418, 419, 420, 421, 422, 423, 424, 425, 426, 427, 428, 429, 430, 431, 432, 433, 434, 435, 436, 437, 438, 439, 440, 441, 442, 443, 444, 445, 446, 447, 448, 449, 450, 451, 452, 453, 454, 455, 456, 457, 458, 459, 460, 461, 462, 463, 464, 465, 466, 467, 468, 469, 470, 471, 472],
      "AcquisitionTime": ["092949.397500", "092950.887500", "092952.377500", "092953.867500", "092955.357500", "092956.847500", "092958.337500", "092959.827500", "093001.317500", "093002.807500", "093004.297500", "093005.787500", "093007.277500", "093008.767500", "093010.257500", "093011.747500", "093013.237500", "093014.727500", "093016.217500", "093017.707500", "093019.197500", "093020.687500", "093022.177500", "093023.667500", "093025.157500", "093026.647500", "093028.137500", "093029.627500", "093031.117500", "093032.607500", "093034.097500", "093035.587500", "093037.077500", "093038.567500", "093040.057500", "093041.547500", "093043.037500", "093044.527500", "093046.017500", "093047.507500", "093048.997500", "093050.487500", "093051.977500", "093053.467500", "093054.957500", "093056.447500", "093057.937500", "093059.427500", "093100.917500", "093102.407500", "093103.897500", "093105.387500", "093106.877500", "093108.367500", "093109.857500", "093111.347500", "093112.837500", "093114.327500", "093115.817500", "093117.307500", "093118.797500", "093120.287500", "093121.777500", "093123.267500", "093124.757500", "093126.247500", "093127.737500", "093129.227500", "093130.717500", "093132.207500", "093133.697500", "093135.187500", "093136.677500", "093138.167500", "093139.657500", "093141.147500", "093142.637500", "093144.127500", "093145.617500", "093147.107500", "093148.597500", "093150.087500", "093151.577500", "093153.067500", "093154.557500", "093156.047500", "093157.537500", "093159.027500", "093200.517500", "093202.007500", "093203.497500", "093204.987500", "093206.477500", "093207.967500", "093209.457500", "093210.947500", "093212.437500", "093213.927500", "093215.417500", "093216.907500", "093218.397500", "093219.887500", "093221.377500", "093222.867500", "093224.357500", "093225.847500", "093227.337500", "093228.827500", "093230.317500", "093231.807500", "093233.297500", "093234.787500", "093236.277500", "093237.767500", "093239.257500", "093240.747500", "093242.237500", "093243.727500", "093245.217500", "093246.707500", "093248.197500", "093249.687500", "093251.177500", "093252.667500", "093254.157500", "093255.647500", "093257.137500", "093258.627500", "093300.117500", "093301.607500", "093303.097500", "093304.587500", "093306.077500", "093307.567500", "093309.057500", "093310.547500", "093312.037500", "093313.527500", "093315.017500", "093316.507500", "093317.997500", "093319.487500", "093320.977500", "093322.467500", "093323.957500", "093325.447500", "093326.937500", "093328.427500", "093329.917500", "093331.407500", "093332.897500", "093334.387500", "093335.877500", "093337.367500", "093338.857500", "093340.347500", "093341.837500", "093343.327500", "093344.817500", "093346.307500", "093347.797500", "093349.287500", "093350.777500", "093352.267500", "093353.757500", "093355.247500", "093356.737500", "093358.227500", "093359.717500", "093401.207500", "093402.697500", "093404.187500", "093405.677500", "093407.167500", "093408.657500", "093410.147500", "093411.637500", "093413.127500", "093414.617500", "093416.107500", "093417.597500", "093419.087500", "093420.577500", "093422.067500", "093423.557500", "093425.047500", "093426.537500", "093428.027500", "093429.517500", "093431.007500", "093432.497500", "093433.987500", "093435.477500", "093436.967500", "093438.457500", "093439.947500", "093441.437500", "093442.927500", "093444.417500", "093445.907500", "093447.397500", "093448.887500", "093450.377500", "093451.867500", "093453.357500", "093454.847500", "093456.337500", "093457.827500", "093459.317500", "093500.807500", "093502.297500", "093503.787500", "093505.277500", "093506.767500", "093508.257500", "093509.747500", "093511.237500", "093512.727500", "093514.217500", "093515.707500", "093517.197500", "093518.687500", "093520.177500", "093521.667500", "093523.157500", "093524.647500", "093526.137500", "093527.627500", "093529.117500", "093530.607500", "093532.097500", "093533.587500", "093535.077500", "093536.567500", "093538.057500", "093539.547500", "093541.037500", "093542.527500", "093544.017500", "093545.507500", "093546.997500", "093548.487500", "093549.977500", "093551.467500", "093552.957500", "093554.447500", "093555.937500", "093557.427500", "093558.917500", "093600.407500", "093601.897500", "093603.387500", "093604.877500", "093606.367500", "093607.857500", "093609.347500", "093610.837500", "093612.327500", "093613.817500", "093615.307500", "093616.797500", "093618.287500", "093619.777500", "093621.267500", "093622.757500", "093624.247500", "093625.737500", "093627.227500", "093628.717500", "093630.207500", "093631.697500", "093633.187500", "093634.677500", "093636.167500", "093637.657500", "093639.147500", "093640.637500", "093642.127500", "093643.617500", "093645.107500", "093646.597500", "093648.087500", "093649.577500", "093651.067500", "093652.557500", "093654.047500", "093655.537500", "093657.027500", "093658.517500", "093700.007500", "093701.497500", "093702.987500", "093704.477500", "093705.967500", "093707.457500", "093708.947500", "093710.437500", "093711.927500", "093713.417500", "093714.907500", "093716.397500", "093717.887500", "093719.377500", "093720.867500", "093722.357500", "093723.847500", "093725.337500", "093726.827500", "093728.317500", "093729.807500", "093731.297500", "093732.787500", "093734.277500", "093735.767500", "093737.257500", "093738.747500", "093740.237500", "093741.727500", "093743.217500", "093744.707500", "093746.197500", "093747.687500", "093749.177500", "093750.667500", "093752.157500", "093753.647500", "093755.137500", "093756.627500", "093758.117500", "093759.607500", "093801.097500", "093802.587500", "093804.077500", "093805.567500", "093807.057500", "093808.547500", "093810.037500", "093811.527500", "093813.017500", "093814.507500", "093815.997500", "093817.487500", "093818.977500", "093820.467500", "093821.957500", "093823.447500", "093824.937500", "093826.427500", "093827.917500", "093829.407500", "093830.897500", "093832.387500", "093833.877500", "093835.367500", "093836.857500", "093838.347500", "093839.837500", "093841.327500", "093842.817500", "093844.307500", "093845.797500", "093847.287500", "093848.777500", "093850.267500", "093851.757500", "093853.247500", "093854.737500", "093856.227500", "093857.717500", "093859.207500", "093900.697500", "093902.187500", "093903.677500", "093905.167500", "093906.657500", "093908.147500", "093909.637500", "093911.127500", "093912.617500", "093914.107500", "093915.597500", "093917.087500", "093918.577500", "093920.067500", "093921.557500", "093923.047500", "093924.537500", "093926.027500", "093927.517500", "093929.007500", "093930.497500", "093931.987500", "093933.477500", "093934.967500", "093936.457500", "093937.947500", "093939.437500", "093940.927500", "093942.417500", "093943.907500", "093945.397500", "093946.887500", "093948.377500", "093949.867500", "093951.357500", "093952.847500", "093954.337500", "093955.827500", "093957.317500", "093958.807500", "094000.297500", "094001.787500", "094003.277500", "094004.767500", "094006.257500", "094007.747500", "094009.237500", "094010.727500", "094012.217500", "094013.707500", "094015.197500", "094016.687500", "094018.177500", "094019.667500", "094021.157500", "094022.647500", "094024.137500", "094025.627500", "094027.117500", "094028.607500", "094030.097500", "094031.587500", "094033.077500", "094034.567500", "094036.057500", "094037.547500", "094039.037500", "094040.527500", "094042.017500", "094043.507500", "094044.997500", "094046.487500", "094047.977500", "094049.467500", "094050.957500", "094052.447500", "094053.937500", "094055.427500", "094056.917500", "094058.407500", "094059.897500", "094101.387500", "094102.877500", "094104.367500", "094105.857500", "094107.347500", "094108.837500", "094110.327500", "094111.817500", "094113.307500", "094114.797500", "094116.287500", "094117.777500", "094119.267500", "094120.757500", "094122.247500", "094123.737500", "094125.227500", "094126.717500", "094128.207500", "094129.697500", "094131.187500"],
      "ContentTime": ["093119.270000", "093119.273000", "093119.276000", "093119.279000", "093119.282000", "093119.285000", "093119.288000", "093119.291000", "093119.296000", "093119.298000", "093119.301000", "093119.304000", "093119.307000", "093119.310000", "093119.313000", "093119.316000", "093119.318000", "093119.321000", "093119.324000", "093119.327000", "093119.333000", "093119.335000", "093119.338000", "093119.341000", "093119.344000", "093119.347000", "093119.350000", "093119.352000", "093119.355000", "093119.358000", "093119.361000", "093119.364000", "093119.373000", "093139.222000", "093139.225000", "093139.235000", "093139.238000", "093139.241000", "093139.244000", "093139.247000", "093139.249000", "093139.252000", "093139.255000", "093139.258000", "093139.261000", "093139.264000", "093139.266000", "093139.269000", "093139.272000", "093139.275000", "093139.278000", "093139.281000", "093139.283000", "093159.222000", "093159.225000", "093159.228000", "093159.230000", "093159.233000", "093159.236000", "093159.242000", "093159.245000", "093159.248000", "093159.251000", "093159.254000", "093159.256000", "093159.259000", "093159.262000", "093159.265000", "093159.268000", "093159.271000", "093159.274000", "093159.277000", "093159.280000", "093159.282000", "093219.222000", "093219.225000", "093219.228000", "093219.231000", "093219.233000", "093219.236000", "093219.239000", "093219.242000", "093219.245000", "093219.247000", "093219.250000", "093219.253000", "093219.256000", "093219.259000", "093219.262000", "093219.264000", "093219.267000", "093219.270000", "093219.273000", "093219.276000", "093259.221000", "093259.224000", "093259.227000", "093259.230000", "093259.233000", "093259.235000", "093259.238000", "093259.241000", "093259.244000", "093259.247000", "093259.250000", "093259.252000", "093259.255000", "093259.258000", "093259.261000", "093259.264000", "093259.267000", "093259.269000", "093259.272000", "093259.275000", "093259.278000", "093259.281000", "093259.284000", "093259.287000", "093259.289000", "093259.292000", "093259.295000", "093259.298000", "093259.301000", "093259.303000", "093259.306000", "093259.309000", "093259.312000", "093339.221000", "093339.224000", "093339.227000", "093339.230000", "093339.232000", "093339.235000", "093339.238000", "093339.241000", "093339.244000", "093339.246000", "093339.249000", "093339.252000", "093339.255000", "093339.258000", "093339.261000", "093339.285000", "093339.288000", "093339.291000", "093339.294000", "093339.297000", "093339.299000", "093339.302000", "093339.305000", "093339.308000", "093339.311000", "093339.314000", "093339.317000", "093419.222000", "093419.225000", "093419.228000", "093419.231000", "093419.234000", "093419.238000", "093419.241000", "093419.243000", "093419.246000", "093419.249000", "093419.252000", "093419.255000", "093419.258000", "093419.261000", "093419.264000", "093419.267000", "093419.269000", "093419.272000", "093419.275000", "093419.278000", "093419.281000", "093419.283000", "093419.286000", "093419.289000", "093419.298000", "093419.300000", "093459.221000", "093459.224000", "093459.227000", "093459.230000", "093459.232000", "093459.235000", "093459.238000", "093459.241000", "093459.244000", "093459.247000", "093459.250000", "093459.252000", "093459.255000", "093459.258000", "093459.261000", "093459.264000", "093459.267000", "093459.270000", "093459.272000", "093459.275000", "093459.278000", "093459.281000", "093459.284000", "093459.287000", "093459.290000", "093459.292000", "093459.295000", "093539.221000", "093539.224000", "093539.227000", "093539.230000", "093539.233000", "093539.235000", "093539.238000", "093539.241000", "093539.244000", "093539.247000", "093539.250000", "093539.253000", "093539.255000", "093539.258000", "093539.261000", "093539.264000", "093539.267000", "093539.270000", "093539.273000", "093539.275000", "093539.278000", "093539.281000", "093539.284000", "093539.287000", "093539.290000", "093539.292000", "093539.295000", "093619.222000", "093619.225000", "093619.228000", "093619.231000", "093619.233000", "093619.236000", "093619.239000", "093619.242000", "093619.245000", "093619.248000", "093619.250000", "093619.253000", "093619.259000", "093619.263000", "093619.265000", "093619.268000", "093619.271000", "093619.274000", "093619.277000", "093619.280000", "093619.283000", "093619.286000", "093619.288000", "093619.291000", "093619.294000", "093619.297000", "093619.300000", "093659.222000", "093659.225000", "093659.228000", "093659.231000", "093659.233000", "093659.236000", "093659.239000", "093659.242000", "093659.245000", "093659.248000", "093659.250000", "093659.253000", "093659.256000", "093659.259000", "093659.270000", "093659.272000", "093659.275000", "093659.278000", "093659.281000", "093659.284000", "093659.287000", "093659.290000", "093659.292000", "093659.295000", "093659.298000", "093659.301000", "093659.304000", "093739.221000", "093739.224000", "093739.227000", "093739.230000", "093739.232000", "093739.235000", "093739.238000", "093739.241000", "093739.244000", "093739.247000", "093739.249000", "093739.252000", "093739.255000", "093739.258000", "093739.261000", "093739.264000", "093739.267000", "093739.269000", "093739.272000", "093739.275000", "093739.278000", "093739.281000", "093739.284000", "093739.286000", "093739.289000", "093739.292000", "093739.295000", "093819.221000", "093819.224000", "093819.227000", "093819.230000", "093819.232000", "093819.235000", "093819.238000", "093819.241000", "093819.244000", "093819.247000", "093819.249000", "093819.252000", "093819.255000", "093819.258000", "093819.261000", "093819.264000", "093819.267000", "093819.269000", "093819.272000", "093819.275000", "093819.278000", "093819.281000", "093819.284000", "093819.286000", "093819.296000", "093819.299000", "093819.302000", "093859.222000", "093859.225000", "093859.228000", "093859.231000", "093859.234000", "093859.236000", "093859.239000", "093859.242000", "093859.245000", "093859.248000", "093859.251000", "093859.254000", "093859.256000", "093859.259000", "093859.262000", "093859.265000", "093859.268000", "093859.271000", "093859.274000", "093859.277000", "093859.279000", "093859.282000", "093859.285000", "093859.288000", "093859.291000", "093859.294000", "093939.221000", "093939.408000", "093939.411000", "093939.414000", "093939.417000", "093939.420000", "093939.422000", "093939.425000", "093939.428000", "093939.431000", "093939.434000", "093939.437000", "093939.441000", "093939.444000", "093939.447000", "093939.449000", "093939.452000", "093939.455000", "093939.458000", "093939.461000", "093939.464000", "093939.466000", "093939.469000", "093939.472000", "093939.475000", "093939.481000", "093939.484000", "094019.221000", "094019.224000", "094019.227000", "094019.229000", "094019.232000", "094019.235000", "094019.238000", "094019.241000", "094019.244000", "094019.247000", "094019.250000", "094019.253000", "094019.255000", "094019.258000", "094019.261000", "094019.264000", "094019.267000", "094019.270000", "094019.273000", "094019.275000", "094019.278000", "094019.281000", "094019.284000", "094019.287000", "094019.290000", "094019.292000", "094019.295000", "094059.222000", "094059.225000", "094059.228000", "094059.231000", "094059.234000", "094059.236000", "094059.239000", "094059.242000", "094059.245000", "094059.248000", "094059.251000", "094059.254000", "094059.256000", "094059.259000", "094059.262000", "094059.265000", "094059.268000", "094059.271000", "094059.273000", "094059.276000", "094059.279000", "094059.282000", "094059.285000", "094059.288000", "094059.291000", "094059.293000", "094059.296000", "094119.222000", "094119.225000", "094119.228000", "094119.231000", "094119.233000", "094119.236000", "094119.239000", "094119.242000", "094119.245000", "094119.248000", "094119.250000", "094119.253000", "094119.256000", "094132.857000", "094132.861000", "094132.864000", "094132.866000", "094132.869000", "094132.872000", "094132.875000", "094132.885000", "094132.888000", "094132.891000"],
