{
  "AcquisitionMatrixPE": 104,
  "AcquisitionNumber": 1,
  "AcquisitionTime": "15:45:8.157500",
  "BandwidthPerPixelPhaseEncode": 17.17,
  "BaseResolution": 104,
  "BodyPartExamined": "BRAIN",
  "CoilString": "HC1-7;NC1_2",
  "ConsistencyInfo": "N4_VE11C_LATEST_20160120",
  "ConversionSoftware": "dcm2niix",
  "ConversionSoftwareVersion": "v1.0.20190902",
  "DerivedVendorReportedEchoSpacing": 0.000560011,
  "DeviceSerialNumber": "167006",
  "DwellTime": 2.1e-06,
  "EchoTime": 0.037,
  "EchoTrainLength": 104,
  "EffectiveEchoSpacing": 0.000560011,
  "FlipAngle": 52,
  "ImageComments": "Unaliased_MB4_PE3_LB",
  "ImageOrientationPatientDICOM": [0.998608, -0.0523284, -0.00666742, 0.0463945, 0.931377, -0.361088],
  "ImageType": [
    "ORIGINAL",
    "PRIMARY",
    "M",
    "MB",
    "ND",
    "MOSAIC"
],
  "ImagingFrequency": 123.259,
  "InPlanePhaseEncodingDirectionDICOM": "COL",
  "InstitutionAddress": "Chemin_Queen-Mary_4565_Montreal_District_CA_H3W_1W5",
  "InstitutionName": "IUGM",
  "InstitutionalDepartmentName": "Department",
  "MRAcquisitionType": "2D",
  "MagneticFieldStrength": 3,
  "Manufacturer": "Siemens",
  "ManufacturersModelName": "Prisma_fit",
  "Modality": "MR",
  "MultibandAccelerationFactor": 4,
  "PartialFourier": 1,
  "PatientPosition": "HFS",
  "PercentPhaseFOV": 100,
  "PhaseEncodingDirection": "j",
  "PhaseEncodingSteps": 104,
  "PhaseResolution": 1,
  "PixelBandwidth": 2290,
  "ProcedureStepDescription": "video_friends",
  "ProtocolName": "func_task-friends-s05e02a",
  "PulseSequenceDetails": "%CustomerSeq%_cmrr_mbep2d_bold",
  "ReceiveCoilActiveElements": "HC1-7;NC1,2",
  "ReceiveCoilName": "HeadNeck_64",
  "ReconMatrixPE": 104,
  "RepetitionTime": 1.49,
  "SAR": 0.0288741,
  "ScanOptions": "FS",
  "ScanningSequence": "EP",
  "SequenceName": "epfid2d1_104",
  "SequenceVariant": "SK_SS",
  "SeriesDescription": "func_task-friends-s05e02a",
  "SeriesNumber": 13,
  "ShimSetting": [635, -7246, -8854, 617, 3, -227, -93, -13],
  "SliceThickness": 2,
  "SliceTiming": [0, 0.785, 0.1, 0.8825, 0.1975, 0.98, 0.295, 1.08, 0.3925, 1.1775, 0.49, 1.275, 0.59, 1.3725, 0.6875, 0, 0.785, 0.1, 0.8825, 0.1975, 0.98, 0.295, 1.08, 0.3925, 1.1775, 0.49, 1.275, 0.59, 1.3725, 0.6875, 0, 0.785, 0.1, 0.8825, 0.1975, 0.98, 0.295, 1.08, 0.3925, 1.1775, 0.49, 1.275, 0.59, 1.3725, 0.6875, 0, 0.785, 0.1, 0.8825, 0.1975, 0.98, 0.295, 1.08, 0.3925, 1.1775, 0.49, 1.275, 0.59, 1.3725, 0.6875],
  "SoftwareVersions": "syngo_MR_E11",
  "SpacingBetweenSlices": 2,
  "StationName": "MRC35049",
  "TaskName": "s05e02a",
  "TotalReadoutTime": 0.0576811,
  "TxRefAmp": 217.056,
  "WipMemBlock": "29827966-eeee-44d3-add3-3b74e5a308ea||Sequence: R016 ve11c/master r/e634e98; Dec 19 2017 11:00:25 by eja",
  "dcmmeta_affine": [
    [-1.9972153902053833, 0.09278895705938339, -0.05021008104085922, 98.42011260986328],
    [0.10465670377016068, 1.8627536296844482, -0.7205525040626526, -77.51634216308594],
    [-0.01333484798669815, 0.7221766710281372, 1.8650156259536743, -74.14096069335938],
    [0.0, 0.0, 0.0, 1.0]
],
  "dcmmeta_reorient_transform": [
    [0.0, -1.0, 0.0, 103.0],
    [1.0, 0.0, 0.0, 0.0],
    [0.0, 0.0, 1.0, 0.0],
    [0.0, 0.0, 0.0, 1.0]
],
  "dcmmeta_shape": [104, 104, 60, 495],
  "dcmmeta_slice_dim": 2,
  "dcmmeta_version": 0.6,
  "global": {
    "const": {
      "AcquisitionMatrix": [104, 0, 0, 104],
      "AngioFlag": "N",
      "BitsAllocated": 16,
      "BitsStored": 16,
      "BodyPartExamined": "BRAIN",
      "Columns": 832,
      "EchoNumbers": 1,
      "EchoTime": 37.0,
      "EchoTrainLength": 104,
      "FlipAngle": 52.0,
      "HighBit": 15,
      "ImageOrientationPatient": [0.99860767531372, -0.0523283504726, -0.0066674238909, 0.04639447963123, 0.93137681500773, -0.3610883281495],
      "ImagePositionPatient": [-868.73894692354, -754.29456722897, 267.96942113461],
      "ImageType": [
        "ORIGINAL",
        "PRIMARY",
        "M",
        "MB",
        "ND",
        "MOSAIC"
],
      "ImagedNucleus": "1H",
      "ImagingFrequency": 123.258984,
      "InPlanePhaseEncodingDirection": "COL",
      "MRAcquisitionType": "2D",
      "MagneticFieldStrength": 3.0,
      "Manufacturer": "SIEMENS",
      "ManufacturerModelName": "Prisma_fit",
      "Modality": "MR",
      "NumberOfAverages": 1.0,
      "NumberOfPhaseEncodingSteps": 104,
      "PercentPhaseFieldOfView": 100.0,
      "PercentSampling": 100.0,
      "PerformedProcedureStepStartTime": "145740.307000",
      "PhotometricInterpretation": "MONOCHROME2",
      "PixelBandwidth": 2290.0,
      "PixelRepresentation": 0,
      "PixelSpacing": [2.0, 2.0],
      "ProtocolName": "func_task-friends-s05e02a",
      "RepetitionTime": 1490.0,
      "Rows": 832,
      "SAR": 0.02887413636144,
      "SamplesPerPixel": 1,
      "ScanOptions": "FS",
      "ScanningSequence": "EP",
      "SequenceName": "epfid2d1_104",
      "SequenceVariant": [
        "SK",
        "SS"
],
      "SeriesDescription": "func_task-friends-s05e02a",
      "SeriesNumber": 13,
      "SeriesTime": "154623.397000",
      "SliceLocation": -43.680569594501,
      "SliceThickness": 2.0,
      "SmallestImagePixelValue": 0,
      "SoftwareVersions": "syngo MR E11",
      "SpacingBetweenSlices": 2.0000000200746,
      "SpecificCharacterSet": "ISO_IR 100",
      "StudyID": "1",
      "StudyTime": "145740.208000",
      "TransmitCoilName": "Body",
      "VariableFlipAngleFlag": "N",
      "WindowCenterWidthExplanation": "Algo1",
      "dBdt": 0.0},
    "slices": {}
  },
  "time": {
    "samples": {
      "AcquisitionNumber": [1, 2, 3, 4, 5, 6, 7, 8, 9, 10, 11, 12, 13, 14, 15, 16, 17, 18, 19, 20, 21, 22, 23, 24, 25, 26, 27, 28, 29, 30, 31, 32, 33, 34, 35, 36, 37, 38, 39, 40, 41, 42, 43, 44, 45, 46, 47, 48, 49, 50, 51, 52, 53, 54, 55, 56, 57, 58, 59, 60, 61, 62, 63, 64, 65, 66, 67, 68, 69, 70, 71, 72, 73, 74, 75, 76, 77, 78, 79, 80, 81, 82, 83, 84, 85, 86, 87, 88, 89, 90, 91, 92, 93, 94, 95, 96, 97, 98, 99, 100, 101, 102, 103, 104, 105, 106, 107, 108, 109, 110, 111, 112, 113, 114, 115, 116, 117, 118, 119, 120, 121, 122, 123, 124, 125, 126, 127, 128, 129, 130, 131, 132, 133, 134, 135, 136, 137, 138, 139, 140, 141, 142, 143, 144, 145, 146, 147, 148, 149, 150, 151, 152, 153, 154, 155, 156, 157, 158, 159, 160, 161, 162, 163, 164, 165, 166, 167, 168, 169, 170, 171, 172, 173, 174, 175, 176, 177, 178, 179, 180, 181, 182, 183, 184, 185, 186, 187, 188, 189, 190, 191, 192, 193, 194, 195, 196, 197, 198, 199, 200, 201, 202, 203, 204, 205, 206, 207, 208, 209, 210, 211, 212, 213, 214, 215, 216, 217, 218, 219, 220, 221, 222, 223, 224, 225, 226, 227, 228, 229, 230, 231, 232, 233, 234, 235, 236, 237, 238, 239, 240, 241, 242, 243, 244, 245, 246, 247, 248, 249, 250, 251, 252, 253, 254, 255, 256, 257, 258, 259, 260, 261, 262, 263, 264, 265, 266, 267, 268, 269, 270, 271, 272, 273, 274, 275, 276, 277, 278, 279, 280, 281, 282, 283, 284, 285, 286, 287, 288, 289, 290, 291, 292, 293, 294, 295, 296, 297, 298, 299, 300, 301, 302, 303, 304, 305, 306, 307, 308, 309, 310, 311, 312, 313, 314, 315, 316, 317, 318, 319, 320, 321, 322, 323, 324, 325, 326, 327, 328, 329, 330, 331, 332, 333, 334, 335, 336, 337, 338, 339, 340, 341, 342, 343, 344, 345, 346, 347, 348, 349, 350, 351, 352, 353, 354, 355, 356, 357, 358, 359, 360, 361, 362, 363, 364, 365, 366, 367, 368, 369, 370, 371, 372, 373, 374, 375, 376, 377, 378, 379, 380, 381, 382, 383, 384, 385, 386, 387, 388, 389, 390, 391, 392, 393, 394, 395, 396, 397, 398, 399, 400, 401, 402, 403, 404, 405, 406, 407, 408, 409, 410, 411, 412, 413, 414, 415, 416, 417, 418, 419, 420, 421, 422, 423, 424, 425, 426, 427, 428, 429, 430, 431, 432, 433, 434, 435, 436, 437, 438, 439, 440, 441, 442, 443, 444, 445, 446, 447, 448, 449, 450, 451, 452, 453, 454, 455, 456, 457, 458, 459, 460, 461, 462, 463, 464, 465, 466, 467, 468, 469, 470, 471, 472, 473, 474, 475, 476, 477, 478, 479, 480, 481, 482, 483, 484, 485, 486, 487, 488, 489, 490, 491, 492, 493, 494, 495],
      "AcquisitionTime": ["154508.157500", "154509.647500", "154511.137500", "154512.627500", "154514.117500", "154515.607500", "154517.097500", "154518.587500", "154520.077500", "154521.567500", "154523.057500", "154524.547500", "154526.037500", "154527.527500", "154529.017500", "154530.507500", "154531.997500", "154533.487500", "154534.977500", "154536.467500", "154537.957500", "154539.447500", "154540.937500", "154542.427500", "154543.917500", "154545.407500", "154546.897500", "154548.387500", "154549.877500", "154551.367500", "154552.857500", "154554.347500", "154555.837500", "154557.327500", "154558.817500", "154600.307500", "154601.797500", "154603.287500", "154604.777500", "154606.267500", "154607.757500", "154609.247500", "154610.737500", "154612.227500", "154613.717500", "154615.207500", "154616.697500", "154618.187500", "154619.677500", "154621.167500", "154622.657500", "154624.147500", "154625.637500", "154627.127500", "154628.617500", "154630.107500", "154631.597500", "154633.087500", "154634.577500", "154636.067500", "154637.557500", "154639.047500", "154640.537500", "154642.027500", "154643.517500", "154645.007500", "154646.497500", "154647.987500", "154649.477500", "154650.967500", "154652.457500", "154653.947500", "154655.437500", "154656.927500", "154658.417500", "154659.907500", "154701.397500", "154702.887500", "154704.377500", "154705.867500", "154707.357500", "154708.847500", "154710.337500", "154711.827500", "154713.317500", "154714.807500", "154716.297500", "154717.787500", "154719.277500", "154720.767500", "154722.257500", "154723.747500", "154725.237500", "154726.727500", "154728.217500", "154729.707500", "154731.197500", "154732.687500", "154734.177500", "154735.667500", "154737.157500", "154738.647500", "154740.137500", "154741.627500", "154743.117500", "154744.607500", "154746.097500", "154747.587500", "154749.077500", "154750.567500", "154752.057500", "154753.547500", "154755.037500", "154756.527500", "154758.017500", "154759.507500", "154800.997500", "154802.487500", "154803.977500", "154805.467500", "154806.957500", "154808.447500", "154809.937500", "154811.427500", "154812.917500", "154814.407500", "154815.897500", "154817.387500", "154818.877500", "154820.367500", "154821.857500", "154823.347500", "154824.837500", "154826.327500", "154827.817500", "154829.307500", "154830.797500", "154832.287500", "154833.777500", "154835.267500", "154836.757500", "154838.247500", "154839.737500", "154841.227500", "154842.717500", "154844.207500", "154845.697500", "154847.187500", "154848.677500", "154850.167500", "154851.657500", "154853.147500", "154854.637500", "154856.127500", "154857.617500", "154859.107500", "154900.597500", "154902.087500", "154903.577500", "154905.067500", "154906.557500", "154908.047500", "154909.537500", "154911.027500", "154912.517500", "154914.007500", "154915.497500", "154916.987500", "154918.477500", "154919.967500", "154921.457500", "154922.947500", "154924.437500", "154925.927500", "154927.417500", "154928.907500", "154930.397500", "154931.887500", "154933.377500", "154934.867500", "154936.357500", "154937.847500", "154939.337500", "154940.827500", "154942.317500", "154943.807500", "154945.297500", "154946.787500", "154948.277500", "154949.767500", "154951.257500", "154952.747500", "154954.237500", "154955.727500", "154957.217500", "154958.707500", "155000.197500", "155001.687500", "155003.177500", "155004.667500", "155006.157500", "155007.647500", "155009.137500", "155010.627500", "155012.117500", "155013.607500", "155015.097500", "155016.587500", "155018.077500", "155019.567500", "155021.057500", "155022.547500", "155024.037500", "155025.527500", "155027.017500", "155028.507500", "155029.997500", "155031.487500", "155032.977500", "155034.467500", "155035.957500", "155037.447500", "155038.937500", "155040.427500", "155041.917500", "155043.407500", "155044.897500", "155046.387500", "155047.877500", "155049.367500", "155050.857500", "155052.347500", "155053.837500", "155055.327500", "155056.817500", "155058.307500", "155059.797500", "155101.287500", "155102.777500", "155104.267500", "155105.757500", "155107.247500", "155108.737500", "155110.227500", "155111.717500", "155113.207500", "155114.697500", "155116.187500", "155117.677500", "155119.167500", "155120.657500", "155122.147500", "155123.637500", "155125.127500", "155126.617500", "155128.107500", "155129.597500", "155131.087500", "155132.577500", "155134.067500", "155135.557500", "155137.047500", "155138.537500", "155140.027500", "155141.517500", "155143.007500", "155144.497500", "155145.987500", "155147.477500", "155148.967500", "155150.457500", "155151.947500", "155153.437500", "155154.927500", "155156.417500", "155157.907500", "155159.397500", "155200.887500", "155202.377500", "155203.867500", "155205.357500", "155206.847500", "155208.337500", "155209.827500", "155211.317500", "155212.807500", "155214.297500", "155215.787500", "155217.277500", "155218.767500", "155220.257500", "155221.747500", "155223.237500", "155224.727500", "155226.217500", "155227.707500", "155229.197500", "155230.687500", "155232.177500", "155233.667500", "155235.157500", "155236.647500", "155238.137500", "155239.627500", "155241.117500", "155242.607500", "155244.097500", "155245.587500", "155247.077500", "155248.567500", "155250.057500", "155251.547500", "155253.037500", "155254.527500", "155256.017500", "155257.507500", "155258.997500", "155300.487500", "155301.977500", "155303.467500", "155304.957500", "155306.447500", "155307.937500", "155309.427500", "155310.917500", "155312.407500", "155313.897500", "155315.387500", "155316.877500", "155318.367500", "155319.857500", "155321.347500", "155322.837500", "155324.327500", "155325.817500", "155327.307500", "155328.797500", "155330.287500", "155331.777500", "155333.267500", "155334.757500", "155336.247500", "155337.737500", "155339.227500", "155340.717500", "155342.207500", "155343.697500", "155345.187500", "155346.677500", "155348.167500", "155349.657500", "155351.147500", "155352.637500", "155354.127500", "155355.617500", "155357.107500", "155358.597500", "155400.087500", "155401.577500", "155403.067500", "155404.557500", "155406.047500", "155407.537500", "155409.027500", "155410.517500", "155412.007500", "155413.497500", "155414.987500", "155416.477500", "155417.967500", "155419.457500", "155420.947500", "155422.437500", "155423.927500", "155425.417500", "155426.907500", "155428.397500", "155429.887500", "155431.377500", "155432.867500", "155434.357500", "155435.847500", "155437.337500", "155438.827500", "155440.317500", "155441.807500", "155443.297500", "155444.787500", "155446.277500", "155447.767500", "155449.257500", "155450.747500", "155452.237500", "155453.727500", "155455.217500", "155456.707500", "155458.197500", "155459.687500", "155501.177500", "155502.667500", "155504.157500", "155505.647500", "155507.137500", "155508.627500", "155510.117500", "155511.607500", "155513.097500", "155514.587500", "155516.077500", "155517.567500", "155519.057500", "155520.547500", "155522.037500", "155523.527500", "155525.017500", "155526.507500", "155527.997500", "155529.487500", "155530.977500", "155532.467500", "155533.957500", "155535.447500", "155536.937500", "155538.427500", "155539.917500", "155541.407500", "155542.897500", "155544.387500", "155545.877500", "155547.367500", "155548.857500", "155550.347500", "155551.837500", "155553.327500", "155554.817500", "155556.307500", "155557.797500", "155559.287500", "155600.777500", "155602.267500", "155603.757500", "155605.247500", "155606.737500", "155608.227500", "155609.717500", "155611.207500", "155612.697500", "155614.187500", "155615.677500", "155617.167500", "155618.657500", "155620.147500", "155621.637500", "155623.127500", "155624.617500", "155626.107500", "155627.597500", "155629.087500", "155630.577500", "155632.067500", "155633.557500", "155635.047500", "155636.537500", "155638.027500", "155639.517500", "155641.007500", "155642.497500", "155643.987500", "155645.477500", "155646.967500", "155648.457500", "155649.947500", "155651.437500", "155652.927500", "155654.417500", "155655.907500", "155657.397500", "155658.887500", "155700.377500", "155701.867500", "155703.357500", "155704.847500", "155706.337500", "155707.827500", "155709.317500", "155710.807500", "155712.297500", "155713.787500", "155715.277500", "155716.767500", "155718.257500", "155719.747500", "155721.237500", "155722.727500", "155724.217500"],
      "ContentTime": ["154623.399000", "154623.403000", "154623.415000", "154623.418000", "154623.420000", "154623.423000", "154623.426000", "154623.429000", "154623.432000", "154623.435000", "154623.437000", "154623.440000", "154623.443000", "154623.446000", "154623.455000", "154623.458000", "154623.461000", "154623.464000", "154623.466000", "154623.469000", "154643.397000", "154643.400000", "154643.403000", "154643.405000", "154643.408000", "154643.411000", "154643.414000", "154643.417000", "154643.420000", "154643.422000", "154643.425000", "154643.428000", "154643.431000", "154643.434000", "154643.437000", "154643.439000", "154643.443000", "154643.447000", "154643.450000", "154643.453000", "154703.397000", "154703.400000", "154703.403000", "154703.405000", "154703.408000", "154703.411000", "154703.414000", "154703.417000", "154703.420000", "154703.422000", "154703.425000", "154703.428000", "154703.431000", "154703.434000", "154703.436000", "154703.439000", "154703.442000", "154703.445000", "154703.448000", "154703.451000", "154703.453000", "154723.397000", "154723.400000", "154723.403000", "154723.406000", "154723.408000", "154723.411000", "154723.414000", "154723.417000", "154723.420000", "154723.422000", "154723.425000", "154723.428000", "154723.431000", "154723.434000", "154723.436000", "154723.439000", "154723.443000", "154723.446000", "154723.449000", "154723.451000", "154743.397000", "154743.400000", "154743.403000", "154743.405000", "154743.408000", "154743.411000", "154743.414000", "154743.417000", "154743.419000", "154743.433000", "154743.436000", "154743.439000", "154743.442000", "154743.445000", "154743.447000", "154743.450000", "154743.453000", "154743.456000", "154743.459000", "154743.461000", "154823.398000", "154823.401000", "154823.404000", "154823.407000", "154823.409000", "154823.412000", "154823.415000", "154823.418000", "154823.421000", "154823.424000", "154823.426000", "154823.429000", "154823.432000", "154823.435000", "154823.438000", "154823.441000", "154823.443000", "154823.446000", "154823.449000", "154823.452000", "154823.455000", "154823.457000", "154823.460000", "154823.463000", "154823.466000", "154823.469000", "154823.472000", "154823.474000", "154823.479000", "154903.397000", "154903.400000", "154903.403000", "154903.406000", "154903.409000", "154903.411000", "154903.414000", "154903.417000", "154903.420000", "154903.423000", "154903.426000", "154903.428000", "154903.431000", "154903.434000", "154903.437000", "154903.440000", "154903.443000", "154903.446000", "154903.449000", "154903.452000", "154903.455000", "154903.467000", "154903.470000", "154903.473000", "154903.476000", "154903.479000", "154903.482000", "154943.397000", "154943.400000", "154943.403000", "154943.406000", "154943.408000", "154943.411000", "154943.414000", "154943.417000", "154943.420000", "154943.423000", "154943.426000", "154943.429000", "154943.431000", "154943.434000", "154943.437000", "154943.447000", "154943.450000", "154943.453000", "154943.455000", "154943.458000", "154943.461000", "154943.464000", "154943.467000", "154943.470000", "154943.472000", "154943.475000", "154943.478000", "155023.400000", "155023.403000", "155023.406000", "155023.409000", "155023.412000", "155023.415000", "155023.418000", "155023.421000", "155023.424000", "155023.427000", "155023.429000", "155023.432000", "155023.435000", "155023.438000", "155023.441000", "155023.444000", "155023.447000", "155023.450000", "155023.452000", "155023.455000", "155023.458000", "155023.461000", "155023.464000", "155023.467000", "155023.470000", "155023.473000", "155023.475000", "155103.398000", "155103.401000", "155103.404000", "155103.415000", "155103.418000", "155103.421000", "155103.424000", "155103.427000", "155103.430000", "155103.433000", "155103.435000", "155103.438000", "155103.441000", "155103.444000", "155103.447000", "155103.450000", "155103.453000", "155103.455000", "155103.458000", "155103.461000", "155103.464000", "155103.467000", "155103.471000", "155103.474000", "155103.477000", "155103.480000", "155103.483000", "155143.397000", "155143.400000", "155143.403000", "155143.406000", "155143.409000", "155143.411000", "155143.414000", "155143.417000", "155143.420000", "155143.423000", "155143.426000", "155143.429000", "155143.431000", "155143.434000", "155143.437000", "155143.440000", "155143.451000", "155143.453000", "155143.456000", "155143.459000", "155143.462000", "155143.465000", "155143.478000", "155143.482000", "155143.485000", "155143.488000", "155143.491000", "155223.397000", "155223.400000", "155223.403000", "155223.406000", "155223.408000", "155223.411000", "155223.414000", "155223.417000", "155223.420000", "155223.423000", "155223.426000", "155223.429000", "155223.432000", "155223.435000", "155223.438000", "155223.440000", "155223.443000", "155223.446000", "155223.449000", "155223.452000", "155223.455000", "155223.457000", "155223.460000", "155223.463000", "155223.466000", "155223.469000", "155303.398000", "155303.401000", "155303.404000", "155303.407000", "155303.409000", "155303.412000", "155303.415000", "155303.418000", "155303.421000", "155303.424000", "155303.427000", "155303.429000", "155303.432000", "155303.435000", "155303.438000", "155303.441000", "155303.444000", "155303.446000", "155303.449000", "155303.452000", "155303.455000", "155303.458000", "155303.461000", "155303.464000", "155303.467000", "155303.469000", "155303.472000", "155343.397000", "155343.400000", "155343.403000", "155343.406000", "155343.409000", "155343.411000", "155343.414000", "155343.417000", "155343.420000", "155343.423000", "155343.426000", "155343.429000", "155343.431000", "155343.434000", "155343.437000", "155343.440000", "155343.443000", "155343.446000", "155343.448000", "155343.451000", "155343.454000", "155343.457000", "155343.460000", "155343.463000", "155343.466000", "155343.468000", "155343.471000", "155423.397000", "155423.400000", "155423.403000", "155423.406000", "155423.408000", "155423.411000", "155423.414000", "155423.417000", "155423.420000", "155423.423000", "155423.426000", "155423.428000", "155423.431000", "155423.434000", "155423.437000", "155423.440000", "155423.443000", "155423.446000", "155423.448000", "155423.451000", "155423.454000", "155423.457000", "155423.460000", "155423.463000", "155423.466000", "155423.469000", "155423.471000", "155503.398000", "155503.401000", "155503.404000", "155503.407000", "155503.410000", "155503.413000", "155503.415000", "155503.418000", "155503.421000", "155503.424000", "155503.427000", "155503.430000", "155503.433000", "155503.436000", "155503.438000", "155503.441000", "155503.444000", "155503.447000", "155503.450000", "155503.453000", "155503.456000", "155503.458000", "155503.461000", "155503.464000", "155503.467000", "155503.470000", "155503.473000", "155543.398000", "155543.402000", "155543.405000", "155543.408000", "155543.411000", "155543.415000", "155543.418000", "155543.421000", "155543.425000", "155543.428000", "155543.431000", "155543.434000", "155543.437000", "155543.440000", "155543.443000", "155543.446000", "155543.449000", "155543.452000", "155543.455000", "155543.458000", "155543.461000", "155543.464000", "155543.467000", "155543.470000", "155543.473000", "155543.476000", "155543.479000", "155623.397000", "155623.400000", "155623.403000", "155623.406000", "155623.409000", "155623.411000", "155623.414000", "155623.417000", "155623.420000", "155623.423000", "155623.426000", "155623.428000", "155623.431000", "155623.434000", "155623.437000", "155623.440000", "155623.443000", "155623.445000", "155623.462000", "155623.465000", "155623.468000", "155623.471000", "155623.473000", "155623.476000", "155623.479000", "155623.482000", "155623.485000", "155703.397000", "155703.400000", "155703.403000", "155703.406000", "155703.409000", "155703.412000", "155703.415000", "155703.418000", "155703.421000", "155703.424000", "155703.427000", "155703.430000", "155703.433000", "155703.436000", "155703.438000", "155703.441000", "155703.444000", "155703.447000", "155703.451000", "155703.454000", "155703.456000", "155703.459000", "155703.462000", "155703.465000", "155703.468000", "155703.471000", "155726.003000", "155726.006000", "155726.009000", "155726.012000", "155726.015000", "155726.018000", "155726.021000", "155726.023000", "155726.026000", "155726.029000", "155726.032000", "155726.035000", "155726.038000", "155726.041000", "155726.044000", "155726.047000"],
