{
  "AcquisitionMatrixPE": 104,
  "AcquisitionNumber": 1,
  "AcquisitionTime": "16:11:47.397500",
  "BandwidthPerPixelPhaseEncode": 17.17,
  "BaseResolution": 104,
  "BodyPartExamined": "BRAIN",
  "CoilString": "HC1-7;NC1_2",
  "ConsistencyInfo": "N4_VE11C_LATEST_20160120",
  "ConversionSoftware": "dcm2niix",
  "ConversionSoftwareVersion": "v1.0.20190902",
  "DerivedVendorReportedEchoSpacing": 0.000560011,
  "DeviceSerialNumber": "167006",
  "DwellTime": 2.1e-06,
  "EchoTime": 0.037,
  "EchoTrainLength": 104,
  "EffectiveEchoSpacing": 0.000560011,
  "FlipAngle": 52,
  "ImageComments": "Unaliased_MB4_PE3_LB",
  "ImageOrientationPatientDICOM": [0.998608, -0.0523284, -0.00666742, 0.0463945, 0.931377, -0.361088],
  "ImageType": [
    "ORIGINAL",
    "PRIMARY",
    "M",
    "MB",
    "ND",
    "MOSAIC"
],
  "ImagingFrequency": 123.259,
  "InPlanePhaseEncodingDirectionDICOM": "COL",
  "InstitutionAddress": "Chemin_Queen-Mary_4565_Montreal_District_CA_H3W_1W5",
  "InstitutionName": "IUGM",
  "InstitutionalDepartmentName": "Department",
  "MRAcquisitionType": "2D",
  "MagneticFieldStrength": 3,
  "Manufacturer": "Siemens",
  "ManufacturersModelName": "Prisma_fit",
  "Modality": "MR",
  "MultibandAccelerationFactor": 4,
  "PartialFourier": 1,
  "PatientPosition": "HFS",
  "PercentPhaseFOV": 100,
  "PhaseEncodingDirection": "j",
  "PhaseEncodingSteps": 104,
  "PhaseResolution": 1,
  "PixelBandwidth": 2290,
  "ProcedureStepDescription": "video_friends",
  "ProtocolName": "func_task-friends-s05e03a",
  "PulseSequenceDetails": "%CustomerSeq%_cmrr_mbep2d_bold",
  "ReceiveCoilActiveElements": "HC1-7;NC1,2",
  "ReceiveCoilName": "HeadNeck_64",
  "ReconMatrixPE": 104,
  "RepetitionTime": 1.49,
  "SAR": 0.0288609,
  "ScanOptions": "FS",
  "ScanningSequence": "EP",
  "SequenceName": "epfid2d1_104",
  "SequenceVariant": "SK_SS",
  "SeriesDescription": "func_task-friends-s05e03a",
  "SeriesNumber": 17,
  "ShimSetting": [635, -7246, -8854, 617, 3, -227, -93, -13],
  "SliceThickness": 2,
  "SliceTiming": [0, 0.7825, 0.0975, 0.8825, 0.195, 0.98, 0.2925, 1.0775, 0.3925, 1.175, 0.49, 1.2725, 0.5875, 1.3725, 0.685, 0, 0.7825, 0.0975, 0.8825, 0.195, 0.98, 0.2925, 1.0775, 0.3925, 1.175, 0.49, 1.2725, 0.5875, 1.3725, 0.685, 0, 0.7825, 0.0975, 0.8825, 0.195, 0.98, 0.2925, 1.0775, 0.3925, 1.175, 0.49, 1.2725, 0.5875, 1.3725, 0.685, 0, 0.7825, 0.0975, 0.8825, 0.195, 0.98, 0.2925, 1.0775, 0.3925, 1.175, 0.49, 1.2725, 0.5875, 1.3725, 0.685],
  "SoftwareVersions": "syngo_MR_E11",
  "SpacingBetweenSlices": 2,
  "StationName": "MRC35049",
  "TaskName": "s05e03a",
  "TotalReadoutTime": 0.0576811,
  "TxRefAmp": 217.056,
  "WipMemBlock": "2ccaaa44-0504-435c-8b6d-98fbb3a7d41e||Sequence: R016 ve11c/master r/e634e98; Dec 19 2017 11:00:25 by eja",
  "dcmmeta_affine": [
    [-1.9972153902053833, 0.09278895705938339, -0.05021008104085922, 98.42011260986328],
    [0.10465670377016068, 1.8627536296844482, -0.7205525040626526, -77.51634216308594],
    [-0.01333484798669815, 0.7221766710281372, 1.8650156259536743, -74.14096069335938],
    [0.0, 0.0, 0.0, 1.0]
],
  "dcmmeta_reorient_transform": [
    [0.0, -1.0, 0.0, 103.0],
    [1.0, 0.0, 0.0, 0.0],
    [0.0, 0.0, 1.0, 0.0],
    [0.0, 0.0, 0.0, 1.0]
],
  "dcmmeta_shape": [104, 104, 60, 444],
  "dcmmeta_slice_dim": 2,
  "dcmmeta_version": 0.6,
  "global": {
    "const": {
      "AcquisitionMatrix": [104, 0, 0, 104],
      "AngioFlag": "N",
      "BitsAllocated": 16,
      "BitsStored": 16,
      "BodyPartExamined": "BRAIN",
      "Columns": 832,
      "EchoNumbers": 1,
      "EchoTime": 37.0,
      "EchoTrainLength": 104,
      "FlipAngle": 52.0,
      "HighBit": 15,
      "ImageOrientationPatient": [0.99860767531372, -0.0523283504726, -0.0066674238909, 0.04639447963123, 0.93137681500773, -0.3610883281495],
      "ImagePositionPatient": [-868.73894692354, -754.29456722897, 267.96942113461],
      "ImageType": [
        "ORIGINAL",
        "PRIMARY",
        "M",
        "MB",
        "ND",
        "MOSAIC"
],
      "ImagedNucleus": "1H",
      "ImagingFrequency": 123.258997,
      "InPlanePhaseEncodingDirection": "COL",
      "MRAcquisitionType": "2D",
      "MagneticFieldStrength": 3.0,
      "Manufacturer": "SIEMENS",
      "ManufacturerModelName": "Prisma_fit",
      "Modality": "MR",
      "NumberOfAverages": 1.0,
      "NumberOfPhaseEncodingSteps": 104,
      "PercentPhaseFieldOfView": 100.0,
      "PercentSampling": 100.0,
      "PerformedProcedureStepStartTime": "145740.307000",
      "PhotometricInterpretation": "MONOCHROME2",
      "PixelBandwidth": 2290.0,
      "PixelRepresentation": 0,
      "PixelSpacing": [2.0, 2.0],
      "ProtocolName": "func_task-friends-s05e03a",
      "RepetitionTime": 1490.0,
      "Rows": 832,
      "SAR": 0.02886089964718,
      "SamplesPerPixel": 1,
      "ScanOptions": "FS",
      "ScanningSequence": "EP",
      "SequenceName": "epfid2d1_104",
      "SequenceVariant": [
        "SK",
        "SS"
],
      "SeriesDescription": "func_task-friends-s05e03a",
      "SeriesNumber": 17,
      "SeriesTime": "161304.167000",
      "SliceLocation": -43.680569594501,
      "SliceThickness": 2.0,
      "SmallestImagePixelValue": 0,
      "SoftwareVersions": "syngo MR E11",
      "SpacingBetweenSlices": 2.0000000200746,
      "SpecificCharacterSet": "ISO_IR 100",
      "StudyID": "1",
      "StudyTime": "145740.208000",
      "TransmitCoilName": "Body",
      "VariableFlipAngleFlag": "N",
      "WindowCenterWidthExplanation": "Algo1",
      "dBdt": 0.0},
    "slices": {}
  },
  "time": {
    "samples": {
      "AcquisitionNumber": [1, 2, 3, 4, 5, 6, 7, 8, 9, 10, 11, 12, 13, 14, 15, 16, 17, 18, 19, 20, 21, 22, 23, 24, 25, 26, 27, 28, 29, 30, 31, 32, 33, 34, 35, 36, 37, 38, 39, 40, 41, 42, 43, 44, 45, 46, 47, 48, 49, 50, 51, 52, 53, 54, 55, 56, 57, 58, 59, 60, 61, 62, 63, 64, 65, 66, 67, 68, 69, 70, 71, 72, 73, 74, 75, 76, 77, 78, 79, 80, 81, 82, 83, 84, 85, 86, 87, 88, 89, 90, 91, 92, 93, 94, 95, 96, 97, 98, 99, 100, 101, 102, 103, 104, 105, 106, 107, 108, 109, 110, 111, 112, 113, 114, 115, 116, 117, 118, 119, 120, 121, 122, 123, 124, 125, 126, 127, 128, 129, 130, 131, 132, 133, 134, 135, 136, 137, 138, 139, 140, 141, 142, 143, 144, 145, 146, 147, 148, 149, 150, 151, 152, 153, 154, 155, 156, 157, 158, 159, 160, 161, 162, 163, 164, 165, 166, 167, 168, 169, 170, 171, 172, 173, 174, 175, 176, 177, 178, 179, 180, 181, 182, 183, 184, 185, 186, 187, 188, 189, 190, 191, 192, 193, 194, 195, 196, 197, 198, 199, 200, 201, 202, 203, 204, 205, 206, 207, 208, 209, 210, 211, 212, 213, 214, 215, 216, 217, 218, 219, 220, 221, 222, 223, 224, 225, 226, 227, 228, 229, 230, 231, 232, 233, 234, 235, 236, 237, 238, 239, 240, 241, 242, 243, 244, 245, 246, 247, 248, 249, 250, 251, 252, 253, 254, 255, 256, 257, 258, 259, 260, 261, 262, 263, 264, 265, 266, 267, 268, 269, 270, 271, 272, 273, 274, 275, 276, 277, 278, 279, 280, 281, 282, 283, 284, 285, 286, 287, 288, 289, 290, 291, 292, 293, 294, 295, 296, 297, 298, 299, 300, 301, 302, 303, 304, 305, 306, 307, 308, 309, 310, 311, 312, 313, 314, 315, 316, 317, 318, 319, 320, 321, 322, 323, 324, 325, 326, 327, 328, 329, 330, 331, 332, 333, 334, 335, 336, 337, 338, 339, 340, 341, 342, 343, 344, 345, 346, 347, 348, 349, 350, 351, 352, 353, 354, 355, 356, 357, 358, 359, 360, 361, 362, 363, 364, 365, 366, 367, 368, 369, 370, 371, 372, 373, 374, 375, 376, 377, 378, 379, 380, 381, 382, 383, 384, 385, 386, 387, 388, 389, 390, 391, 392, 393, 394, 395, 396, 397, 398, 399, 400, 401, 402, 403, 404, 405, 406, 407, 408, 409, 410, 411, 412, 413, 414, 415, 416, 417, 418, 419, 420, 421, 422, 423, 424, 425, 426, 427, 428, 429, 430, 431, 432, 433, 434, 435, 436, 437, 438, 439, 440, 441, 442, 443, 444],
      "AcquisitionTime": ["161147.397500", "161148.887500", "161150.377500", "161151.867500", "161153.357500", "161154.847500", "161156.337500", "161157.827500", "161159.317500", "161200.807500", "161202.297500", "161203.787500", "161205.277500", "161206.767500", "161208.257500", "161209.747500", "161211.237500", "161212.727500", "161214.217500", "161215.707500", "161217.197500", "161218.687500", "161220.177500", "161221.667500", "161223.157500", "161224.647500", "161226.137500", "161227.627500", "161229.117500", "161230.607500", "161232.097500", "161233.587500", "161235.077500", "161236.567500", "161238.057500", "161239.547500", "161241.037500", "161242.527500", "161244.017500", "161245.507500", "161246.997500", "161248.487500", "161249.977500", "161251.467500", "161252.957500", "161254.447500", "161255.937500", "161257.427500", "161258.917500", "161300.407500", "161301.897500", "161303.387500", "161304.877500", "161306.367500", "161307.857500", "161309.347500", "161310.837500", "161312.327500", "161313.817500", "161315.307500", "161316.797500", "161318.287500", "161319.777500", "161321.267500", "161322.757500", "161324.247500", "161325.737500", "161327.227500", "161328.717500", "161330.207500", "161331.697500", "161333.187500", "161334.677500", "161336.167500", "161337.657500", "161339.147500", "161340.637500", "161342.127500", "161343.617500", "161345.107500", "161346.597500", "161348.087500", "161349.577500", "161351.067500", "161352.557500", "161354.047500", "161355.537500", "161357.027500", "161358.517500", "161400.007500", "161401.497500", "161402.987500", "161404.477500", "161405.967500", "161407.457500", "161408.947500", "161410.437500", "161411.927500", "161413.417500", "161414.907500", "161416.397500", "161417.887500", "161419.377500", "161420.867500", "161422.357500", "161423.847500", "161425.337500", "161426.827500", "161428.317500", "161429.807500", "161431.297500", "161432.787500", "161434.277500", "161435.767500", "161437.257500", "161438.747500", "161440.237500", "161441.727500", "161443.217500", "161444.707500", "161446.197500", "161447.687500", "161449.177500", "161450.667500", "161452.157500", "161453.647500", "161455.137500", "161456.627500", "161458.117500", "161459.607500", "161501.097500", "161502.587500", "161504.077500", "161505.567500", "161507.057500", "161508.547500", "161510.037500", "161511.527500", "161513.017500", "161514.507500", "161515.997500", "161517.487500", "161518.977500", "161520.467500", "161521.957500", "161523.447500", "161524.937500", "161526.427500", "161527.917500", "161529.407500", "161530.897500", "161532.387500", "161533.877500", "161535.367500", "161536.857500", "161538.347500", "161539.837500", "161541.327500", "161542.817500", "161544.307500", "161545.797500", "161547.287500", "161548.777500", "161550.267500", "161551.757500", "161553.247500", "161554.737500", "161556.227500", "161557.717500", "161559.207500", "161600.697500", "161602.187500", "161603.677500", "161605.167500", "161606.657500", "161608.147500", "161609.637500", "161611.127500", "161612.617500", "161614.107500", "161615.597500", "161617.087500", "161618.577500", "161620.067500", "161621.557500", "161623.047500", "161624.537500", "161626.027500", "161627.517500", "161629.007500", "161630.497500", "161631.987500", "161633.477500", "161634.967500", "161636.457500", "161637.947500", "161639.437500", "161640.927500", "161642.417500", "161643.907500", "161645.397500", "161646.887500", "161648.377500", "161649.867500", "161651.357500", "161652.847500", "161654.337500", "161655.827500", "161657.317500", "161658.807500", "161700.297500", "161701.787500", "161703.277500", "161704.767500", "161706.257500", "161707.747500", "161709.237500", "161710.727500", "161712.217500", "161713.707500", "161715.197500", "161716.687500", "161718.177500", "161719.667500", "161721.157500", "161722.647500", "161724.137500", "161725.627500", "161727.117500", "161728.607500", "161730.097500", "161731.587500", "161733.077500", "161734.567500", "161736.057500", "161737.547500", "161739.037500", "161740.527500", "161742.017500", "161743.507500", "161744.997500", "161746.487500", "161747.977500", "161749.467500", "161750.957500", "161752.447500", "161753.937500", "161755.427500", "161756.917500", "161758.407500", "161759.897500", "161801.387500", "161802.877500", "161804.367500", "161805.857500", "161807.347500", "161808.837500", "161810.327500", "161811.817500", "161813.307500", "161814.797500", "161816.287500", "161817.777500", "161819.267500", "161820.757500", "161822.247500", "161823.737500", "161825.227500", "161826.717500", "161828.207500", "161829.697500", "161831.187500", "161832.677500", "161834.167500", "161835.657500", "161837.147500", "161838.637500", "161840.127500", "161841.617500", "161843.107500", "161844.597500", "161846.087500", "161847.577500", "161849.067500", "161850.557500", "161852.047500", "161853.537500", "161855.027500", "161856.517500", "161858.007500", "161859.497500", "161900.987500", "161902.477500", "161903.967500", "161905.457500", "161906.947500", "161908.437500", "161909.927500", "161911.417500", "161912.907500", "161914.397500", "161915.887500", "161917.377500", "161918.867500", "161920.357500", "161921.847500", "161923.337500", "161924.827500", "161926.317500", "161927.807500", "161929.297500", "161930.787500", "161932.277500", "161933.767500", "161935.257500", "161936.747500", "161938.237500", "161939.727500", "161941.217500", "161942.707500", "161944.197500", "161945.687500", "161947.177500", "161948.667500", "161950.157500", "161951.647500", "161953.137500", "161954.627500", "161956.117500", "161957.607500", "161959.097500", "162000.587500", "162002.077500", "162003.567500", "162005.057500", "162006.547500", "162008.037500", "162009.527500", "162011.017500", "162012.507500", "162013.997500", "162015.487500", "162016.977500", "162018.467500", "162019.957500", "162021.447500", "162022.937500", "162024.427500", "162025.917500", "162027.407500", "162028.897500", "162030.387500", "162031.877500", "162033.367500", "162034.857500", "162036.347500", "162037.837500", "162039.327500", "162040.817500", "162042.307500", "162043.797500", "162045.287500", "162046.777500", "162048.267500", "162049.757500", "162051.247500", "162052.737500", "162054.227500", "162055.717500", "162057.207500", "162058.697500", "162100.187500", "162101.677500", "162103.167500", "162104.657500", "162106.147500", "162107.637500", "162109.127500", "162110.617500", "162112.107500", "162113.597500", "162115.087500", "162116.577500", "162118.067500", "162119.557500", "162121.047500", "162122.537500", "162124.027500", "162125.517500", "162127.007500", "162128.497500", "162129.987500", "162131.477500", "162132.967500", "162134.457500", "162135.947500", "162137.437500", "162138.927500", "162140.417500", "162141.907500", "162143.397500", "162144.887500", "162146.377500", "162147.867500", "162149.357500", "162150.847500", "162152.337500", "162153.827500", "162155.317500", "162156.807500", "162158.297500", "162159.787500", "162201.277500", "162202.767500", "162204.257500", "162205.747500", "162207.237500", "162208.727500", "162210.217500", "162211.707500", "162213.197500", "162214.687500", "162216.177500", "162217.667500", "162219.157500", "162220.647500", "162222.137500", "162223.627500", "162225.117500", "162226.607500", "162228.097500", "162229.587500", "162231.077500", "162232.567500", "162234.057500", "162235.547500", "162237.037500", "162238.527500", "162240.017500", "162241.507500", "162242.997500", "162244.487500", "162245.977500", "162247.467500"],
      "ContentTime": ["161304.169000", "161304.180000", "161304.184000", "161304.187000", "161304.190000", "161304.193000", "161304.195000", "161304.198000", "161304.201000", "161304.209000", "161304.211000", "161304.215000", "161304.229000", "161304.232000", "161304.235000", "161304.238000", "161304.241000", "161304.243000", "161304.246000", "161304.249000", "161304.252000", "161324.134000", "161324.137000", "161324.140000", "161324.143000", "161324.145000", "161324.148000", "161324.151000", "161324.154000", "161324.157000", "161324.159000", "161324.162000", "161324.165000", "161324.168000", "161324.171000", "161324.174000", "161324.177000", "161324.180000", "161324.183000", "161324.185000", "161324.188000", "161324.191000", "161344.134000", "161344.137000", "161344.140000", "161344.143000", "161344.145000", "161344.148000", "161344.151000", "161344.154000", "161344.157000", "161344.160000", "161344.163000", "161344.165000", "161344.168000", "161344.171000", "161344.174000", "161344.177000", "161344.180000", "161344.182000", "161344.185000", "161344.188000", "161404.134000", "161404.137000", "161404.140000", "161404.142000", "161404.145000", "161404.148000", "161404.151000", "161404.154000", "161404.157000", "161404.159000", "161404.162000", "161404.165000", "161404.168000", "161404.171000", "161404.173000", "161404.176000", "161404.179000", "161404.182000", "161404.185000", "161404.188000", "161424.134000", "161424.137000", "161424.140000", "161424.142000", "161424.145000", "161424.148000", "161424.151000", "161424.154000", "161424.157000", "161424.159000", "161424.162000", "161424.165000", "161424.168000", "161424.171000", "161424.173000", "161424.176000", "161424.179000", "161424.182000", "161424.185000", "161424.188000", "161504.134000", "161504.137000", "161504.140000", "161504.143000", "161504.146000", "161504.149000", "161504.151000", "161504.154000", "161504.157000", "161504.160000", "161504.163000", "161504.165000", "161504.168000", "161504.171000", "161504.187000", "161504.190000", "161504.193000", "161504.195000", "161504.198000", "161504.201000", "161504.204000", "161504.207000", "161504.209000", "161504.212000", "161504.215000", "161504.218000", "161504.221000", "161504.224000", "161504.226000", "161544.134000", "161544.137000", "161544.140000", "161544.143000", "161544.145000", "161544.148000", "161544.151000", "161544.154000", "161544.157000", "161544.160000", "161544.162000", "161544.165000", "161544.168000", "161544.171000", "161544.174000", "161544.177000", "161544.180000", "161544.182000", "161544.185000", "161544.188000", "161544.191000", "161544.194000", "161544.197000", "161544.200000", "161544.209000", "161544.212000", "161544.215000", "161624.134000", "161624.137000", "161624.140000", "161624.143000", "161624.145000", "161624.148000", "161624.151000", "161624.154000", "161624.157000", "161624.160000", "161624.162000", "161624.165000", "161624.168000", "161624.171000", "161624.174000", "161624.177000", "161624.179000", "161624.182000", "161624.185000", "161624.188000", "161624.191000", "161624.194000", "161624.197000", "161624.199000", "161624.202000", "161624.205000", "161624.208000", "161704.134000", "161704.137000", "161704.140000", "161704.143000", "161704.146000", "161704.148000", "161704.151000", "161704.154000", "161704.157000", "161704.160000", "161704.163000", "161704.166000", "161704.169000", "161704.172000", "161704.174000", "161704.177000", "161704.180000", "161704.183000", "161704.186000", "161704.198000", "161704.201000", "161704.204000", "161704.207000", "161704.211000", "161704.213000", "161704.216000", "161744.134000", "161744.137000", "161744.140000", "161744.143000", "161744.146000", "161744.148000", "161744.151000", "161744.154000", "161744.157000", "161744.160000", "161744.163000", "161744.166000", "161744.168000", "161744.171000", "161744.174000", "161744.184000", "161744.187000", "161744.190000", "161744.193000", "161744.196000", "161744.199000", "161744.201000", "161744.204000", "161744.207000", "161744.210000", "161744.213000", "161744.216000", "161824.134000", "161824.137000", "161824.140000", "161824.143000", "161824.146000", "161824.154000", "161824.156000", "161824.159000", "161824.162000", "161824.165000", "161824.168000", "161824.171000", "161824.174000", "161824.177000", "161824.179000", "161824.182000", "161824.185000", "161824.188000", "161824.191000", "161824.194000", "161824.196000", "161824.199000", "161824.202000", "161824.205000", "161824.208000", "161824.211000", "161824.214000", "161904.134000", "161904.137000", "161904.140000", "161904.143000", "161904.146000", "161904.148000", "161904.151000", "161904.154000", "161904.157000", "161904.160000", "161904.163000", "161904.165000", "161904.168000", "161904.171000", "161904.174000", "161904.177000", "161904.180000", "161904.183000", "161904.185000", "161904.188000", "161904.191000", "161904.194000", "161904.197000", "161904.200000", "161904.203000", "161904.206000", "161904.208000", "161944.134000", "161944.137000", "161944.140000", "161944.143000", "161944.145000", "161944.148000", "161944.151000", "161944.154000", "161944.157000", "161944.160000", "161944.163000", "161944.166000", "161944.168000", "161944.171000", "161944.174000", "161944.177000", "161944.180000", "161944.183000", "161944.186000", "161944.188000", "161944.191000", "161944.210000", "161944.213000", "161944.216000", "161944.218000", "161944.221000", "161944.224000", "162024.134000", "162024.137000", "162024.140000", "162024.143000", "162024.146000", "162024.149000", "162024.151000", "162024.154000", "162024.157000", "162024.160000", "162024.163000", "162024.166000", "162024.169000", "162024.172000", "162024.174000", "162024.177000", "162024.180000", "162024.183000", "162024.186000", "162024.189000", "162024.192000", "162024.194000", "162024.197000", "162024.200000", "162024.203000", "162024.206000", "162024.209000", "162104.134000", "162104.137000", "162104.140000", "162104.143000", "162104.146000", "162104.149000", "162104.152000", "162104.155000", "162104.158000", "162104.161000", "162104.164000", "162104.167000", "162104.170000", "162104.174000", "162104.177000", "162104.180000", "162104.183000", "162104.186000", "162104.189000", "162104.192000", "162104.195000", "162104.198000", "162104.201000", "162104.203000", "162104.206000", "162104.209000", "162104.212000", "162144.134000", "162144.137000", "162144.140000", "162144.143000", "162144.145000", "162144.148000", "162144.151000", "162144.154000", "162144.157000", "162144.160000", "162144.163000", "162144.166000", "162144.168000", "162144.171000", "162144.174000", "162144.177000", "162144.180000", "162144.184000", "162144.187000", "162144.190000", "162144.193000", "162144.196000", "162144.199000", "162144.201000", "162144.204000", "162144.207000", "162224.134000", "162224.137000", "162224.140000", "162224.143000", "162224.146000", "162224.149000", "162224.151000", "162224.154000", "162224.157000", "162224.160000", "162224.163000", "162224.166000", "162224.169000", "162224.171000", "162224.174000", "162224.177000", "162224.180000", "162224.183000", "162224.186000", "162224.188000", "162224.191000", "162224.194000", "162224.197000", "162224.200000", "162224.203000", "162224.206000", "162224.208000", "162249.944000", "162249.948000", "162249.950000", "162249.953000", "162249.956000", "162249.959000", "162249.962000", "162249.965000", "162249.968000", "162249.971000", "162249.974000", "162249.977000", "162249.980000", "162249.983000", "162249.986000", "162249.989000", "162249.992000", "162249.995000"],
