{
  "AcquisitionMatrixPE": 104,
  "AcquisitionNumber": 1,
  "AcquisitionTime": "15:58:1.645000",
  "BandwidthPerPixelPhaseEncode": 17.17,
  "BaseResolution": 104,
  "BodyPartExamined": "BRAIN",
  "CoilString": "HC1-7;NC1_2",
  "ConsistencyInfo": "N4_VE11C_LATEST_20160120",
  "ConversionSoftware": "dcm2niix",
  "ConversionSoftwareVersion": "v1.0.20190902",
  "DerivedVendorReportedEchoSpacing": 0.000560011,
  "DeviceSerialNumber": "167006",
  "DwellTime": 2.1e-06,
  "EchoTime": 0.037,
  "EchoTrainLength": 104,
  "EffectiveEchoSpacing": 0.000560011,
  "FlipAngle": 52,
  "ImageComments": "Unaliased_MB4_PE3_LB",
  "ImageOrientationPatientDICOM": [0.998608, -0.0523284, -0.00666742, 0.0463945, 0.931377, -0.361088],
  "ImageType": [
    "ORIGINAL",
    "PRIMARY",
    "M",
    "MB",
    "ND",
    "MOSAIC"
],
  "ImagingFrequency": 123.259,
  "InPlanePhaseEncodingDirectionDICOM": "COL",
  "InstitutionAddress": "Chemin_Queen-Mary_4565_Montreal_District_CA_H3W_1W5",
  "InstitutionName": "IUGM",
  "InstitutionalDepartmentName": "Department",
  "MRAcquisitionType": "2D",
  "MagneticFieldStrength": 3,
  "Manufacturer": "Siemens",
  "ManufacturersModelName": "Prisma_fit",
  "Modality": "MR",
  "MultibandAccelerationFactor": 4,
  "PartialFourier": 1,
  "PatientPosition": "HFS",
  "PercentPhaseFOV": 100,
  "PhaseEncodingDirection": "j",
  "PhaseEncodingSteps": 104,
  "PhaseResolution": 1,
  "PixelBandwidth": 2290,
  "ProcedureStepDescription": "video_friends",
  "ProtocolName": "func_task-friends-s05e02b",
  "PulseSequenceDetails": "%CustomerSeq%_cmrr_mbep2d_bold",
  "ReceiveCoilActiveElements": "HC1-7;NC1,2",
  "ReceiveCoilName": "HeadNeck_64",
  "ReconMatrixPE": 104,
  "RepetitionTime": 1.49,
  "SAR": 0.028882,
  "ScanOptions": "FS",
  "ScanningSequence": "EP",
  "SequenceName": "epfid2d1_104",
  "SequenceVariant": "SK_SS",
  "SeriesDescription": "func_task-friends-s05e02b",
  "SeriesNumber": 15,
  "ShimSetting": [635, -7246, -8854, 617, 3, -227, -93, -13],
  "SliceThickness": 2,
  "SliceTiming": [0, 0.785, 0.1, 0.8825, 0.1975, 0.98, 0.295, 1.08, 0.3925, 1.1775, 0.49, 1.275, 0.59, 1.3725, 0.6875, 0, 0.785, 0.1, 0.8825, 0.1975, 0.98, 0.295, 1.08, 0.3925, 1.1775, 0.49, 1.275, 0.59, 1.3725, 0.6875, 0, 0.785, 0.1, 0.8825, 0.1975, 0.98, 0.295, 1.08, 0.3925, 1.1775, 0.49, 1.275, 0.59, 1.3725, 0.6875, 0, 0.785, 0.1, 0.8825, 0.1975, 0.98, 0.295, 1.08, 0.3925, 1.1775, 0.49, 1.275, 0.59, 1.3725, 0.6875],
  "SoftwareVersions": "syngo_MR_E11",
  "SpacingBetweenSlices": 2,
  "StationName": "MRC35049",
  "TaskName": "s05e02b",
  "TotalReadoutTime": 0.0576811,
  "TxRefAmp": 217.056,
  "WipMemBlock": "16411e58-6814-4e3f-af54-9d57e279573f||Sequence: R016 ve11c/master r/e634e98; Dec 19 2017 11:00:25 by eja",
  "dcmmeta_affine": [
    [-1.9972153902053833, 0.09278895705938339, -0.05021008104085922, 98.42011260986328],
    [0.10465670377016068, 1.8627536296844482, -0.7205525040626526, -77.51634216308594],
    [-0.01333484798669815, 0.7221766710281372, 1.8650156259536743, -74.14096069335938],
    [0.0, 0.0, 0.0, 1.0]
],
  "dcmmeta_reorient_transform": [
    [0.0, -1.0, 0.0, 103.0],
    [1.0, 0.0, 0.0, 0.0],
    [0.0, 0.0, 1.0, 0.0],
    [0.0, 0.0, 0.0, 1.0]
],
  "dcmmeta_shape": [104, 104, 60, 531],
  "dcmmeta_slice_dim": 2,
  "dcmmeta_version": 0.6,
  "global": {
    "const": {
      "AcquisitionMatrix": [104, 0, 0, 104],
      "AngioFlag": "N",
      "BitsAllocated": 16,
      "BitsStored": 16,
      "BodyPartExamined": "BRAIN",
      "Columns": 832,
      "EchoNumbers": 1,
      "EchoTime": 37.0,
      "EchoTrainLength": 104,
      "FlipAngle": 52.0,
      "HighBit": 15,
      "ImageOrientationPatient": [0.99860767531372, -0.0523283504726, -0.0066674238909, 0.04639447963123, 0.93137681500773, -0.3610883281495],
      "ImagePositionPatient": [-868.73894692354, -754.29456722897, 267.96942113461],
      "ImageType": [
        "ORIGINAL",
        "PRIMARY",
        "M",
        "MB",
        "ND",
        "MOSAIC"
],
      "ImagedNucleus": "1H",
      "ImagingFrequency": 123.258991,
      "InPlanePhaseEncodingDirection": "COL",
      "MRAcquisitionType": "2D",
      "MagneticFieldStrength": 3.0,
      "Manufacturer": "SIEMENS",
      "ManufacturerModelName": "Prisma_fit",
      "Modality": "MR",
      "NumberOfAverages": 1.0,
      "NumberOfPhaseEncodingSteps": 104,
      "PercentPhaseFieldOfView": 100.0,
      "PercentSampling": 100.0,
      "PerformedProcedureStepStartTime": "145740.307000",
      "PhotometricInterpretation": "MONOCHROME2",
      "PixelBandwidth": 2290.0,
      "PixelRepresentation": 0,
      "PixelSpacing": [2.0, 2.0],
      "ProtocolName": "func_task-friends-s05e02b",
      "RepetitionTime": 1490.0,
      "Rows": 832,
      "SAR": 0.02888196543212,
      "SamplesPerPixel": 1,
      "ScanOptions": "FS",
      "ScanningSequence": "EP",
      "SequenceName": "epfid2d1_104",
      "SequenceVariant": [
        "SK",
        "SS"
],
      "SeriesDescription": "func_task-friends-s05e02b",
      "SeriesNumber": 15,
      "SeriesTime": "155925.164000",
      "SliceLocation": -43.680569594501,
      "SliceThickness": 2.0,
      "SmallestImagePixelValue": 0,
      "SoftwareVersions": "syngo MR E11",
      "SpacingBetweenSlices": 2.0000000200746,
      "SpecificCharacterSet": "ISO_IR 100",
      "StudyID": "1",
      "StudyTime": "145740.208000",
      "TransmitCoilName": "Body",
      "VariableFlipAngleFlag": "N",
      "WindowCenterWidthExplanation": "Algo1",
      "dBdt": 0.0},
    "slices": {}
  },
  "time": {
    "samples": {
      "AcquisitionNumber": [1, 2, 3, 4, 5, 6, 7, 8, 9, 10, 11, 12, 13, 14, 15, 16, 17, 18, 19, 20, 21, 22, 23, 24, 25, 26, 27, 28, 29, 30, 31, 32, 33, 34, 35, 36, 37, 38, 39, 40, 41, 42, 43, 44, 45, 46, 47, 48, 49, 50, 51, 52, 53, 54, 55, 56, 57, 58, 59, 60, 61, 62, 63, 64, 65, 66, 67, 68, 69, 70, 71, 72, 73, 74, 75, 76, 77, 78, 79, 80, 81, 82, 83, 84, 85, 86, 87, 88, 89, 90, 91, 92, 93, 94, 95, 96, 97, 98, 99, 100, 101, 102, 103, 104, 105, 106, 107, 108, 109, 110, 111, 112, 113, 114, 115, 116, 117, 118, 119, 120, 121, 122, 123, 124, 125, 126, 127, 128, 129, 130, 131, 132, 133, 134, 135, 136, 137, 138, 139, 140, 141, 142, 143, 144, 145, 146, 147, 148, 149, 150, 151, 152, 153, 154, 155, 156, 157, 158, 159, 160, 161, 162, 163, 164, 165, 166, 167, 168, 169, 170, 171, 172, 173, 174, 175, 176, 177, 178, 179, 180, 181, 182, 183, 184, 185, 186, 187, 188, 189, 190, 191, 192, 193, 194, 195, 196, 197, 198, 199, 200, 201, 202, 203, 204, 205, 206, 207, 208, 209, 210, 211, 212, 213, 214, 215, 216, 217, 218, 219, 220, 221, 222, 223, 224, 225, 226, 227, 228, 229, 230, 231, 232, 233, 234, 235, 236, 237, 238, 239, 240, 241, 242, 243, 244, 245, 246, 247, 248, 249, 250, 251, 252, 253, 254, 255, 256, 257, 258, 259, 260, 261, 262, 263, 264, 265, 266, 267, 268, 269, 270, 271, 272, 273, 274, 275, 276, 277, 278, 279, 280, 281, 282, 283, 284, 285, 286, 287, 288, 289, 290, 291, 292, 293, 294, 295, 296, 297, 298, 299, 300, 301, 302, 303, 304, 305, 306, 307, 308, 309, 310, 311, 312, 313, 314, 315, 316, 317, 318, 319, 320, 321, 322, 323, 324, 325, 326, 327, 328, 329, 330, 331, 332, 333, 334, 335, 336, 337, 338, 339, 340, 341, 342, 343, 344, 345, 346, 347, 348, 349, 350, 351, 352, 353, 354, 355, 356, 357, 358, 359, 360, 361, 362, 363, 364, 365, 366, 367, 368, 369, 370, 371, 372, 373, 374, 375, 376, 377, 378, 379, 380, 381, 382, 383, 384, 385, 386, 387, 388, 389, 390, 391, 392, 393, 394, 395, 396, 397, 398, 399, 400, 401, 402, 403, 404, 405, 406, 407, 408, 409, 410, 411, 412, 413, 414, 415, 416, 417, 418, 419, 420, 421, 422, 423, 424, 425, 426, 427, 428, 429, 430, 431, 432, 433, 434, 435, 436, 437, 438, 439, 440, 441, 442, 443, 444, 445, 446, 447, 448, 449, 450, 451, 452, 453, 454, 455, 456, 457, 458, 459, 460, 461, 462, 463, 464, 465, 466, 467, 468, 469, 470, 471, 472, 473, 474, 475, 476, 477, 478, 479, 480, 481, 482, 483, 484, 485, 486, 487, 488, 489, 490, 491, 492, 493, 494, 495, 496, 497, 498, 499, 500, 501, 502, 503, 504, 505, 506, 507, 508, 509, 510, 511, 512, 513, 514, 515, 516, 517, 518, 519, 520, 521, 522, 523, 524, 525, 526, 527, 528, 529, 530, 531],
      "AcquisitionTime": ["155801.645000", "155803.135000", "155804.625000", "155806.115000", "155807.605000", "155809.095000", "155810.585000", "155812.075000", "155813.565000", "155815.055000", "155816.545000", "155818.035000", "155819.525000", "155821.015000", "155822.505000", "155823.995000", "155825.485000", "155826.975000", "155828.465000", "155829.955000", "155831.445000", "155832.935000", "155834.425000", "155835.915000", "155837.405000", "155838.895000", "155840.385000", "155841.875000", "155843.365000", "155844.855000", "155846.345000", "155847.835000", "155849.325000", "155850.815000", "155852.305000", "155853.795000", "155855.285000", "155856.775000", "155858.265000", "155859.755000", "155901.245000", "155902.735000", "155904.225000", "155905.715000", "155907.205000", "155908.695000", "155910.185000", "155911.675000", "155913.165000", "155914.655000", "155916.145000", "155917.635000", "155919.125000", "155920.615000", "155922.105000", "155923.595000", "155925.085000", "155926.575000", "155928.065000", "155929.555000", "155931.045000", "155932.535000", "155934.025000", "155935.515000", "155937.005000", "155938.495000", "155939.985000", "155941.475000", "155942.965000", "155944.455000", "155945.945000", "155947.435000", "155948.925000", "155950.415000", "155951.905000", "155953.395000", "155954.885000", "155956.375000", "155957.865000", "155959.355000", "160000.845000", "160002.335000", "160003.825000", "160005.315000", "160006.805000", "160008.295000", "160009.785000", "160011.275000", "160012.765000", "160014.255000", "160015.745000", "160017.235000", "160018.725000", "160020.215000", "160021.705000", "160023.195000", "160024.685000", "160026.175000", "160027.665000", "160029.155000", "160030.645000", "160032.135000", "160033.625000", "160035.115000", "160036.605000", "160038.095000", "160039.585000", "160041.075000", "160042.565000", "160044.055000", "160045.545000", "160047.035000", "160048.525000", "160050.015000", "160051.505000", "160052.995000", "160054.485000", "160055.975000", "160057.465000", "160058.955000", "160100.445000", "160101.935000", "160103.425000", "160104.915000", "160106.405000", "160107.895000", "160109.385000", "160110.875000", "160112.365000", "160113.855000", "160115.345000", "160116.835000", "160118.325000", "160119.815000", "160121.305000", "160122.795000", "160124.285000", "160125.775000", "160127.265000", "160128.755000", "160130.245000", "160131.735000", "160133.225000", "160134.715000", "160136.205000", "160137.695000", "160139.185000", "160140.675000", "160142.165000", "160143.655000", "160145.145000", "160146.635000", "160148.125000", "160149.615000", "160151.105000", "160152.595000", "160154.085000", "160155.575000", "160157.065000", "160158.555000", "160200.045000", "160201.535000", "160203.025000", "160204.515000", "160206.005000", "160207.495000", "160208.985000", "160210.475000", "160211.965000", "160213.455000", "160214.945000", "160216.435000", "160217.925000", "160219.415000", "160220.905000", "160222.395000", "160223.885000", "160225.375000", "160226.865000", "160228.355000", "160229.845000", "160231.335000", "160232.825000", "160234.315000", "160235.805000", "160237.295000", "160238.785000", "160240.275000", "160241.765000", "160243.255000", "160244.745000", "160246.235000", "160247.725000", "160249.215000", "160250.705000", "160252.195000", "160253.685000", "160255.175000", "160256.665000", "160258.155000", "160259.645000", "160301.135000", "160302.625000", "160304.115000", "160305.605000", "160307.095000", "160308.585000", "160310.075000", "160311.565000", "160313.055000", "160314.545000", "160316.035000", "160317.525000", "160319.015000", "160320.505000", "160321.995000", "160323.485000", "160324.975000", "160326.465000", "160327.955000", "160329.445000", "160330.935000", "160332.425000", "160333.915000", "160335.405000", "160336.895000", "160338.385000", "160339.875000", "160341.365000", "160342.855000", "160344.345000", "160345.835000", "160347.325000", "160348.815000", "160350.305000", "160351.795000", "160353.285000", "160354.775000", "160356.265000", "160357.755000", "160359.245000", "160400.735000", "160402.225000", "160403.715000", "160405.205000", "160406.695000", "160408.185000", "160409.675000", "160411.165000", "160412.655000", "160414.145000", "160415.635000", "160417.125000", "160418.615000", "160420.105000", "160421.595000", "160423.085000", "160424.575000", "160426.065000", "160427.555000", "160429.045000", "160430.535000", "160432.025000", "160433.515000", "160435.005000", "160436.495000", "160437.985000", "160439.475000", "160440.965000", "160442.455000", "160443.945000", "160445.435000", "160446.925000", "160448.415000", "160449.905000", "160451.395000", "160452.885000", "160454.375000", "160455.865000", "160457.355000", "160458.845000", "160500.335000", "160501.825000", "160503.315000", "160504.805000", "160506.295000", "160507.785000", "160509.275000", "160510.765000", "160512.255000", "160513.745000", "160515.235000", "160516.725000", "160518.215000", "160519.705000", "160521.195000", "160522.685000", "160524.175000", "160525.665000", "160527.155000", "160528.645000", "160530.135000", "160531.625000", "160533.115000", "160534.605000", "160536.095000", "160537.585000", "160539.075000", "160540.565000", "160542.055000", "160543.545000", "160545.035000", "160546.525000", "160548.015000", "160549.505000", "160550.995000", "160552.485000", "160553.975000", "160555.465000", "160556.955000", "160558.445000", "160559.935000", "160601.425000", "160602.915000", "160604.405000", "160605.895000", "160607.385000", "160608.875000", "160610.365000", "160611.855000", "160613.345000", "160614.835000", "160616.325000", "160617.815000", "160619.305000", "160620.795000", "160622.285000", "160623.775000", "160625.265000", "160626.755000", "160628.245000", "160629.735000", "160631.225000", "160632.715000", "160634.205000", "160635.695000", "160637.185000", "160638.675000", "160640.165000", "160641.655000", "160643.145000", "160644.635000", "160646.125000", "160647.615000", "160649.105000", "160650.595000", "160652.085000", "160653.575000", "160655.065000", "160656.555000", "160658.045000", "160659.535000", "160701.025000", "160702.515000", "160704.005000", "160705.495000", "160706.985000", "160708.475000", "160709.965000", "160711.455000", "160712.945000", "160714.435000", "160715.925000", "160717.415000", "160718.905000", "160720.395000", "160721.885000", "160723.375000", "160724.865000", "160726.355000", "160727.845000", "160729.335000", "160730.825000", "160732.315000", "160733.805000", "160735.295000", "160736.785000", "160738.275000", "160739.765000", "160741.255000", "160742.745000", "160744.235000", "160745.725000", "160747.215000", "160748.705000", "160750.195000", "160751.685000", "160753.175000", "160754.665000", "160756.155000", "160757.645000", "160759.135000", "160800.625000", "160802.115000", "160803.605000", "160805.095000", "160806.585000", "160808.075000", "160809.565000", "160811.055000", "160812.545000", "160814.035000", "160815.525000", "160817.015000", "160818.505000", "160819.995000", "160821.485000", "160822.975000", "160824.465000", "160825.955000", "160827.445000", "160828.935000", "160830.425000", "160831.915000", "160833.405000", "160834.895000", "160836.385000", "160837.875000", "160839.365000", "160840.855000", "160842.345000", "160843.835000", "160845.325000", "160846.815000", "160848.305000", "160849.795000", "160851.285000", "160852.775000", "160854.265000", "160855.755000", "160857.245000", "160858.735000", "160900.225000", "160901.715000", "160903.205000", "160904.695000", "160906.185000", "160907.675000", "160909.165000", "160910.655000", "160912.145000", "160913.635000", "160915.125000", "160916.615000", "160918.105000", "160919.595000", "160921.085000", "160922.575000", "160924.065000", "160925.555000", "160927.045000", "160928.535000", "160930.025000", "160931.515000", "160933.005000", "160934.495000", "160935.985000", "160937.475000", "160938.965000", "160940.455000", "160941.945000", "160943.435000", "160944.925000", "160946.415000", "160947.905000", "160949.395000", "160950.885000", "160952.375000", "160953.865000", "160955.355000", "160956.845000", "160958.335000", "160959.825000", "161001.315000", "161002.805000", "161004.295000", "161005.785000", "161007.275000", "161008.765000", "161010.255000", "161011.745000", "161013.235000", "161014.725000", "161016.215000", "161017.705000", "161019.195000", "161020.685000", "161022.175000", "161023.665000", "161025.155000", "161026.645000", "161028.135000", "161029.625000", "161031.115000", "161032.605000", "161034.095000", "161035.585000", "161037.075000", "161038.565000", "161040.055000", "161041.545000", "161043.035000", "161044.525000", "161046.015000", "161047.505000", "161048.995000", "161050.485000", "161051.975000", "161053.465000", "161054.955000", "161056.445000", "161057.935000", "161059.425000", "161100.915000", "161102.405000", "161103.895000", "161105.385000", "161106.875000", "161108.365000", "161109.855000", "161111.345000"],
      "ContentTime": ["155925.168000", "155925.171000", "155925.174000", "155925.177000", "155925.180000", "155925.183000", "155925.186000", "155925.189000", "155925.191000", "155925.194000", "155925.197000", "155925.200000", "155925.203000", "155925.206000", "155925.209000", "155925.211000", "155925.214000", "155925.217000", "155925.220000", "155925.223000", "155925.226000", "155925.228000", "155925.231000", "155925.234000", "155925.237000", "155925.240000", "155925.243000", "155925.246000", "155925.249000", "155925.260000", "155945.142000", "155945.145000", "155945.148000", "155945.150000", "155945.153000", "155945.156000", "155945.167000", "155945.170000", "155945.172000", "155945.175000", "155945.178000", "155945.181000", "155945.184000", "155945.187000", "155945.189000", "155945.192000", "155945.195000", "155945.198000", "155945.201000", "155945.204000", "160005.142000", "160005.145000", "160005.148000", "160005.151000", "160005.154000", "160005.156000", "160005.159000", "160005.162000", "160005.165000", "160005.168000", "160005.171000", "160005.173000", "160005.176000", "160005.179000", "160005.182000", "160005.185000", "160005.188000", "160005.190000", "160005.193000", "160005.196000", "160025.142000", "160025.145000", "160025.148000", "160025.151000", "160025.154000", "160025.157000", "160025.160000", "160025.163000", "160025.166000", "160025.169000", "160025.172000", "160025.175000", "160025.178000", "160025.181000", "160025.200000", "160025.203000", "160025.206000", "160025.208000", "160025.211000", "160025.214000", "160105.142000", "160105.145000", "160105.148000", "160105.151000", "160105.153000", "160105.156000", "160105.159000", "160105.162000", "160105.165000", "160105.168000", "160105.171000", "160105.173000", "160105.176000", "160105.179000", "160105.182000", "160105.185000", "160105.188000", "160105.191000", "160105.193000", "160105.196000", "160105.199000", "160105.202000", "160105.205000", "160105.207000", "160105.210000", "160105.213000", "160105.233000", "160105.236000", "160105.239000", "160105.242000", "160105.245000", "160105.247000", "160145.142000", "160145.145000", "160145.148000", "160145.151000", "160145.153000", "160145.156000", "160145.159000", "160145.162000", "160145.165000", "160145.168000", "160145.171000", "160145.173000", "160145.176000", "160145.179000", "160145.182000", "160145.185000", "160145.188000", "160145.190000", "160145.193000", "160145.196000", "160145.199000", "160145.202000", "160145.205000", "160145.208000", "160145.210000", "160145.213000", "160145.216000", "160225.142000", "160225.145000", "160225.148000", "160225.151000", "160225.154000", "160225.157000", "160225.159000", "160225.162000", "160225.165000", "160225.168000", "160225.171000", "160225.174000", "160225.176000", "160225.179000", "160225.182000", "160225.185000", "160225.188000", "160225.191000", "160225.194000", "160225.196000", "160225.199000", "160225.202000", "160225.205000", "160225.216000", "160225.218000", "160225.221000", "160225.224000", "160305.142000", "160305.145000", "160305.148000", "160305.151000", "160305.154000", "160305.157000", "160305.160000", "160305.163000", "160305.166000", "160305.169000", "160305.172000", "160305.175000", "160305.178000", "160305.180000", "160305.183000", "160305.186000", "160305.189000", "160305.192000", "160305.195000", "160305.198000", "160305.200000", "160305.203000", "160305.206000", "160305.209000", "160305.212000", "160305.215000", "160305.218000", "160345.142000", "160345.145000", "160345.148000", "160345.151000", "160345.153000", "160345.156000", "160345.159000", "160345.162000", "160345.165000", "160345.168000", "160345.171000", "160345.173000", "160345.176000", "160345.179000", "160345.182000", "160345.185000", "160345.188000", "160345.190000", "160345.193000", "160345.196000", "160345.199000", "160345.202000", "160345.205000", "160345.207000", "160345.212000", "160345.215000", "160425.142000", "160425.145000", "160425.148000", "160425.151000", "160425.154000", "160425.157000", "160425.159000", "160425.162000", "160425.165000", "160425.168000", "160425.171000", "160425.174000", "160425.177000", "160425.179000", "160425.182000", "160425.185000", "160425.188000", "160425.191000", "160425.194000", "160425.197000", "160425.199000", "160425.202000", "160425.205000", "160425.208000", "160425.211000", "160425.213000", "160425.216000", "160505.142000", "160505.145000", "160505.148000", "160505.151000", "160505.154000", "160505.157000", "160505.159000", "160505.162000", "160505.165000", "160505.168000", "160505.171000", "160505.174000", "160505.176000", "160505.179000", "160505.182000", "160505.185000", "160505.188000", "160505.191000", "160505.194000", "160505.196000", "160505.199000", "160505.202000", "160505.205000", "160505.208000", "160505.211000", "160505.213000", "160505.216000", "160545.142000", "160545.145000", "160545.148000", "160545.151000", "160545.154000", "160545.156000", "160545.159000", "160545.162000", "160545.165000", "160545.168000", "160545.171000", "160545.173000", "160545.176000", "160545.179000", "160545.182000", "160545.185000", "160545.188000", "160545.203000", "160545.206000", "160545.209000", "160545.212000", "160545.215000", "160545.218000", "160545.220000", "160545.223000", "160545.226000", "160545.229000", "160625.142000", "160625.145000", "160625.148000", "160625.151000", "160625.154000", "160625.157000", "160625.159000", "160625.162000", "160625.165000", "160625.168000", "160625.171000", "160625.174000", "160625.177000", "160625.186000", "160625.189000", "160625.192000", "160625.195000", "160625.198000", "160625.200000", "160625.203000", "160625.206000", "160625.209000", "160625.212000", "160625.215000", "160625.231000", "160625.234000", "160625.237000", "160705.142000", "160705.145000", "160705.148000", "160705.151000", "160705.154000", "160705.157000", "160705.160000", "160705.162000", "160705.165000", "160705.168000", "160705.171000", "160705.174000", "160705.177000", "160705.179000", "160705.182000", "160705.185000", "160705.188000", "160705.191000", "160705.194000", "160705.197000", "160705.200000", "160705.202000", "160705.205000", "160705.241000", "160705.244000", "160705.247000", "160705.250000", "160745.142000", "160745.145000", "160745.148000", "160745.151000", "160745.154000", "160745.157000", "160745.159000", "160745.162000", "160745.165000", "160745.168000", "160745.171000", "160745.174000", "160745.177000", "160745.179000", "160745.182000", "160745.185000", "160745.188000", "160745.191000", "160745.194000", "160745.197000", "160745.199000", "160745.202000", "160745.215000", "160745.218000", "160745.221000", "160745.224000", "160825.141000", "160825.144000", "160825.147000", "160825.150000", "160825.153000", "160825.156000", "160825.158000", "160825.161000", "160825.164000", "160825.167000", "160825.170000", "160825.173000", "160825.175000", "160825.188000", "160825.191000", "160825.194000", "160825.197000", "160825.199000", "160825.202000", "160825.205000", "160825.208000", "160825.211000", "160825.214000", "160825.217000", "160825.219000", "160825.222000", "160825.225000", "160905.142000", "160905.145000", "160905.148000", "160905.151000", "160905.154000", "160905.157000", "160905.159000", "160905.162000", "160905.165000", "160905.168000", "160905.171000", "160905.174000", "160905.187000", "160905.189000", "160905.192000", "160905.195000", "160905.198000", "160905.201000", "160905.204000", "160905.207000", "160905.210000", "160905.212000", "160905.215000", "160905.218000", "160905.221000", "160905.224000", "160905.227000", "160945.143000", "160945.146000", "160945.149000", "160945.152000", "160945.155000", "160945.158000", "160945.160000", "160945.163000", "160945.166000", "160945.169000", "160945.180000", "160945.183000", "160945.186000", "160945.189000", "160945.192000", "160945.195000", "160945.198000", "160945.201000", "160945.204000", "160945.207000", "160945.210000", "160945.212000", "160945.215000", "160945.218000", "160945.221000", "160945.224000", "160945.227000", "161025.142000", "161025.145000", "161025.148000", "161025.151000", "161025.154000", "161025.157000", "161025.159000", "161025.162000", "161025.165000", "161025.168000", "161025.171000", "161025.174000", "161025.177000", "161025.179000", "161025.182000", "161025.185000", "161025.188000", "161025.191000", "161025.194000", "161025.196000", "161025.199000", "161025.202000", "161025.205000", "161025.208000", "161025.211000", "161025.214000", "161025.216000", "161105.142000", "161105.145000", "161105.148000", "161105.151000", "161105.154000", "161105.156000", "161105.159000", "161105.162000", "161105.165000", "161105.168000", "161105.171000", "161105.174000", "161105.177000", "161105.179000", "161105.182000", "161105.185000", "161105.188000", "161105.191000", "161105.194000", "161105.197000", "161105.200000", "161105.202000", "161105.205000", "161105.208000", "161105.211000", "161105.214000", "161105.217000", "161113.879000", "161113.882000", "161113.885000", "161113.888000", "161113.891000", "161113.894000"],
