{
  "AcquisitionMatrixPE": 104,
  "AcquisitionNumber": 1,
  "AcquisitionTime": "17:39:21.220000",
  "BandwidthPerPixelPhaseEncode": 17.17,
  "BaseResolution": 104,
  "BodyPartExamined": "BRAIN",
  "CoilCombinationMethod": "Sum of Squares",
  "ConsistencyInfo": "N4_VE11C_LATEST_20160120",
  "ConversionSoftware": "dcm2niix",
  "ConversionSoftwareVersion": "v1.0.20220505",
  "DerivedVendorReportedEchoSpacing": 0.000560011,
  "DeviceSerialNumber": "167006",
  "DwellTime": 2.1e-06,
  "EchoTime": 0.037,
  "EchoTrainLength": 104,
  "EffectiveEchoSpacing": 0.000560011,
  "FlipAngle": 52,
  "HeudiconvVersion": "0.5.3.post811+g6206e14",
  "ImageComments": "Unaliased MB4/PE3/LB",
  "ImageOrientationPatientDICOM": [0.999682, -0.0241486, -0.00721328, 0.0197185, 0.927671, -0.372878],
  "ImageOrientationText": "Tra>Cor(-21.9)>Sag(-0.9)",
  "ImageType": [
    "ORIGINAL",
    "PRIMARY",
    "M",
    "MB",
    "ND",
    "MOSAIC"
],
  "ImagingFrequency": 123.259,
  "InPlanePhaseEncodingDirectionDICOM": "COL",
  "InstitutionAddress": "Chemin Queen-Mary 4565,Montreal,District,CA,H3W 1W5",
  "InstitutionName": "IUGM",
  "InstitutionalDepartmentName": "Department",
  "MRAcquisitionType": "2D",
  "MagneticFieldStrength": 3,
  "Manufacturer": "Siemens",
  "ManufacturersModelName": "Prisma_fit",
  "MatrixCoilMode": "SENSE",
  "Modality": "MR",
  "MultibandAccelerationFactor": 4,
  "PartialFourier": 1,
  "PatientPosition": "HFS",
  "PercentPhaseFOV": 100,
  "PercentSampling": 100,
  "PhaseEncodingDirection": "j",
  "PhaseEncodingSteps": 104,
  "PhaseResolution": 1,
  "PixelBandwidth": 2290,
  "ProcedureStepDescription": "video^friends",
  "ProtocolName": "func_task-friends-s06e07a",
  "PulseSequenceDetails": "%CustomerSeq%\\cmrr_mbep2d_bold",
  "ReceiveCoilActiveElements": "HC1-7;NC1,2",
  "ReceiveCoilName": "HeadNeck_64",
  "ReconMatrixPE": 104,
  "RepetitionTime": 1.49,
  "SAR": 0.0672305,
  "ScanOptions": "FS",
  "ScanningSequence": "EP",
  "SequenceName": "epfid2d1_104",
  "SequenceVariant": "SK\\SS",
  "SeriesDescription": "func_task-friends-s06e07a",
  "SeriesNumber": 10,
  "ShimSetting": [622, -7255, -8845, 389, 43, -393, -31, 14],
  "SliceThickness": 2,
  "SliceTiming": [0, 0.7825, 0.0975, 0.8825, 0.195, 0.98, 0.2925, 1.0775, 0.3925, 1.175, 0.49, 1.2725, 0.5875, 1.3725, 0.685, 0, 0.7825, 0.0975, 0.8825, 0.195, 0.98, 0.2925, 1.0775, 0.3925, 1.175, 0.49, 1.2725, 0.5875, 1.3725, 0.685, 0, 0.7825, 0.0975, 0.8825, 0.195, 0.98, 0.2925, 1.0775, 0.3925, 1.175, 0.49, 1.2725, 0.5875, 1.3725, 0.685, 0, 0.7825, 0.0975, 0.8825, 0.195, 0.98, 0.2925, 1.0775, 0.3925, 1.175, 0.49, 1.2725, 0.5875, 1.3725, 0.685],
  "SoftwareVersions": "syngo MR E11",
  "SpacingBetweenSlices": 2,
  "StationName": "MRC35049",
  "TaskName": "s06e07a",
  "TotalReadoutTime": 0.0576811,
  "TxRefAmp": 290.218,
  "WipMemBlock": "73ba470a-b778-4df1-a081-4d02a19a62c8||Sequence: R017 ve11c/master r/75a17815+; Jun 28 2022 16:32:11 by eja",
  "dcmmeta_affine": [
    [-1.9993647336959839, 0.039437007158994675, -0.03139200806617737, 97.90454864501953],
    [0.048297103494405746, 1.8553417921066284, -0.7452342510223389, -72.72027587890625],
    [-0.014426550827920437, 0.7457555532455444, 1.8557049036026, -71.13380432128906],
    [0.0, 0.0, 0.0, 1.0]
],
  "dcmmeta_reorient_transform": [
    [0.0, -1.0, 0.0, 103.0],
    [1.0, 0.0, 0.0, 0.0],
    [0.0, 0.0, 1.0, 0.0],
    [0.0, 0.0, 0.0, 1.0]
],
  "dcmmeta_shape": [104, 104, 60, 445],
  "dcmmeta_slice_dim": 2,
  "dcmmeta_version": 0.6,
  "global": {
    "const": {
      "AcquisitionMatrix": [104, 0, 0, 104],
      "AngioFlag": "N",
      "BitsAllocated": 16,
      "BitsStored": 16,
      "BodyPartExamined": "BRAIN",
      "Columns": 832,
      "EchoNumbers": 1,
      "EchoTime": 37.0,
      "EchoTrainLength": 104,
      "FlipAngle": 52.0,
      "HighBit": 15,
      "ImageOrientationPatient": [0.99968235759296, -0.0241485522858, -0.007213275254, 0.01971850297916, 0.9276709188637, -0.3728777908844],
      "ImagePositionPatient": [-844.09038427069, -776.14421754386, 282.38531841878],
      "ImageType": [
        "ORIGINAL",
        "PRIMARY",
        "M",
        "MB",
        "ND",
        "MOSAIC"
],
      "ImagedNucleus": "1H",
      "ImagingFrequency": 123.258794,
      "InPlanePhaseEncodingDirection": "COL",
      "MRAcquisitionType": "2D",
      "MagneticFieldStrength": 3.0,
      "Manufacturer": "SIEMENS",
      "ManufacturerModelName": "Prisma_fit",
      "Modality": "MR",
      "NumberOfAverages": 1.0,
      "NumberOfPhaseEncodingSteps": 104,
      "PercentPhaseFieldOfView": 100.0,
      "PercentSampling": 100.0,
      "PerformedProcedureStepStartTime": "173403.061000",
      "PhotometricInterpretation": "MONOCHROME2",
      "PixelBandwidth": 2290.0,
      "PixelRepresentation": 0,
      "PixelSpacing": [2.0, 2.0],
      "ProtocolName": "func_task-friends-s06e07a",
      "RepetitionTime": 1490.0,
      "Rows": 832,
      "SAR": 0.06723048481189,
      "SamplesPerPixel": 1,
      "ScanOptions": "FS",
      "ScanningSequence": "EP",
      "SequenceName": "epfid2d1_104",
      "SequenceVariant": [
        "SK",
        "SS"
],
      "SeriesDescription": "func_task-friends-s06e07a",
      "SeriesNumber": 10,
      "SeriesTime": "174015.082000",
      "SliceLocation": -40.441562594186,
      "SliceThickness": 2.0,
      "SmallestImagePixelValue": 0,
      "SoftwareVersions": "syngo MR E11",
      "SpacingBetweenSlices": 2.0000000298424,
      "SpecificCharacterSet": "ISO_IR 100",
      "StudyID": "1",
      "StudyTime": "173402.983000",
      "TransmitCoilName": "Body",
      "VariableFlipAngleFlag": "N",
      "WindowCenterWidthExplanation": "Algo1",
      "dBdt": 0.0},
    "slices": {}
  },
  "time": {
    "samples": {
      "AcquisitionNumber": [1, 2, 3, 4, 5, 6, 7, 8, 9, 10, 11, 12, 13, 14, 15, 16, 17, 18, 19, 20, 21, 22, 23, 24, 25, 26, 27, 28, 29, 30, 31, 32, 33, 34, 35, 36, 37, 38, 39, 40, 41, 42, 43, 44, 45, 46, 47, 48, 49, 50, 51, 52, 53, 54, 55, 56, 57, 58, 59, 60, 61, 62, 63, 64, 65, 66, 67, 68, 69, 70, 71, 72, 73, 74, 75, 76, 77, 78, 79, 80, 81, 82, 83, 84, 85, 86, 87, 88, 89, 90, 91, 92, 93, 94, 95, 96, 97, 98, 99, 100, 101, 102, 103, 104, 105, 106, 107, 108, 109, 110, 111, 112, 113, 114, 115, 116, 117, 118, 119, 120, 121, 122, 123, 124, 125, 126, 127, 128, 129, 130, 131, 132, 133, 134, 135, 136, 137, 138, 139, 140, 141, 142, 143, 144, 145, 146, 147, 148, 149, 150, 151, 152, 153, 154, 155, 156, 157, 158, 159, 160, 161, 162, 163, 164, 165, 166, 167, 168, 169, 170, 171, 172, 173, 174, 175, 176, 177, 178, 179, 180, 181, 182, 183, 184, 185, 186, 187, 188, 189, 190, 191, 192, 193, 194, 195, 196, 197, 198, 199, 200, 201, 202, 203, 204, 205, 206, 207, 208, 209, 210, 211, 212, 213, 214, 215, 216, 217, 218, 219, 220, 221, 222, 223, 224, 225, 226, 227, 228, 229, 230, 231, 232, 233, 234, 235, 236, 237, 238, 239, 240, 241, 242, 243, 244, 245, 246, 247, 248, 249, 250, 251, 252, 253, 254, 255, 256, 257, 258, 259, 260, 261, 262, 263, 264, 265, 266, 267, 268, 269, 270, 271, 272, 273, 274, 275, 276, 277, 278, 279, 280, 281, 282, 283, 284, 285, 286, 287, 288, 289, 290, 291, 292, 293, 294, 295, 296, 297, 298, 299, 300, 301, 302, 303, 304, 305, 306, 307, 308, 309, 310, 311, 312, 313, 314, 315, 316, 317, 318, 319, 320, 321, 322, 323, 324, 325, 326, 327, 328, 329, 330, 331, 332, 333, 334, 335, 336, 337, 338, 339, 340, 341, 342, 343, 344, 345, 346, 347, 348, 349, 350, 351, 352, 353, 354, 355, 356, 357, 358, 359, 360, 361, 362, 363, 364, 365, 366, 367, 368, 369, 370, 371, 372, 373, 374, 375, 376, 377, 378, 379, 380, 381, 382, 383, 384, 385, 386, 387, 388, 389, 390, 391, 392, 393, 394, 395, 396, 397, 398, 399, 400, 401, 402, 403, 404, 405, 406, 407, 408, 409, 410, 411, 412, 413, 414, 415, 416, 417, 418, 419, 420, 421, 422, 423, 424, 425, 426, 427, 428, 429, 430, 431, 432, 433, 434, 435, 436, 437, 438, 439, 440, 441, 442, 443, 444, 445],
      "AcquisitionTime": ["173921.220000", "173922.710000", "173924.200000", "173925.690000", "173927.180000", "173928.670000", "173930.160000", "173931.650000", "173933.140000", "173934.630000", "173936.120000", "173937.610000", "173939.100000", "173940.590000", "173942.080000", "173943.570000", "173945.060000", "173946.550000", "173948.040000", "173949.530000", "173951.020000", "173952.510000", "173954.000000", "173955.490000", "173956.980000", "173958.470000", "173959.960000", "174001.450000", "174002.940000", "174004.430000", "174005.920000", "174007.410000", "174008.900000", "174010.390000", "174011.880000", "174013.370000", "174014.860000", "174016.350000", "174017.840000", "174019.330000", "174020.820000", "174022.310000", "174023.800000", "174025.290000", "174026.780000", "174028.270000", "174029.760000", "174031.250000", "174032.740000", "174034.230000", "174035.720000", "174037.210000", "174038.700000", "174040.190000", "174041.680000", "174043.170000", "174044.660000", "174046.150000", "174047.640000", "174049.130000", "174050.620000", "174052.110000", "174053.600000", "174055.090000", "174056.580000", "174058.070000", "174059.560000", "174101.050000", "174102.540000", "174104.030000", "174105.520000", "174107.010000", "174108.500000", "174109.990000", "174111.480000", "174112.970000", "174114.460000", "174115.950000", "174117.440000", "174118.930000", "174120.420000", "174121.910000", "174123.400000", "174124.890000", "174126.380000", "174127.870000", "174129.360000", "174130.850000", "174132.340000", "174133.830000", "174135.320000", "174136.810000", "174138.300000", "174139.790000", "174141.280000", "174142.770000", "174144.260000", "174145.750000", "174147.240000", "174148.730000", "174150.220000", "174151.710000", "174153.200000", "174154.690000", "174156.180000", "174157.670000", "174159.160000", "174200.650000", "174202.140000", "174203.630000", "174205.120000", "174206.610000", "174208.100000", "174209.590000", "174211.080000", "174212.570000", "174214.060000", "174215.550000", "174217.040000", "174218.530000", "174220.020000", "174221.510000", "174223.000000", "174224.490000", "174225.980000", "174227.470000", "174228.960000", "174230.450000", "174231.940000", "174233.430000", "174234.920000", "174236.410000", "174237.900000", "174239.390000", "174240.880000", "174242.370000", "174243.860000", "174245.350000", "174246.840000", "174248.330000", "174249.820000", "174251.310000", "174252.800000", "174254.290000", "174255.780000", "174257.270000", "174258.760000", "174300.250000", "174301.740000", "174303.230000", "174304.720000", "174306.210000", "174307.700000", "174309.190000", "174310.680000", "174312.170000", "174313.660000", "174315.150000", "174316.640000", "174318.130000", "174319.620000", "174321.110000", "174322.600000", "174324.090000", "174325.580000", "174327.070000", "174328.560000", "174330.050000", "174331.540000", "174333.030000", "174334.520000", "174336.010000", "174337.500000", "174338.990000", "174340.480000", "174341.970000", "174343.460000", "174344.950000", "174346.440000", "174347.930000", "174349.420000", "174350.910000", "174352.400000", "174353.890000", "174355.380000", "174356.870000", "174358.360000", "174359.850000", "174401.340000", "174402.830000", "174404.320000", "174405.810000", "174407.300000", "174408.790000", "174410.280000", "174411.770000", "174413.260000", "174414.750000", "174416.240000", "174417.730000", "174419.220000", "174420.710000", "174422.200000", "174423.690000", "174425.180000", "174426.670000", "174428.160000", "174429.650000", "174431.140000", "174432.630000", "174434.120000", "174435.610000", "174437.100000", "174438.590000", "174440.080000", "174441.570000", "174443.060000", "174444.550000", "174446.040000", "174447.530000", "174449.020000", "174450.510000", "174452.000000", "174453.490000", "174454.980000", "174456.470000", "174457.960000", "174459.450000", "174500.940000", "174502.430000", "174503.920000", "174505.410000", "174506.900000", "174508.390000", "174509.880000", "174511.370000", "174512.860000", "174514.350000", "174515.840000", "174517.330000", "174518.820000", "174520.310000", "174521.800000", "174523.290000", "174524.780000", "174526.270000", "174527.760000", "174529.250000", "174530.740000", "174532.230000", "174533.720000", "174535.210000", "174536.700000", "174538.190000", "174539.680000", "174541.170000", "174542.660000", "174544.150000", "174545.640000", "174547.130000", "174548.620000", "174550.110000", "174551.600000", "174553.090000", "174554.580000", "174556.070000", "174557.560000", "174559.050000", "174600.540000", "174602.030000", "174603.520000", "174605.010000", "174606.500000", "174607.990000", "174609.480000", "174610.970000", "174612.460000", "174613.950000", "174615.440000", "174616.930000", "174618.420000", "174619.910000", "174621.400000", "174622.890000", "174624.380000", "174625.870000", "174627.360000", "174628.850000", "174630.340000", "174631.830000", "174633.320000", "174634.810000", "174636.300000", "174637.790000", "174639.280000", "174640.770000", "174642.260000", "174643.750000", "174645.240000", "174646.730000", "174648.220000", "174649.710000", "174651.200000", "174652.690000", "174654.180000", "174655.670000", "174657.160000", "174658.650000", "174700.140000", "174701.630000", "174703.120000", "174704.610000", "174706.100000", "174707.590000", "174709.080000", "174710.570000", "174712.060000", "174713.550000", "174715.040000", "174716.530000", "174718.020000", "174719.510000", "174721.000000", "174722.490000", "174723.980000", "174725.470000", "174726.960000", "174728.450000", "174729.940000", "174731.430000", "174732.920000", "174734.410000", "174735.900000", "174737.390000", "174738.880000", "174740.370000", "174741.860000", "174743.350000", "174744.840000", "174746.330000", "174747.820000", "174749.310000", "174750.800000", "174752.290000", "174753.780000", "174755.270000", "174756.760000", "174758.250000", "174759.740000", "174801.230000", "174802.720000", "174804.210000", "174805.700000", "174807.190000", "174808.680000", "174810.170000", "174811.660000", "174813.150000", "174814.640000", "174816.130000", "174817.620000", "174819.110000", "174820.600000", "174822.090000", "174823.580000", "174825.070000", "174826.560000", "174828.050000", "174829.540000", "174831.030000", "174832.520000", "174834.010000", "174835.500000", "174836.990000", "174838.480000", "174839.970000", "174841.460000", "174842.950000", "174844.440000", "174845.930000", "174847.420000", "174848.910000", "174850.400000", "174851.890000", "174853.380000", "174854.870000", "174856.360000", "174857.850000", "174859.340000", "174900.830000", "174902.320000", "174903.810000", "174905.300000", "174906.790000", "174908.280000", "174909.770000", "174911.260000", "174912.750000", "174914.240000", "174915.730000", "174917.220000", "174918.710000", "174920.200000", "174921.690000", "174923.180000", "174924.670000", "174926.160000", "174927.650000", "174929.140000", "174930.630000", "174932.120000", "174933.610000", "174935.100000", "174936.590000", "174938.080000", "174939.570000", "174941.060000", "174942.550000", "174944.040000", "174945.530000", "174947.020000", "174948.510000", "174950.000000", "174951.490000", "174952.980000", "174954.470000", "174955.960000", "174957.450000", "174958.940000", "175000.430000", "175001.920000", "175003.410000", "175004.900000", "175006.390000", "175007.880000", "175009.370000", "175010.860000", "175012.350000", "175013.840000", "175015.330000", "175016.820000", "175018.310000", "175019.800000", "175021.290000", "175022.780000"],
      "ContentTime": ["174015.084000", "174015.087000", "174015.090000", "174015.093000", "174015.096000", "174035.045000", "174035.058000", "174035.061000", "174035.064000", "174035.067000", "174035.069000", "174035.072000", "174035.075000", "174035.078000", "174035.081000", "174035.084000", "174035.087000", "174035.090000", "174035.092000", "174035.095000", "174035.098000", "174035.101000", "174035.104000", "174035.107000", "174035.110000", "174055.045000", "174055.048000", "174055.051000", "174055.054000", "174055.057000", "174055.059000", "174055.062000", "174055.065000", "174055.068000", "174055.071000", "174055.074000", "174055.077000", "174055.079000", "174055.082000", "174055.085000", "174055.088000", "174055.091000", "174055.094000", "174055.097000", "174055.100000", "174115.045000", "174115.048000", "174115.051000", "174115.054000", "174115.057000", "174115.060000", "174115.063000", "174115.066000", "174115.069000", "174115.071000", "174115.074000", "174115.077000", "174115.080000", "174115.095000", "174115.097000", "174115.100000", "174115.103000", "174115.106000", "174115.109000", "174115.112000", "174135.044000", "174135.047000", "174135.050000", "174135.053000", "174135.056000", "174135.058000", "174135.061000", "174135.064000", "174135.067000", "174135.070000", "174135.073000", "174135.076000", "174135.079000", "174135.081000", "174135.084000", "174135.087000", "174135.090000", "174135.093000", "174135.096000", "174135.099000", "174215.045000", "174215.048000", "174215.051000", "174215.054000", "174215.057000", "174215.060000", "174215.063000", "174215.066000", "174215.068000", "174215.071000", "174215.074000", "174215.077000", "174215.080000", "174215.083000", "174215.086000", "174215.089000", "174215.095000", "174215.098000", "174215.100000", "174215.103000", "174215.106000", "174215.109000", "174215.112000", "174215.115000", "174215.118000", "174215.121000", "174215.124000", "174215.127000", "174215.130000", "174215.132000", "174215.135000", "174255.045000", "174255.048000", "174255.051000", "174255.054000", "174255.057000", "174255.060000", "174255.063000", "174255.065000", "174255.068000", "174255.071000", "174255.074000", "174255.077000", "174255.080000", "174255.083000", "174255.085000", "174255.088000", "174255.091000", "174255.106000", "174255.109000", "174255.112000", "174255.115000", "174255.118000", "174255.121000", "174255.124000", "174255.127000", "174255.130000", "174255.133000", "174335.045000", "174335.048000", "174335.051000", "174335.054000", "174335.057000", "174335.060000", "174335.063000", "174335.066000", "174335.068000", "174335.072000", "174335.075000", "174335.078000", "174335.081000", "174335.083000", "174335.086000", "174335.089000", "174335.092000", "174335.095000", "174335.098000", "174335.101000", "174335.104000", "174335.107000", "174335.110000", "174335.113000", "174335.115000", "174335.118000", "174415.044000", "174415.047000", "174415.050000", "174415.053000", "174415.056000", "174415.059000", "174415.062000", "174415.064000", "174415.067000", "174415.070000", "174415.073000", "174415.076000", "174415.079000", "174415.082000", "174415.084000", "174415.087000", "174415.090000", "174415.093000", "174415.096000", "174415.099000", "174415.102000", "174415.105000", "174415.108000", "174415.111000", "174415.113000", "174415.116000", "174415.119000", "174455.045000", "174455.048000", "174455.051000", "174455.054000", "174455.057000", "174455.071000", "174455.074000", "174455.077000", "174455.080000", "174455.083000", "174455.085000", "174455.088000", "174455.091000", "174455.094000", "174455.097000", "174455.100000", "174455.103000", "174455.106000", "174455.109000", "174455.112000", "174455.115000", "174455.118000", "174455.120000", "174455.123000", "174455.126000", "174455.129000", "174455.132000", "174535.045000", "174535.048000", "174535.051000", "174535.054000", "174535.057000", "174535.060000", "174535.063000", "174535.066000", "174535.068000", "174535.071000", "174535.074000", "174535.077000", "174535.080000", "174535.083000", "174535.086000", "174535.089000", "174535.091000", "174535.094000", "174535.097000", "174535.100000", "174535.103000", "174535.106000", "174535.109000", "174535.112000", "174535.115000", "174535.118000", "174535.120000", "174615.044000", "174615.047000", "174615.050000", "174615.053000", "174615.056000", "174615.059000", "174615.062000", "174615.064000", "174615.067000", "174615.070000", "174615.073000", "174615.076000", "174615.079000", "174615.082000", "174615.085000", "174615.088000", "174615.091000", "174615.094000", "174615.096000", "174615.099000", "174615.102000", "174615.105000", "174615.108000", "174615.111000", "174615.114000", "174615.117000", "174615.120000", "174655.045000", "174655.048000", "174655.051000", "174655.054000", "174655.057000", "174655.060000", "174655.063000", "174655.065000", "174655.068000", "174655.071000", "174655.074000", "174655.077000", "174655.080000", "174655.083000", "174655.086000", "174655.088000", "174655.091000", "174655.094000", "174655.097000", "174655.100000", "174655.103000", "174655.106000", "174655.109000", "174655.112000", "174655.115000", "174655.118000", "174655.120000", "174735.045000", "174735.048000", "174735.051000", "174735.054000", "174735.057000", "174735.060000", "174735.063000", "174735.066000", "174735.068000", "174735.071000", "174735.074000", "174735.077000", "174735.080000", "174735.083000", "174735.086000", "174735.089000", "174735.092000", "174735.100000", "174735.103000", "174735.106000", "174735.109000", "174735.111000", "174735.114000", "174735.117000", "174735.120000", "174735.123000", "174735.126000", "174815.045000", "174815.048000", "174815.051000", "174815.054000", "174815.057000", "174815.060000", "174815.062000", "174815.065000", "174815.068000", "174815.072000", "174815.075000", "174815.078000", "174815.081000", "174815.084000", "174815.087000", "174815.090000", "174815.093000", "174815.096000", "174815.099000", "174815.102000", "174815.104000", "174815.107000", "174815.110000", "174815.113000", "174815.116000", "174815.119000", "174855.044000", "174855.047000", "174855.050000", "174855.053000", "174855.056000", "174855.059000", "174855.062000", "174855.065000", "174855.067000", "174855.070000", "174855.073000", "174855.076000", "174855.079000", "174855.082000", "174855.085000", "174855.088000", "174855.090000", "174855.093000", "174855.096000", "174855.099000", "174855.102000", "174855.105000", "174855.108000", "174855.111000", "174855.114000", "174855.117000", "174855.119000", "174915.045000", "174915.048000", "174915.051000", "174915.054000", "174915.057000", "174915.060000", "174915.063000", "174915.065000", "174915.068000", "174915.071000", "174915.074000", "174915.077000", "174915.080000", "174915.083000", "174955.045000", "174955.048000", "174955.051000", "174955.054000", "174955.057000", "174955.060000", "174955.063000", "174955.065000", "174955.068000", "174955.071000", "174955.074000", "174955.077000", "174955.080000", "174955.083000", "174955.086000", "174955.088000", "174955.091000", "174955.094000", "174955.097000", "174955.100000", "174955.103000", "174955.106000", "174955.109000", "174955.112000", "174955.115000", "174955.117000", "174955.120000", "175024.885000", "175024.888000", "175024.891000", "175024.894000", "175024.897000", "175024.900000", "175024.903000", "175024.906000", "175024.909000", "175024.912000", "175024.915000", "175024.918000", "175024.921000", "175024.924000", "175024.927000", "175024.930000", "175024.933000", "175024.936000", "175024.939000", "175024.942000"],
