{
  "AcquisitionMatrixPE": 104,
  "AcquisitionNumber": 1,
  "AcquisitionTime": "18:44:39.075000",
  "BandwidthPerPixelPhaseEncode": 17.17,
  "BaseResolution": 104,
  "BodyPartExamined": "BRAIN",
  "CoilCombinationMethod": "Sum of Squares",
  "ConsistencyInfo": "N4_VE11C_LATEST_20160120",
  "ConversionSoftware": "dcm2niix",
  "ConversionSoftwareVersion": "v1.0.20220505",
  "DerivedVendorReportedEchoSpacing": 0.000560011,
  "DeviceSerialNumber": "167006",
  "DwellTime": 2.1e-06,
  "EchoTime": 0.037,
  "EchoTrainLength": 104,
  "EffectiveEchoSpacing": 0.000560011,
  "FlipAngle": 52,
  "HeudiconvVersion": "0.5.3.post811+g6206e14",
  "ImageComments": "Unaliased MB4/PE3/LB",
  "ImageOrientationPatientDICOM": [0.999682, -0.0241486, -0.00721328, 0.0197185, 0.927671, -0.372878],
  "ImageOrientationText": "Tra>Cor(-21.9)>Sag(-0.9)",
  "ImageType": [
    "ORIGINAL",
    "PRIMARY",
    "M",
    "MB",
    "ND",
    "MOSAIC"
],
  "ImagingFrequency": 123.259,
  "InPlanePhaseEncodingDirectionDICOM": "COL",
  "InstitutionAddress": "Chemin Queen-Mary 4565,Montreal,District,CA,H3W 1W5",
  "InstitutionName": "IUGM",
  "InstitutionalDepartmentName": "Department",
  "MRAcquisitionType": "2D",
  "MagneticFieldStrength": 3,
  "Manufacturer": "Siemens",
  "ManufacturersModelName": "Prisma_fit",
  "MatrixCoilMode": "SENSE",
  "Modality": "MR",
  "MultibandAccelerationFactor": 4,
  "PartialFourier": 1,
  "PatientPosition": "HFS",
  "PercentPhaseFOV": 100,
  "PercentSampling": 100,
  "PhaseEncodingDirection": "j",
  "PhaseEncodingSteps": 104,
  "PhaseResolution": 1,
  "PixelBandwidth": 2290,
  "ProcedureStepDescription": "video^friends",
  "ProtocolName": "func_task-friends-s06e09b",
  "PulseSequenceDetails": "%CustomerSeq%\\cmrr_mbep2d_bold",
  "ReceiveCoilActiveElements": "HC1-7;NC1,2",
  "ReceiveCoilName": "HeadNeck_64",
  "ReconMatrixPE": 104,
  "RepetitionTime": 1.49,
  "SAR": 0.0672305,
  "ScanOptions": "FS",
  "ScanningSequence": "EP",
  "SequenceName": "epfid2d1_104",
  "SequenceVariant": "SK\\SS",
  "SeriesDescription": "func_task-friends-s06e09b",
  "SeriesNumber": 20,
  "ShimSetting": [622, -7255, -8845, 389, 43, -393, -31, 14],
  "SliceThickness": 2,
  "SliceTiming": [0, 0.785, 0.1, 0.8825, 0.1975, 0.98, 0.295, 1.08, 0.3925, 1.1775, 0.49, 1.275, 0.59, 1.3725, 0.6875, 0, 0.785, 0.1, 0.8825, 0.1975, 0.98, 0.295, 1.08, 0.3925, 1.1775, 0.49, 1.275, 0.59, 1.3725, 0.6875, 0, 0.785, 0.1, 0.8825, 0.1975, 0.98, 0.295, 1.08, 0.3925, 1.1775, 0.49, 1.275, 0.59, 1.3725, 0.6875, 0, 0.785, 0.1, 0.8825, 0.1975, 0.98, 0.295, 1.08, 0.3925, 1.1775, 0.49, 1.275, 0.59, 1.3725, 0.6875],
  "SoftwareVersions": "syngo MR E11",
  "SpacingBetweenSlices": 2,
  "StationName": "MRC35049",
  "TaskName": "s06e09b",
  "TotalReadoutTime": 0.0576811,
  "TxRefAmp": 290.218,
  "WipMemBlock": "ad781efd-cad4-45e4-9040-b5d47be9b342||Sequence: R017 ve11c/master r/75a17815+; Jun 28 2022 16:32:11 by eja",
  "dcmmeta_affine": [
    [-1.9993647336959839, 0.039437007158994675, -0.03139200806617737, 97.90454864501953],
    [0.048297103494405746, 1.8553417921066284, -0.7452342510223389, -72.72027587890625],
    [-0.014426550827920437, 0.7457555532455444, 1.8557049036026, -71.13380432128906],
    [0.0, 0.0, 0.0, 1.0]
],
  "dcmmeta_reorient_transform": [
    [0.0, -1.0, 0.0, 103.0],
    [1.0, 0.0, 0.0, 0.0],
    [0.0, 0.0, 1.0, 0.0],
    [0.0, 0.0, 0.0, 1.0]
],
  "dcmmeta_shape": [104, 104, 60, 537],
  "dcmmeta_slice_dim": 2,
  "dcmmeta_version": 0.6,
  "global": {
    "const": {
      "AcquisitionMatrix": [104, 0, 0, 104],
      "AngioFlag": "N",
      "BitsAllocated": 16,
      "BitsStored": 16,
      "BodyPartExamined": "BRAIN",
      "Columns": 832,
      "EchoNumbers": 1,
      "EchoTime": 37.0,
      "EchoTrainLength": 104,
      "FlipAngle": 52.0,
      "HighBit": 15,
      "ImageOrientationPatient": [0.99968235759296, -0.0241485522858, -0.007213275254, 0.01971850297916, 0.9276709188637, -0.3728777908844],
      "ImagePositionPatient": [-844.09038427069, -776.14421754386, 282.38531841878],
      "ImageType": [
        "ORIGINAL",
        "PRIMARY",
        "M",
        "MB",
        "ND",
        "MOSAIC"
],
      "ImagedNucleus": "1H",
      "ImagingFrequency": 123.258807,
      "InPlanePhaseEncodingDirection": "COL",
      "MRAcquisitionType": "2D",
      "MagneticFieldStrength": 3.0,
      "Manufacturer": "SIEMENS",
      "ManufacturerModelName": "Prisma_fit",
      "Modality": "MR",
      "NumberOfAverages": 1.0,
      "NumberOfPhaseEncodingSteps": 104,
      "PercentPhaseFieldOfView": 100.0,
      "PercentSampling": 100.0,
      "PerformedProcedureStepStartTime": "173403.061000",
      "PhotometricInterpretation": "MONOCHROME2",
      "PixelBandwidth": 2290.0,
      "PixelRepresentation": 0,
      "PixelSpacing": [2.0, 2.0],
      "ProtocolName": "func_task-friends-s06e09b",
      "RepetitionTime": 1490.0,
      "Rows": 832,
      "SAR": 0.06723049311472,
      "SamplesPerPixel": 1,
      "ScanOptions": "FS",
      "ScanningSequence": "EP",
      "SequenceName": "epfid2d1_104",
      "SequenceVariant": [
        "SK",
        "SS"
],
      "SeriesDescription": "func_task-friends-s06e09b",
      "SeriesNumber": 20,
      "SeriesTime": "184604.971000",
      "SliceLocation": -40.441562594186,
      "SliceThickness": 2.0,
      "SmallestImagePixelValue": 0,
      "SoftwareVersions": "syngo MR E11",
      "SpacingBetweenSlices": 2.0000000298424,
      "SpecificCharacterSet": "ISO_IR 100",
      "StudyID": "1",
      "StudyTime": "173402.983000",
      "TransmitCoilName": "Body",
      "VariableFlipAngleFlag": "N",
      "WindowCenterWidthExplanation": "Algo1",
      "dBdt": 0.0},
    "slices": {}
  },
  "time": {
    "samples": {
      "AcquisitionNumber": [1, 2, 3, 4, 5, 6, 7, 8, 9, 10, 11, 12, 13, 14, 15, 16, 17, 18, 19, 20, 21, 22, 23, 24, 25, 26, 27, 28, 29, 30, 31, 32, 33, 34, 35, 36, 37, 38, 39, 40, 41, 42, 43, 44, 45, 46, 47, 48, 49, 50, 51, 52, 53, 54, 55, 56, 57, 58, 59, 60, 61, 62, 63, 64, 65, 66, 67, 68, 69, 70, 71, 72, 73, 74, 75, 76, 77, 78, 79, 80, 81, 82, 83, 84, 85, 86, 87, 88, 89, 90, 91, 92, 93, 94, 95, 96, 97, 98, 99, 100, 101, 102, 103, 104, 105, 106, 107, 108, 109, 110, 111, 112, 113, 114, 115, 116, 117, 118, 119, 120, 121, 122, 123, 124, 125, 126, 127, 128, 129, 130, 131, 132, 133, 134, 135, 136, 137, 138, 139, 140, 141, 142, 143, 144, 145, 146, 147, 148, 149, 150, 151, 152, 153, 154, 155, 156, 157, 158, 159, 160, 161, 162, 163, 164, 165, 166, 167, 168, 169, 170, 171, 172, 173, 174, 175, 176, 177, 178, 179, 180, 181, 182, 183, 184, 185, 186, 187, 188, 189, 190, 191, 192, 193, 194, 195, 196, 197, 198, 199, 200, 201, 202, 203, 204, 205, 206, 207, 208, 209, 210, 211, 212, 213, 214, 215, 216, 217, 218, 219, 220, 221, 222, 223, 224, 225, 226, 227, 228, 229, 230, 231, 232, 233, 234, 235, 236, 237, 238, 239, 240, 241, 242, 243, 244, 245, 246, 247, 248, 249, 250, 251, 252, 253, 254, 255, 256, 257, 258, 259, 260, 261, 262, 263, 264, 265, 266, 267, 268, 269, 270, 271, 272, 273, 274, 275, 276, 277, 278, 279, 280, 281, 282, 283, 284, 285, 286, 287, 288, 289, 290, 291, 292, 293, 294, 295, 296, 297, 298, 299, 300, 301, 302, 303, 304, 305, 306, 307, 308, 309, 310, 311, 312, 313, 314, 315, 316, 317, 318, 319, 320, 321, 322, 323, 324, 325, 326, 327, 328, 329, 330, 331, 332, 333, 334, 335, 336, 337, 338, 339, 340, 341, 342, 343, 344, 345, 346, 347, 348, 349, 350, 351, 352, 353, 354, 355, 356, 357, 358, 359, 360, 361, 362, 363, 364, 365, 366, 367, 368, 369, 370, 371, 372, 373, 374, 375, 376, 377, 378, 379, 380, 381, 382, 383, 384, 385, 386, 387, 388, 389, 390, 391, 392, 393, 394, 395, 396, 397, 398, 399, 400, 401, 402, 403, 404, 405, 406, 407, 408, 409, 410, 411, 412, 413, 414, 415, 416, 417, 418, 419, 420, 421, 422, 423, 424, 425, 426, 427, 428, 429, 430, 431, 432, 433, 434, 435, 436, 437, 438, 439, 440, 441, 442, 443, 444, 445, 446, 447, 448, 449, 450, 451, 452, 453, 454, 455, 456, 457, 458, 459, 460, 461, 462, 463, 464, 465, 466, 467, 468, 469, 470, 471, 472, 473, 474, 475, 476, 477, 478, 479, 480, 481, 482, 483, 484, 485, 486, 487, 488, 489, 490, 491, 492, 493, 494, 495, 496, 497, 498, 499, 500, 501, 502, 503, 504, 505, 506, 507, 508, 509, 510, 511, 512, 513, 514, 515, 516, 517, 518, 519, 520, 521, 522, 523, 524, 525, 526, 527, 528, 529, 530, 531, 532, 533, 534, 535, 536, 537],
      "AcquisitionTime": ["184439.075000", "184440.565000", "184442.055000", "184443.545000", "184445.035000", "184446.525000", "184448.015000", "184449.505000", "184450.995000", "184452.485000", "184453.975000", "184455.465000", "184456.955000", "184458.445000", "184459.935000", "184501.425000", "184502.915000", "184504.405000", "184505.895000", "184507.385000", "184508.875000", "184510.365000", "184511.855000", "184513.345000", "184514.835000", "184516.325000", "184517.815000", "184519.305000", "184520.795000", "184522.285000", "184523.775000", "184525.265000", "184526.755000", "184528.245000", "184529.735000", "184531.225000", "184532.715000", "184534.205000", "184535.695000", "184537.185000", "184538.675000", "184540.165000", "184541.655000", "184543.145000", "184544.635000", "184546.125000", "184547.615000", "184549.105000", "184550.595000", "184552.085000", "184553.575000", "184555.065000", "184556.555000", "184558.045000", "184559.535000", "184601.025000", "184602.515000", "184604.005000", "184605.495000", "184606.985000", "184608.475000", "184609.965000", "184611.455000", "184612.945000", "184614.435000", "184615.925000", "184617.415000", "184618.905000", "184620.395000", "184621.885000", "184623.375000", "184624.865000", "184626.355000", "184627.845000", "184629.335000", "184630.825000", "184632.315000", "184633.805000", "184635.295000", "184636.785000", "184638.275000", "184639.765000", "184641.255000", "184642.745000", "184644.235000", "184645.725000", "184647.215000", "184648.705000", "184650.195000", "184651.685000", "184653.175000", "184654.665000", "184656.155000", "184657.645000", "184659.135000", "184700.625000", "184702.115000", "184703.605000", "184705.095000", "184706.585000", "184708.075000", "184709.565000", "184711.055000", "184712.545000", "184714.035000", "184715.525000", "184717.015000", "184718.505000", "184719.995000", "184721.485000", "184722.975000", "184724.465000", "184725.955000", "184727.445000", "184728.935000", "184730.425000", "184731.915000", "184733.405000", "184734.895000", "184736.385000", "184737.875000", "184739.365000", "184740.855000", "184742.345000", "184743.835000", "184745.325000", "184746.815000", "184748.305000", "184749.795000", "184751.285000", "184752.775000", "184754.265000", "184755.755000", "184757.245000", "184758.735000", "184800.225000", "184801.715000", "184803.205000", "184804.695000", "184806.185000", "184807.675000", "184809.165000", "184810.655000", "184812.145000", "184813.635000", "184815.125000", "184816.615000", "184818.105000", "184819.595000", "184821.085000", "184822.575000", "184824.065000", "184825.555000", "184827.045000", "184828.535000", "184830.025000", "184831.515000", "184833.005000", "184834.495000", "184835.985000", "184837.475000", "184838.965000", "184840.455000", "184841.945000", "184843.435000", "184844.925000", "184846.415000", "184847.905000", "184849.395000", "184850.885000", "184852.375000", "184853.865000", "184855.355000", "184856.845000", "184858.335000", "184859.825000", "184901.315000", "184902.805000", "184904.295000", "184905.785000", "184907.275000", "184908.765000", "184910.255000", "184911.745000", "184913.235000", "184914.725000", "184916.215000", "184917.705000", "184919.195000", "184920.685000", "184922.175000", "184923.665000", "184925.155000", "184926.645000", "184928.135000", "184929.625000", "184931.115000", "184932.605000", "184934.095000", "184935.585000", "184937.075000", "184938.565000", "184940.055000", "184941.545000", "184943.035000", "184944.525000", "184946.015000", "184947.505000", "184948.995000", "184950.485000", "184951.975000", "184953.465000", "184954.955000", "184956.445000", "184957.935000", "184959.425000", "185000.915000", "185002.405000", "185003.895000", "185005.385000", "185006.875000", "185008.365000", "185009.855000", "185011.345000", "185012.835000", "185014.325000", "185015.815000", "185017.305000", "185018.795000", "185020.285000", "185021.775000", "185023.265000", "185024.755000", "185026.245000", "185027.735000", "185029.225000", "185030.715000", "185032.205000", "185033.695000", "185035.185000", "185036.675000", "185038.165000", "185039.655000", "185041.145000", "185042.635000", "185044.125000", "185045.615000", "185047.105000", "185048.595000", "185050.085000", "185051.575000", "185053.065000", "185054.555000", "185056.045000", "185057.535000", "185059.025000", "185100.515000", "185102.005000", "185103.495000", "185104.985000", "185106.475000", "185107.965000", "185109.455000", "185110.945000", "185112.435000", "185113.925000", "185115.415000", "185116.905000", "185118.395000", "185119.885000", "185121.375000", "185122.865000", "185124.355000", "185125.845000", "185127.335000", "185128.825000", "185130.315000", "185131.805000", "185133.295000", "185134.785000", "185136.275000", "185137.765000", "185139.255000", "185140.745000", "185142.235000", "185143.725000", "185145.215000", "185146.705000", "185148.195000", "185149.685000", "185151.175000", "185152.665000", "185154.155000", "185155.645000", "185157.135000", "185158.625000", "185200.115000", "185201.605000", "185203.095000", "185204.585000", "185206.075000", "185207.565000", "185209.055000", "185210.545000", "185212.035000", "185213.525000", "185215.015000", "185216.505000", "185217.995000", "185219.485000", "185220.975000", "185222.465000", "185223.955000", "185225.445000", "185226.935000", "185228.425000", "185229.915000", "185231.405000", "185232.895000", "185234.385000", "185235.875000", "185237.365000", "185238.855000", "185240.345000", "185241.835000", "185243.325000", "185244.815000", "185246.305000", "185247.795000", "185249.285000", "185250.775000", "185252.265000", "185253.755000", "185255.245000", "185256.735000", "185258.225000", "185259.715000", "185301.205000", "185302.695000", "185304.185000", "185305.675000", "185307.165000", "185308.655000", "185310.145000", "185311.635000", "185313.125000", "185314.615000", "185316.105000", "185317.595000", "185319.085000", "185320.575000", "185322.065000", "185323.555000", "185325.045000", "185326.535000", "185328.025000", "185329.515000", "185331.005000", "185332.495000", "185333.985000", "185335.475000", "185336.965000", "185338.455000", "185339.945000", "185341.435000", "185342.925000", "185344.415000", "185345.905000", "185347.395000", "185348.885000", "185350.375000", "185351.865000", "185353.355000", "185354.845000", "185356.335000", "185357.825000", "185359.315000", "185400.805000", "185402.295000", "185403.785000", "185405.275000", "185406.765000", "185408.255000", "185409.745000", "185411.235000", "185412.725000", "185414.215000", "185415.705000", "185417.195000", "185418.685000", "185420.175000", "185421.665000", "185423.155000", "185424.645000", "185426.135000", "185427.625000", "185429.115000", "185430.605000", "185432.095000", "185433.585000", "185435.075000", "185436.565000", "185438.055000", "185439.545000", "185441.035000", "185442.525000", "185444.015000", "185445.505000", "185446.995000", "185448.485000", "185449.975000", "185451.465000", "185452.955000", "185454.445000", "185455.935000", "185457.425000", "185458.915000", "185500.405000", "185501.895000", "185503.385000", "185504.875000", "185506.365000", "185507.855000", "185509.345000", "185510.835000", "185512.325000", "185513.815000", "185515.305000", "185516.795000", "185518.285000", "185519.775000", "185521.265000", "185522.755000", "185524.245000", "185525.735000", "185527.225000", "185528.715000", "185530.205000", "185531.695000", "185533.185000", "185534.675000", "185536.165000", "185537.655000", "185539.145000", "185540.635000", "185542.125000", "185543.615000", "185545.105000", "185546.595000", "185548.085000", "185549.575000", "185551.065000", "185552.555000", "185554.045000", "185555.535000", "185557.025000", "185558.515000", "185600.005000", "185601.495000", "185602.985000", "185604.475000", "185605.965000", "185607.455000", "185608.945000", "185610.435000", "185611.925000", "185613.415000", "185614.905000", "185616.395000", "185617.885000", "185619.375000", "185620.865000", "185622.355000", "185623.845000", "185625.335000", "185626.825000", "185628.315000", "185629.805000", "185631.295000", "185632.785000", "185634.275000", "185635.765000", "185637.255000", "185638.745000", "185640.235000", "185641.725000", "185643.215000", "185644.705000", "185646.195000", "185647.685000", "185649.175000", "185650.665000", "185652.155000", "185653.645000", "185655.135000", "185656.625000", "185658.115000", "185659.605000", "185701.095000", "185702.585000", "185704.075000", "185705.565000", "185707.055000", "185708.545000", "185710.035000", "185711.525000", "185713.015000", "185714.505000", "185715.995000", "185717.485000", "185718.975000", "185720.465000", "185721.955000", "185723.445000", "185724.935000", "185726.425000", "185727.915000", "185729.405000", "185730.895000", "185732.385000", "185733.875000", "185735.365000", "185736.855000", "185738.345000", "185739.835000", "185741.325000", "185742.815000", "185744.305000", "185745.795000", "185747.285000", "185748.775000", "185750.265000", "185751.755000", "185753.245000", "185754.735000", "185756.225000", "185757.715000"],
      "ContentTime": ["184604.974000", "184604.977000", "184604.980000", "184604.983000", "184604.986000", "184604.989000", "184604.992000", "184604.995000", "184604.998000", "184605.002000", "184605.005000", "184605.007000", "184605.010000", "184605.021000", "184605.024000", "184605.027000", "184605.030000", "184605.032000", "184605.035000", "184605.038000", "184605.041000", "184605.044000", "184605.047000", "184605.050000", "184605.053000", "184605.056000", "184605.059000", "184605.061000", "184605.064000", "184605.067000", "184605.075000", "184605.078000", "184605.081000", "184605.084000", "184605.087000", "184605.090000", "184624.938000", "184624.941000", "184624.944000", "184624.962000", "184624.965000", "184624.968000", "184624.971000", "184624.974000", "184624.977000", "184624.980000", "184624.989000", "184624.992000", "184624.995000", "184624.997000", "184625.001000", "184625.004000", "184625.007000", "184625.010000", "184625.013000", "184625.016000", "184625.019000", "184644.938000", "184644.941000", "184644.944000", "184644.947000", "184644.950000", "184644.952000", "184644.955000", "184644.958000", "184644.961000", "184644.964000", "184644.967000", "184644.970000", "184644.973000", "184644.975000", "184644.978000", "184644.981000", "184644.984000", "184644.987000", "184644.990000", "184644.993000", "184704.938000", "184704.941000", "184704.944000", "184704.947000", "184704.950000", "184704.959000", "184704.962000", "184704.965000", "184704.968000", "184704.971000", "184704.974000", "184704.976000", "184704.979000", "184704.982000", "184704.985000", "184704.988000", "184704.991000", "184704.994000", "184704.997000", "184705.001000", "184744.937000", "184744.940000", "184744.943000", "184744.946000", "184744.949000", "184744.952000", "184744.954000", "184744.957000", "184744.960000", "184744.963000", "184744.966000", "184744.969000", "184744.976000", "184744.979000", "184744.982000", "184744.984000", "184744.987000", "184744.990000", "184744.993000", "184744.996000", "184745.000000", "184745.003000", "184745.006000", "184745.009000", "184745.012000", "184745.014000", "184745.017000", "184824.938000", "184824.941000", "184824.944000", "184824.947000", "184824.950000", "184824.953000", "184824.955000", "184824.958000", "184824.961000", "184824.964000", "184824.967000", "184824.970000", "184824.973000", "184824.976000", "184824.979000", "184824.982000", "184824.985000", "184824.987000", "184824.990000", "184824.993000", "184824.996000", "184825.000000", "184825.003000", "184825.006000", "184825.009000", "184825.012000", "184825.015000", "184904.938000", "184904.941000", "184904.944000", "184904.947000", "184904.950000", "184904.953000", "184904.956000", "184904.959000", "184904.962000", "184904.965000", "184904.968000", "184904.970000", "184904.973000", "184904.982000", "184904.985000", "184904.988000", "184904.991000", "184904.994000", "184904.997000", "184905.001000", "184905.004000", "184905.007000", "184905.010000", "184905.012000", "184905.015000", "184905.018000", "184944.937000", "184944.940000", "184944.943000", "184944.946000", "184944.949000", "184944.952000", "184944.955000", "184944.957000", "184944.960000", "184944.963000", "184944.966000", "184944.969000", "184944.972000", "184944.975000", "184944.978000", "184944.981000", "184944.984000", "184944.987000", "184944.989000", "184944.992000", "184944.995000", "184944.998000", "184945.002000", "184945.005000", "184945.008000", "184945.011000", "184945.014000", "185024.938000", "185024.941000", "185024.944000", "185024.947000", "185024.950000", "185024.953000", "185024.956000", "185024.959000", "185024.962000", "185024.965000", "185024.968000", "185024.971000", "185024.974000", "185024.977000", "185024.980000", "185024.983000", "185024.985000", "185024.988000", "185024.991000", "185024.994000", "185024.997000", "185025.000000", "185025.003000", "185025.006000", "185025.009000", "185025.012000", "185025.015000", "185104.938000", "185104.941000", "185104.944000", "185104.947000", "185104.950000", "185104.953000", "185104.956000", "185104.958000", "185104.961000", "185104.976000", "185104.978000", "185104.981000", "185104.984000", "185104.987000", "185104.990000", "185104.993000", "185104.996000", "185105.000000", "185105.003000", "185105.006000", "185105.009000", "185105.012000", "185105.015000", "185105.017000", "185105.020000", "185105.023000", "185105.026000", "185144.938000", "185144.941000", "185144.944000", "185144.947000", "185144.950000", "185144.953000", "185144.956000", "185144.959000", "185144.961000", "185144.964000", "185144.967000", "185144.970000", "185144.973000", "185144.976000", "185144.979000", "185144.982000", "185144.985000", "185144.988000", "185144.991000", "185144.994000", "185144.996000", "185145.000000", "185145.003000", "185145.006000", "185145.009000", "185145.012000", "185145.015000", "185224.937000", "185224.940000", "185224.943000", "185224.946000", "185224.949000", "185224.952000", "185224.955000", "185224.958000", "185224.960000", "185224.963000", "185224.966000", "185224.969000", "185224.972000", "185224.975000", "185224.978000", "185224.981000", "185224.984000", "185224.987000", "185224.990000", "185224.993000", "185224.996000", "185224.998000", "185225.002000", "185225.005000", "185225.008000", "185225.011000", "185225.014000", "185304.938000", "185304.941000", "185304.944000", "185304.947000", "185304.950000", "185304.953000", "185304.956000", "185304.959000", "185304.962000", "185304.965000", "185304.968000", "185304.971000", "185304.973000", "185304.976000", "185304.979000", "185304.982000", "185304.985000", "185304.988000", "185304.991000", "185304.994000", "185304.997000", "185305.001000", "185305.004000", "185305.007000", "185305.009000", "185305.012000", "185344.938000", "185344.941000", "185344.944000", "185344.947000", "185344.950000", "185344.953000", "185344.956000", "185344.959000", "185344.962000", "185344.964000", "185344.967000", "185344.970000", "185344.973000", "185344.976000", "185344.979000", "185344.982000", "185344.985000", "185344.988000", "185344.991000", "185344.994000", "185344.997000", "185345.000000", "185345.003000", "185345.006000", "185345.009000", "185345.012000", "185345.015000", "185424.937000", "185424.940000", "185424.943000", "185424.946000", "185424.949000", "185424.952000", "185424.955000", "185424.958000", "185424.961000", "185424.963000", "185424.966000", "185424.969000", "185424.972000", "185424.975000", "185424.978000", "185424.981000", "185424.984000", "185424.987000", "185424.990000", "185424.993000", "185424.995000", "185424.998000", "185425.002000", "185425.005000", "185425.008000", "185425.011000", "185425.014000", "185504.938000", "185504.941000", "185504.944000", "185504.947000", "185504.950000", "185504.953000", "185504.956000", "185504.959000", "185504.962000", "185504.964000", "185504.967000", "185504.970000", "185504.973000", "185504.976000", "185504.979000", "185504.982000", "185504.985000", "185504.988000", "185504.991000", "185504.994000", "185504.997000", "185504.999000", "185505.002000", "185505.005000", "185505.008000", "185505.011000", "185505.014000", "185544.938000", "185544.941000", "185544.944000", "185544.947000", "185544.950000", "185544.953000", "185544.956000", "185544.959000", "185544.962000", "185544.965000", "185544.976000", "185544.980000", "185544.983000", "185544.985000", "185544.988000", "185544.991000", "185544.994000", "185544.997000", "185545.001000", "185545.004000", "185545.007000", "185545.010000", "185545.013000", "185545.016000", "185545.019000", "185545.021000", "185545.024000", "185624.938000", "185624.941000", "185624.944000", "185624.947000", "185624.950000", "185624.953000", "185624.956000", "185624.959000", "185624.962000", "185624.964000", "185624.967000", "185624.970000", "185624.973000", "185624.976000", "185624.979000", "185624.982000", "185624.985000", "185624.988000", "185624.991000", "185624.994000", "185624.997000", "185625.001000", "185625.004000", "185625.007000", "185625.010000", "185625.013000", "185625.015000", "185704.937000", "185704.940000", "185704.943000", "185704.946000", "185704.949000", "185704.952000", "185704.955000", "185704.957000", "185704.960000", "185704.963000", "185704.966000", "185704.969000", "185704.972000", "185704.975000", "185704.978000", "185704.981000", "185704.984000", "185704.987000", "185704.990000", "185704.993000", "185704.996000", "185704.998000", "185705.002000", "185705.005000", "185705.008000", "185705.011000", "185705.014000", "185744.938000", "185744.941000", "185744.944000", "185744.947000", "185744.950000", "185744.953000", "185744.956000", "185744.959000", "185744.962000", "185744.965000", "185744.967000", "185744.970000", "185744.973000", "185744.976000", "185744.979000", "185744.982000", "185744.985000", "185744.988000", "185744.991000", "185744.994000", "185744.997000", "185745.001000", "185745.004000", "185745.007000", "185745.010000", "185745.013000", "185800.006000", "185800.009000", "185800.012000", "185800.015000", "185800.018000", "185800.021000", "185800.024000", "185800.027000", "185800.030000", "185800.032000", "185800.035000"],
