{
  "AcquisitionMatrixPE": 104,
  "AcquisitionNumber": 1,
  "AcquisitionTime": "18:17:31.937500",
  "BandwidthPerPixelPhaseEncode": 17.17,
  "BaseResolution": 104,
  "BodyPartExamined": "BRAIN",
  "CoilCombinationMethod": "Sum of Squares",
  "ConsistencyInfo": "N4_VE11C_LATEST_20160120",
  "ConversionSoftware": "dcm2niix",
  "ConversionSoftwareVersion": "v1.0.20220505",
  "DerivedVendorReportedEchoSpacing": 0.000560011,
  "DeviceSerialNumber": "167006",
  "DwellTime": 2.1e-06,
  "EchoTime": 0.037,
  "EchoTrainLength": 104,
  "EffectiveEchoSpacing": 0.000560011,
  "FlipAngle": 52,
  "HeudiconvVersion": "0.5.3.post811+g6206e14",
  "ImageComments": "Unaliased MB4/PE3/LB",
  "ImageOrientationPatientDICOM": [0.999682, -0.0241486, -0.00721328, 0.0197185, 0.927671, -0.372878],
  "ImageOrientationText": "Tra>Cor(-21.9)>Sag(-0.9)",
  "ImageType": [
    "ORIGINAL",
    "PRIMARY",
    "M",
    "MB",
    "ND",
    "MOSAIC"
],
  "ImagingFrequency": 123.259,
  "InPlanePhaseEncodingDirectionDICOM": "COL",
  "InstitutionAddress": "Chemin Queen-Mary 4565,Montreal,District,CA,H3W 1W5",
  "InstitutionName": "IUGM",
  "InstitutionalDepartmentName": "Department",
  "MRAcquisitionType": "2D",
  "MagneticFieldStrength": 3,
  "Manufacturer": "Siemens",
  "ManufacturersModelName": "Prisma_fit",
  "MatrixCoilMode": "SENSE",
  "Modality": "MR",
  "MultibandAccelerationFactor": 4,
  "PartialFourier": 1,
  "PatientPosition": "HFS",
  "PercentPhaseFOV": 100,
  "PercentSampling": 100,
  "PhaseEncodingDirection": "j",
  "PhaseEncodingSteps": 104,
  "PhaseResolution": 1,
  "PixelBandwidth": 2290,
  "ProcedureStepDescription": "video^friends",
  "ProtocolName": "func_task-friends-s06e08b",
  "PulseSequenceDetails": "%CustomerSeq%\\cmrr_mbep2d_bold",
  "ReceiveCoilActiveElements": "HC1-7;NC1,2",
  "ReceiveCoilName": "HeadNeck_64",
  "ReconMatrixPE": 104,
  "RepetitionTime": 1.49,
  "SAR": 0.0672305,
  "ScanOptions": "FS",
  "ScanningSequence": "EP",
  "SequenceName": "epfid2d1_104",
  "SequenceVariant": "SK\\SS",
  "SeriesDescription": "func_task-friends-s06e08b",
  "SeriesNumber": 16,
  "ShimSetting": [622, -7255, -8845, 389, 43, -393, -31, 14],
  "SliceThickness": 2,
  "SliceTiming": [0, 0.785, 0.0975, 0.8825, 0.195, 0.98, 0.295, 1.0775, 0.3925, 1.175, 0.49, 1.275, 0.5875, 1.3725, 0.685, 0, 0.785, 0.0975, 0.8825, 0.195, 0.98, 0.295, 1.0775, 0.3925, 1.175, 0.49, 1.275, 0.5875, 1.3725, 0.685, 0, 0.785, 0.0975, 0.8825, 0.195, 0.98, 0.295, 1.0775, 0.3925, 1.175, 0.49, 1.275, 0.5875, 1.3725, 0.685, 0, 0.785, 0.0975, 0.8825, 0.195, 0.98, 0.295, 1.0775, 0.3925, 1.175, 0.49, 1.275, 0.5875, 1.3725, 0.685],
  "SoftwareVersions": "syngo MR E11",
  "SpacingBetweenSlices": 2,
  "StationName": "MRC35049",
  "TaskName": "s06e08b",
  "TotalReadoutTime": 0.0576811,
  "TxRefAmp": 290.218,
  "WipMemBlock": "cb1a8239-9dea-40cf-b4a1-66cbee354ec1||Sequence: R017 ve11c/master r/75a17815+; Jun 28 2022 16:32:11 by eja",
  "dcmmeta_affine": [
    [-1.9993647336959839, 0.039437007158994675, -0.03139200806617737, 97.90454864501953],
    [0.048297103494405746, 1.8553417921066284, -0.7452342510223389, -72.72027587890625],
    [-0.014426550827920437, 0.7457555532455444, 1.8557049036026, -71.13380432128906],
    [0.0, 0.0, 0.0, 1.0]
],
  "dcmmeta_reorient_transform": [
    [0.0, -1.0, 0.0, 103.0],
    [1.0, 0.0, 0.0, 0.0],
    [0.0, 0.0, 1.0, 0.0],
    [0.0, 0.0, 0.0, 1.0]
],
  "dcmmeta_shape": [104, 104, 60, 472],
  "dcmmeta_slice_dim": 2,
  "dcmmeta_version": 0.6,
  "global": {
    "const": {
      "AcquisitionMatrix": [104, 0, 0, 104],
      "AngioFlag": "N",
      "BitsAllocated": 16,
      "BitsStored": 16,
      "BodyPartExamined": "BRAIN",
      "Columns": 832,
      "EchoNumbers": 1,
      "EchoTime": 37.0,
      "EchoTrainLength": 104,
      "FlipAngle": 52.0,
      "HighBit": 15,
      "ImageOrientationPatient": [0.99968235759296, -0.0241485522858, -0.007213275254, 0.01971850297916, 0.9276709188637, -0.3728777908844],
      "ImagePositionPatient": [-844.09038427069, -776.14421754386, 282.38531841878],
      "ImageType": [
        "ORIGINAL",
        "PRIMARY",
        "M",
        "MB",
        "ND",
        "MOSAIC"
],
      "ImagedNucleus": "1H",
      "ImagingFrequency": 123.258803,
      "InPlanePhaseEncodingDirection": "COL",
      "MRAcquisitionType": "2D",
      "MagneticFieldStrength": 3.0,
      "Manufacturer": "SIEMENS",
      "ManufacturerModelName": "Prisma_fit",
      "Modality": "MR",
      "NumberOfAverages": 1.0,
      "NumberOfPhaseEncodingSteps": 104,
      "PercentPhaseFieldOfView": 100.0,
      "PercentSampling": 100.0,
      "PerformedProcedureStepStartTime": "173403.061000",
      "PhotometricInterpretation": "MONOCHROME2",
      "PixelBandwidth": 2290.0,
      "PixelRepresentation": 0,
      "PixelSpacing": [2.0, 2.0],
      "ProtocolName": "func_task-friends-s06e08b",
      "RepetitionTime": 1490.0,
      "Rows": 832,
      "SAR": 0.06723048702319,
      "SamplesPerPixel": 1,
      "ScanOptions": "FS",
      "ScanningSequence": "EP",
      "SequenceName": "epfid2d1_104",
      "SequenceVariant": [
        "SK",
        "SS"
],
      "SeriesDescription": "func_task-friends-s06e08b",
      "SeriesNumber": 16,
      "SeriesTime": "181855.069000",
      "SliceLocation": -40.441562594186,
      "SliceThickness": 2.0,
      "SmallestImagePixelValue": 0,
      "SoftwareVersions": "syngo MR E11",
      "SpacingBetweenSlices": 2.0000000298424,
      "SpecificCharacterSet": "ISO_IR 100",
      "StudyID": "1",
      "StudyTime": "173402.983000",
      "TransmitCoilName": "Body",
      "VariableFlipAngleFlag": "N",
      "WindowCenterWidthExplanation": "Algo1",
      "dBdt": 0.0},
    "slices": {}
  },
  "time": {
    "samples": {
      "AcquisitionNumber": [1, 2, 3, 4, 5, 6, 7, 8, 9, 10, 11, 12, 13, 14, 15, 16, 17, 18, 19, 20, 21, 22, 23, 24, 25, 26, 27, 28, 29, 30, 31, 32, 33, 34, 35, 36, 37, 38, 39, 40, 41, 42, 43, 44, 45, 46, 47, 48, 49, 50, 51, 52, 53, 54, 55, 56, 57, 58, 59, 60, 61, 62, 63, 64, 65, 66, 67, 68, 69, 70, 71, 72, 73, 74, 75, 76, 77, 78, 79, 80, 81, 82, 83, 84, 85, 86, 87, 88, 89, 90, 91, 92, 93, 94, 95, 96, 97, 98, 99, 100, 101, 102, 103, 104, 105, 106, 107, 108, 109, 110, 111, 112, 113, 114, 115, 116, 117, 118, 119, 120, 121, 122, 123, 124, 125, 126, 127, 128, 129, 130, 131, 132, 133, 134, 135, 136, 137, 138, 139, 140, 141, 142, 143, 144, 145, 146, 147, 148, 149, 150, 151, 152, 153, 154, 155, 156, 157, 158, 159, 160, 161, 162, 163, 164, 165, 166, 167, 168, 169, 170, 171, 172, 173, 174, 175, 176, 177, 178, 179, 180, 181, 182, 183, 184, 185, 186, 187, 188, 189, 190, 191, 192, 193, 194, 195, 196, 197, 198, 199, 200, 201, 202, 203, 204, 205, 206, 207, 208, 209, 210, 211, 212, 213, 214, 215, 216, 217, 218, 219, 220, 221, 222, 223, 224, 225, 226, 227, 228, 229, 230, 231, 232, 233, 234, 235, 236, 237, 238, 239, 240, 241, 242, 243, 244, 245, 246, 247, 248, 249, 250, 251, 252, 253, 254, 255, 256, 257, 258, 259, 260, 261, 262, 263, 264, 265, 266, 267, 268, 269, 270, 271, 272, 273, 274, 275, 276, 277, 278, 279, 280, 281, 282, 283, 284, 285, 286, 287, 288, 289, 290, 291, 292, 293, 294, 295, 296, 297, 298, 299, 300, 301, 302, 303, 304, 305, 306, 307, 308, 309, 310, 311, 312, 313, 314, 315, 316, 317, 318, 319, 320, 321, 322, 323, 324, 325, 326, 327, 328, 329, 330, 331, 332, 333, 334, 335, 336, 337, 338, 339, 340, 341, 342, 343, 344, 345, 346, 347, 348, 349, 350, 351, 352, 353, 354, 355, 356, 357, 358, 359, 360, 361, 362, 363, 364, 365, 366, 367, 368, 369, 370, 371, 372, 373, 374, 375, 376, 377, 378, 379, 380, 381, 382, 383, 384, 385, 386, 387, 388, 389, 390, 391, 392, 393, 394, 395, 396, 397, 398, 399, 400, 401, 402, 403, 404, 405, 406, 407, 408, 409, 410, 411, 412, 413, 414, 415, 416, 417, 418, 419, 420, 421, 422, 423, 424, 425, 426, 427, 428, 429, 430, 431, 432, 433, 434, 435, 436, 437, 438, 439, 440, 441, 442, 443, 444, 445, 446, 447, 448, 449, 450, 451, 452, 453, 454, 455, 456, 457, 458, 459, 460, 461, 462, 463, 464, 465, 466, 467, 468, 469, 470, 471, 472],
      "AcquisitionTime": ["181731.937500", "181733.427500", "181734.917500", "181736.407500", "181737.897500", "181739.387500", "181740.877500", "181742.367500", "181743.857500", "181745.347500", "181746.837500", "181748.327500", "181749.817500", "181751.307500", "181752.797500", "181754.287500", "181755.777500", "181757.267500", "181758.757500", "181800.247500", "181801.737500", "181803.227500", "181804.717500", "181806.207500", "181807.697500", "181809.187500", "181810.677500", "181812.167500", "181813.657500", "181815.147500", "181816.637500", "181818.127500", "181819.617500", "181821.107500", "181822.597500", "181824.087500", "181825.577500", "181827.067500", "181828.557500", "181830.047500", "181831.537500", "181833.027500", "181834.517500", "181836.007500", "181837.497500", "181838.987500", "181840.477500", "181841.967500", "181843.457500", "181844.947500", "181846.437500", "181847.927500", "181849.417500", "181850.907500", "181852.397500", "181853.887500", "181855.377500", "181856.867500", "181858.357500", "181859.847500", "181901.337500", "181902.827500", "181904.317500", "181905.807500", "181907.297500", "181908.787500", "181910.277500", "181911.767500", "181913.257500", "181914.747500", "181916.237500", "181917.727500", "181919.217500", "181920.707500", "181922.197500", "181923.687500", "181925.177500", "181926.667500", "181928.157500", "181929.647500", "181931.137500", "181932.627500", "181934.117500", "181935.607500", "181937.097500", "181938.587500", "181940.077500", "181941.567500", "181943.057500", "181944.547500", "181946.037500", "181947.527500", "181949.017500", "181950.507500", "181951.997500", "181953.487500", "181954.977500", "181956.467500", "181957.957500", "181959.447500", "182000.937500", "182002.427500", "182003.917500", "182005.407500", "182006.897500", "182008.387500", "182009.877500", "182011.367500", "182012.857500", "182014.347500", "182015.837500", "182017.327500", "182018.817500", "182020.307500", "182021.797500", "182023.287500", "182024.777500", "182026.267500", "182027.757500", "182029.247500", "182030.737500", "182032.227500", "182033.717500", "182035.207500", "182036.697500", "182038.187500", "182039.677500", "182041.167500", "182042.657500", "182044.147500", "182045.637500", "182047.127500", "182048.617500", "182050.107500", "182051.597500", "182053.087500", "182054.577500", "182056.067500", "182057.557500", "182059.047500", "182100.537500", "182102.027500", "182103.517500", "182105.007500", "182106.497500", "182107.987500", "182109.477500", "182110.967500", "182112.457500", "182113.947500", "182115.437500", "182116.927500", "182118.417500", "182119.907500", "182121.397500", "182122.887500", "182124.377500", "182125.867500", "182127.357500", "182128.847500", "182130.337500", "182131.827500", "182133.317500", "182134.807500", "182136.297500", "182137.787500", "182139.277500", "182140.767500", "182142.257500", "182143.747500", "182145.237500", "182146.727500", "182148.217500", "182149.707500", "182151.197500", "182152.687500", "182154.177500", "182155.667500", "182157.157500", "182158.647500", "182200.137500", "182201.627500", "182203.117500", "182204.607500", "182206.097500", "182207.587500", "182209.077500", "182210.567500", "182212.057500", "182213.547500", "182215.037500", "182216.527500", "182218.017500", "182219.507500", "182220.997500", "182222.487500", "182223.977500", "182225.467500", "182226.957500", "182228.447500", "182229.937500", "182231.427500", "182232.917500", "182234.407500", "182235.897500", "182237.387500", "182238.877500", "182240.367500", "182241.857500", "182243.347500", "182244.837500", "182246.327500", "182247.817500", "182249.307500", "182250.797500", "182252.287500", "182253.777500", "182255.267500", "182256.757500", "182258.247500", "182259.737500", "182301.227500", "182302.717500", "182304.207500", "182305.697500", "182307.187500", "182308.677500", "182310.167500", "182311.657500", "182313.147500", "182314.637500", "182316.127500", "182317.617500", "182319.107500", "182320.597500", "182322.087500", "182323.577500", "182325.067500", "182326.557500", "182328.047500", "182329.537500", "182331.027500", "182332.517500", "182334.007500", "182335.497500", "182336.987500", "182338.477500", "182339.967500", "182341.457500", "182342.947500", "182344.437500", "182345.927500", "182347.417500", "182348.907500", "182350.397500", "182351.887500", "182353.377500", "182354.867500", "182356.357500", "182357.847500", "182359.337500", "182400.827500", "182402.317500", "182403.807500", "182405.297500", "182406.787500", "182408.277500", "182409.767500", "182411.257500", "182412.747500", "182414.237500", "182415.727500", "182417.217500", "182418.707500", "182420.197500", "182421.687500", "182423.177500", "182424.667500", "182426.157500", "182427.647500", "182429.137500", "182430.627500", "182432.117500", "182433.607500", "182435.097500", "182436.587500", "182438.077500", "182439.567500", "182441.057500", "182442.547500", "182444.037500", "182445.527500", "182447.017500", "182448.507500", "182449.997500", "182451.487500", "182452.977500", "182454.467500", "182455.957500", "182457.447500", "182458.937500", "182500.427500", "182501.917500", "182503.407500", "182504.897500", "182506.387500", "182507.877500", "182509.367500", "182510.857500", "182512.347500", "182513.837500", "182515.327500", "182516.817500", "182518.307500", "182519.797500", "182521.287500", "182522.777500", "182524.267500", "182525.757500", "182527.247500", "182528.737500", "182530.227500", "182531.717500", "182533.207500", "182534.697500", "182536.187500", "182537.677500", "182539.167500", "182540.657500", "182542.147500", "182543.637500", "182545.127500", "182546.617500", "182548.107500", "182549.597500", "182551.087500", "182552.577500", "182554.067500", "182555.557500", "182557.047500", "182558.537500", "182600.027500", "182601.517500", "182603.007500", "182604.497500", "182605.987500", "182607.477500", "182608.967500", "182610.457500", "182611.947500", "182613.437500", "182614.927500", "182616.417500", "182617.907500", "182619.397500", "182620.887500", "182622.377500", "182623.867500", "182625.357500", "182626.847500", "182628.337500", "182629.827500", "182631.317500", "182632.807500", "182634.297500", "182635.787500", "182637.277500", "182638.767500", "182640.257500", "182641.747500", "182643.237500", "182644.727500", "182646.217500", "182647.707500", "182649.197500", "182650.687500", "182652.177500", "182653.667500", "182655.157500", "182656.647500", "182658.137500", "182659.627500", "182701.117500", "182702.607500", "182704.097500", "182705.587500", "182707.077500", "182708.567500", "182710.057500", "182711.547500", "182713.037500", "182714.527500", "182716.017500", "182717.507500", "182718.997500", "182720.487500", "182721.977500", "182723.467500", "182724.957500", "182726.447500", "182727.937500", "182729.427500", "182730.917500", "182732.407500", "182733.897500", "182735.387500", "182736.877500", "182738.367500", "182739.857500", "182741.347500", "182742.837500", "182744.327500", "182745.817500", "182747.307500", "182748.797500", "182750.287500", "182751.777500", "182753.267500", "182754.757500", "182756.247500", "182757.737500", "182759.227500", "182800.717500", "182802.207500", "182803.697500", "182805.187500", "182806.677500", "182808.167500", "182809.657500", "182811.147500", "182812.637500", "182814.127500", "182815.617500", "182817.107500", "182818.597500", "182820.087500", "182821.577500", "182823.067500", "182824.557500", "182826.047500", "182827.537500", "182829.027500", "182830.517500", "182832.007500", "182833.497500", "182834.987500", "182836.477500", "182837.967500", "182839.457500", "182840.947500", "182842.437500", "182843.927500", "182845.417500", "182846.907500", "182848.397500", "182849.887500", "182851.377500", "182852.867500", "182854.357500", "182855.847500", "182857.337500", "182858.827500", "182900.317500", "182901.807500", "182903.297500", "182904.787500", "182906.277500", "182907.767500", "182909.257500", "182910.747500", "182912.237500", "182913.727500"],
      "ContentTime": ["181855.071000", "181855.075000", "181855.078000", "181855.081000", "181855.083000", "181855.086000", "181855.089000", "181855.092000", "181855.095000", "181855.098000", "181855.101000", "181855.104000", "181855.107000", "181855.110000", "181855.119000", "181855.122000", "181855.125000", "181855.128000", "181855.131000", "181855.134000", "181855.137000", "181855.139000", "181855.142000", "181855.152000", "181855.155000", "181855.157000", "181855.160000", "181855.163000", "181855.166000", "181855.169000", "181855.172000", "181855.175000", "181855.178000", "181855.181000", "181855.183000", "181915.045000", "181915.048000", "181915.051000", "181915.054000", "181915.057000", "181915.060000", "181915.062000", "181915.065000", "181915.068000", "181915.071000", "181915.074000", "181915.077000", "181915.080000", "181915.083000", "181915.086000", "181915.088000", "181915.091000", "181915.094000", "181915.097000", "181915.108000", "181915.111000", "181955.045000", "181955.048000", "181955.051000", "181955.054000", "181955.057000", "181955.060000", "181955.063000", "181955.073000", "181955.076000", "181955.078000", "181955.081000", "181955.084000", "181955.087000", "181955.090000", "181955.093000", "181955.096000", "181955.099000", "181955.102000", "181955.104000", "181955.107000", "181955.110000", "181955.113000", "181955.116000", "181955.119000", "181955.122000", "181955.125000", "181955.128000", "181955.130000", "181955.133000", "181955.136000", "181955.139000", "181955.142000", "181955.145000", "181955.149000", "181955.152000", "181955.154000", "181955.157000", "181955.160000", "181955.163000", "182035.045000", "182035.048000", "182035.051000", "182035.065000", "182035.068000", "182035.071000", "182035.073000", "182035.076000", "182035.079000", "182035.082000", "182035.085000", "182035.088000", "182035.091000", "182035.094000", "182035.097000", "182035.100000", "182035.102000", "182035.105000", "182035.108000", "182035.111000", "182035.114000", "182035.117000", "182035.120000", "182035.123000", "182035.126000", "182035.129000", "182035.131000", "182115.044000", "182115.047000", "182115.050000", "182115.053000", "182115.056000", "182115.058000", "182115.061000", "182115.064000", "182115.067000", "182115.070000", "182115.073000", "182115.076000", "182115.079000", "182115.082000", "182115.084000", "182115.087000", "182115.090000", "182115.093000", "182115.096000", "182115.099000", "182115.102000", "182115.105000", "182115.108000", "182115.111000", "182115.114000", "182115.117000", "182115.120000", "182155.045000", "182155.048000", "182155.051000", "182155.054000", "182155.057000", "182155.060000", "182155.063000", "182155.066000", "182155.069000", "182155.072000", "182155.074000", "182155.077000", "182155.080000", "182155.083000", "182155.086000", "182155.089000", "182155.092000", "182155.095000", "182155.098000", "182155.100000", "182155.103000", "182155.106000", "182155.109000", "182155.112000", "182155.115000", "182155.118000", "182155.121000", "182235.045000", "182235.048000", "182235.051000", "182235.054000", "182235.057000", "182235.059000", "182235.062000", "182235.065000", "182235.068000", "182235.071000", "182235.074000", "182235.077000", "182235.080000", "182235.083000", "182235.086000", "182235.089000", "182235.091000", "182235.094000", "182235.097000", "182235.100000", "182235.103000", "182235.106000", "182235.109000", "182235.112000", "182235.115000", "182235.118000", "182235.121000", "182315.044000", "182315.047000", "182315.050000", "182315.066000", "182315.069000", "182315.071000", "182315.074000", "182315.078000", "182315.081000", "182315.083000", "182315.086000", "182315.089000", "182315.092000", "182315.095000", "182315.098000", "182315.101000", "182315.104000", "182315.107000", "182315.110000", "182315.112000", "182315.115000", "182315.118000", "182315.121000", "182315.124000", "182315.127000", "182315.130000", "182315.133000", "182355.045000", "182355.048000", "182355.051000", "182355.054000", "182355.057000", "182355.060000", "182355.062000", "182355.065000", "182355.068000", "182355.071000", "182355.074000", "182355.077000", "182355.080000", "182355.083000", "182355.086000", "182355.089000", "182355.092000", "182355.095000", "182355.097000", "182355.100000", "182355.103000", "182355.106000", "182355.109000", "182355.112000", "182355.115000", "182355.118000", "182435.045000", "182435.048000", "182435.051000", "182435.054000", "182435.057000", "182435.060000", "182435.062000", "182435.065000", "182435.068000", "182435.071000", "182435.074000", "182435.077000", "182435.080000", "182435.083000", "182435.086000", "182435.089000", "182435.091000", "182435.094000", "182435.097000", "182435.100000", "182435.103000", "182435.106000", "182435.109000", "182435.112000", "182435.115000", "182435.118000", "182435.121000", "182515.045000", "182515.048000", "182515.051000", "182515.054000", "182515.057000", "182515.060000", "182515.063000", "182515.066000", "182515.069000", "182515.071000", "182515.074000", "182515.095000", "182515.098000", "182515.101000", "182515.104000", "182515.107000", "182515.109000", "182515.112000", "182515.115000", "182515.118000", "182515.121000", "182515.124000", "182515.127000", "182515.130000", "182515.133000", "182515.136000", "182515.139000", "182555.044000", "182555.047000", "182555.050000", "182555.053000", "182555.056000", "182555.059000", "182555.062000", "182555.064000", "182555.067000", "182555.070000", "182555.073000", "182555.076000", "182555.079000", "182555.082000", "182555.085000", "182555.088000", "182555.090000", "182555.093000", "182555.096000", "182555.099000", "182555.102000", "182555.105000", "182555.108000", "182555.111000", "182555.114000", "182555.117000", "182555.128000", "182635.045000", "182635.048000", "182635.051000", "182635.054000", "182635.057000", "182635.060000", "182635.063000", "182635.065000", "182635.068000", "182635.071000", "182635.074000", "182635.077000", "182635.080000", "182635.083000", "182635.086000", "182635.089000", "182635.092000", "182635.094000", "182635.097000", "182635.100000", "182635.103000", "182635.106000", "182635.109000", "182635.112000", "182635.114000", "182635.117000", "182635.120000", "182715.045000", "182715.048000", "182715.051000", "182715.054000", "182715.057000", "182715.059000", "182715.062000", "182715.065000", "182715.068000", "182715.071000", "182715.074000", "182715.077000", "182715.080000", "182715.083000", "182715.085000", "182715.088000", "182715.091000", "182715.094000", "182715.097000", "182715.100000", "182715.103000", "182715.106000", "182715.108000", "182715.111000", "182715.114000", "182715.117000", "182715.120000", "182755.044000", "182755.047000", "182755.050000", "182755.053000", "182755.056000", "182755.059000", "182755.062000", "182755.065000", "182755.068000", "182755.070000", "182755.073000", "182755.076000", "182755.079000", "182755.082000", "182755.085000", "182755.088000", "182755.091000", "182755.094000", "182755.096000", "182755.099000", "182755.102000", "182755.105000", "182755.108000", "182755.111000", "182755.114000", "182755.117000", "182835.045000", "182835.048000", "182835.051000", "182835.054000", "182835.057000", "182835.060000", "182835.063000", "182835.065000", "182835.068000", "182835.071000", "182835.074000", "182835.077000", "182835.080000", "182835.083000", "182835.086000", "182835.089000", "182835.091000", "182835.094000", "182835.097000", "182835.100000", "182835.103000", "182835.106000", "182835.109000", "182835.112000", "182835.115000", "182835.118000", "182835.120000", "182915.045000", "182915.048000", "182915.051000", "182915.054000", "182915.057000", "182915.060000", "182915.063000", "182915.066000", "182915.069000", "182915.072000", "182915.075000", "182915.077000", "182915.081000", "182915.083000", "182915.086000", "182915.089000", "182915.092000", "182915.095000", "182915.098000", "182915.101000", "182915.104000", "182915.106000", "182915.109000", "182915.112000", "182915.115000", "182915.118000", "182915.121000", "182915.562000"],
