{
  "AcquisitionMatrixPE": 104,
  "AcquisitionNumber": 1,
  "AcquisitionTime": "18:30:41.860000",
  "BandwidthPerPixelPhaseEncode": 17.17,
  "BaseResolution": 104,
  "BodyPartExamined": "BRAIN",
  "CoilCombinationMethod": "Sum of Squares",
  "ConsistencyInfo": "N4_VE11C_LATEST_20160120",
  "ConversionSoftware": "dcm2niix",
  "ConversionSoftwareVersion": "v1.0.20220505",
  "DerivedVendorReportedEchoSpacing": 0.000560011,
  "DeviceSerialNumber": "167006",
  "DwellTime": 2.1e-06,
  "EchoTime": 0.037,
  "EchoTrainLength": 104,
  "EffectiveEchoSpacing": 0.000560011,
  "FlipAngle": 52,
  "HeudiconvVersion": "0.5.3.post811+g6206e14",
  "ImageComments": "Unaliased MB4/PE3/LB",
  "ImageOrientationPatientDICOM": [0.999682, -0.0241486, -0.00721328, 0.0197185, 0.927671, -0.372878],
  "ImageOrientationText": "Tra>Cor(-21.9)>Sag(-0.9)",
  "ImageType": [
    "ORIGINAL",
    "PRIMARY",
    "M",
    "MB",
    "ND",
    "MOSAIC"
],
  "ImagingFrequency": 123.259,
  "InPlanePhaseEncodingDirectionDICOM": "COL",
  "InstitutionAddress": "Chemin Queen-Mary 4565,Montreal,District,CA,H3W 1W5",
  "InstitutionName": "IUGM",
  "InstitutionalDepartmentName": "Department",
  "MRAcquisitionType": "2D",
  "MagneticFieldStrength": 3,
  "Manufacturer": "Siemens",
  "ManufacturersModelName": "Prisma_fit",
  "MatrixCoilMode": "SENSE",
  "Modality": "MR",
  "MultibandAccelerationFactor": 4,
  "PartialFourier": 1,
  "PatientPosition": "HFS",
  "PercentPhaseFOV": 100,
  "PercentSampling": 100,
  "PhaseEncodingDirection": "j",
  "PhaseEncodingSteps": 104,
  "PhaseResolution": 1,
  "PixelBandwidth": 2290,
  "ProcedureStepDescription": "video^friends",
  "ProtocolName": "func_task-friends-s06e09a",
  "PulseSequenceDetails": "%CustomerSeq%\\cmrr_mbep2d_bold",
  "ReceiveCoilActiveElements": "HC1-7;NC1,2",
  "ReceiveCoilName": "HeadNeck_64",
  "ReconMatrixPE": 104,
  "RepetitionTime": 1.49,
  "SAR": 0.0672305,
  "ScanOptions": "FS",
  "ScanningSequence": "EP",
  "SequenceName": "epfid2d1_104",
  "SequenceVariant": "SK\\SS",
  "SeriesDescription": "func_task-friends-s06e09a",
  "SeriesNumber": 18,
  "ShimSetting": [622, -7255, -8845, 389, 43, -393, -31, 14],
  "SliceThickness": 2,
  "SliceTiming": [0, 0.785, 0.0975, 0.8825, 0.195, 0.98, 0.295, 1.0775, 0.3925, 1.175, 0.49, 1.275, 0.5875, 1.3725, 0.685, 0, 0.785, 0.0975, 0.8825, 0.195, 0.98, 0.295, 1.0775, 0.3925, 1.175, 0.49, 1.275, 0.5875, 1.3725, 0.685, 0, 0.785, 0.0975, 0.8825, 0.195, 0.98, 0.295, 1.0775, 0.3925, 1.175, 0.49, 1.275, 0.5875, 1.3725, 0.685, 0, 0.785, 0.0975, 0.8825, 0.195, 0.98, 0.295, 1.0775, 0.3925, 1.175, 0.49, 1.275, 0.5875, 1.3725, 0.685],
  "SoftwareVersions": "syngo MR E11",
  "SpacingBetweenSlices": 2,
  "StationName": "MRC35049",
  "TaskName": "s06e09a",
  "TotalReadoutTime": 0.0576811,
  "TxRefAmp": 290.218,
  "WipMemBlock": "9a131494-d75c-44f2-b5c0-d76b11c80d5f||Sequence: R017 ve11c/master r/75a17815+; Jun 28 2022 16:32:11 by eja",
  "dcmmeta_affine": [
    [-1.9993647336959839, 0.039437007158994675, -0.03139200806617737, 97.90454864501953],
    [0.048297103494405746, 1.8553417921066284, -0.7452342510223389, -72.72027587890625],
    [-0.014426550827920437, 0.7457555532455444, 1.8557049036026, -71.13380432128906],
    [0.0, 0.0, 0.0, 1.0]
],
  "dcmmeta_reorient_transform": [
    [0.0, -1.0, 0.0, 103.0],
    [1.0, 0.0, 0.0, 0.0],
    [0.0, 0.0, 1.0, 0.0],
    [0.0, 0.0, 0.0, 1.0]
],
  "dcmmeta_shape": [104, 104, 60, 504],
  "dcmmeta_slice_dim": 2,
  "dcmmeta_version": 0.6,
  "global": {
    "const": {
      "AcquisitionMatrix": [104, 0, 0, 104],
      "AngioFlag": "N",
      "BitsAllocated": 16,
      "BitsStored": 16,
      "BodyPartExamined": "BRAIN",
      "Columns": 832,
      "EchoNumbers": 1,
      "EchoTime": 37.0,
      "EchoTrainLength": 104,
      "FlipAngle": 52.0,
      "HighBit": 15,
      "ImageOrientationPatient": [0.99968235759296, -0.0241485522858, -0.007213275254, 0.01971850297916, 0.9276709188637, -0.3728777908844],
      "ImagePositionPatient": [-844.09038427069, -776.14421754386, 282.38531841878],
      "ImageType": [
        "ORIGINAL",
        "PRIMARY",
        "M",
        "MB",
        "ND",
        "MOSAIC"
],
      "ImagedNucleus": "1H",
      "ImagingFrequency": 123.258806,
      "InPlanePhaseEncodingDirection": "COL",
      "MRAcquisitionType": "2D",
      "MagneticFieldStrength": 3.0,
      "Manufacturer": "SIEMENS",
      "ManufacturerModelName": "Prisma_fit",
      "Modality": "MR",
      "NumberOfAverages": 1.0,
      "NumberOfPhaseEncodingSteps": 104,
      "PercentPhaseFieldOfView": 100.0,
      "PercentSampling": 100.0,
      "PerformedProcedureStepStartTime": "173403.061000",
      "PhotometricInterpretation": "MONOCHROME2",
      "PixelBandwidth": 2290.0,
      "PixelRepresentation": 0,
      "PixelSpacing": [2.0, 2.0],
      "ProtocolName": "func_task-friends-s06e09a",
      "RepetitionTime": 1490.0,
      "Rows": 832,
      "SAR": 0.06723049009978,
      "SamplesPerPixel": 1,
      "ScanOptions": "FS",
      "ScanningSequence": "EP",
      "SequenceName": "epfid2d1_104",
      "SequenceVariant": [
        "SK",
        "SS"
],
      "SeriesDescription": "func_task-friends-s06e09a",
      "SeriesNumber": 18,
      "SeriesTime": "183155.770000",
      "SliceLocation": -40.441562594186,
      "SliceThickness": 2.0,
      "SmallestImagePixelValue": 0,
      "SoftwareVersions": "syngo MR E11",
      "SpacingBetweenSlices": 2.0000000298424,
      "SpecificCharacterSet": "ISO_IR 100",
      "StudyID": "1",
      "StudyTime": "173402.983000",
      "TransmitCoilName": "Body",
      "VariableFlipAngleFlag": "N",
      "WindowCenterWidthExplanation": "Algo1",
      "dBdt": 0.0},
    "slices": {}
  },
  "time": {
    "samples": {
      "AcquisitionNumber": [1, 2, 3, 4, 5, 6, 7, 8, 9, 10, 11, 12, 13, 14, 15, 16, 17, 18, 19, 20, 21, 22, 23, 24, 25, 26, 27, 28, 29, 30, 31, 32, 33, 34, 35, 36, 37, 38, 39, 40, 41, 42, 43, 44, 45, 46, 47, 48, 49, 50, 51, 52, 53, 54, 55, 56, 57, 58, 59, 60, 61, 62, 63, 64, 65, 66, 67, 68, 69, 70, 71, 72, 73, 74, 75, 76, 77, 78, 79, 80, 81, 82, 83, 84, 85, 86, 87, 88, 89, 90, 91, 92, 93, 94, 95, 96, 97, 98, 99, 100, 101, 102, 103, 104, 105, 106, 107, 108, 109, 110, 111, 112, 113, 114, 115, 116, 117, 118, 119, 120, 121, 122, 123, 124, 125, 126, 127, 128, 129, 130, 131, 132, 133, 134, 135, 136, 137, 138, 139, 140, 141, 142, 143, 144, 145, 146, 147, 148, 149, 150, 151, 152, 153, 154, 155, 156, 157, 158, 159, 160, 161, 162, 163, 164, 165, 166, 167, 168, 169, 170, 171, 172, 173, 174, 175, 176, 177, 178, 179, 180, 181, 182, 183, 184, 185, 186, 187, 188, 189, 190, 191, 192, 193, 194, 195, 196, 197, 198, 199, 200, 201, 202, 203, 204, 205, 206, 207, 208, 209, 210, 211, 212, 213, 214, 215, 216, 217, 218, 219, 220, 221, 222, 223, 224, 225, 226, 227, 228, 229, 230, 231, 232, 233, 234, 235, 236, 237, 238, 239, 240, 241, 242, 243, 244, 245, 246, 247, 248, 249, 250, 251, 252, 253, 254, 255, 256, 257, 258, 259, 260, 261, 262, 263, 264, 265, 266, 267, 268, 269, 270, 271, 272, 273, 274, 275, 276, 277, 278, 279, 280, 281, 282, 283, 284, 285, 286, 287, 288, 289, 290, 291, 292, 293, 294, 295, 296, 297, 298, 299, 300, 301, 302, 303, 304, 305, 306, 307, 308, 309, 310, 311, 312, 313, 314, 315, 316, 317, 318, 319, 320, 321, 322, 323, 324, 325, 326, 327, 328, 329, 330, 331, 332, 333, 334, 335, 336, 337, 338, 339, 340, 341, 342, 343, 344, 345, 346, 347, 348, 349, 350, 351, 352, 353, 354, 355, 356, 357, 358, 359, 360, 361, 362, 363, 364, 365, 366, 367, 368, 369, 370, 371, 372, 373, 374, 375, 376, 377, 378, 379, 380, 381, 382, 383, 384, 385, 386, 387, 388, 389, 390, 391, 392, 393, 394, 395, 396, 397, 398, 399, 400, 401, 402, 403, 404, 405, 406, 407, 408, 409, 410, 411, 412, 413, 414, 415, 416, 417, 418, 419, 420, 421, 422, 423, 424, 425, 426, 427, 428, 429, 430, 431, 432, 433, 434, 435, 436, 437, 438, 439, 440, 441, 442, 443, 444, 445, 446, 447, 448, 449, 450, 451, 452, 453, 454, 455, 456, 457, 458, 459, 460, 461, 462, 463, 464, 465, 466, 467, 468, 469, 470, 471, 472, 473, 474, 475, 476, 477, 478, 479, 480, 481, 482, 483, 484, 485, 486, 487, 488, 489, 490, 491, 492, 493, 494, 495, 496, 497, 498, 499, 500, 501, 502, 503, 504],
      "AcquisitionTime": ["183041.860000", "183043.350000", "183044.840000", "183046.330000", "183047.820000", "183049.310000", "183050.800000", "183052.290000", "183053.780000", "183055.270000", "183056.760000", "183058.250000", "183059.740000", "183101.230000", "183102.720000", "183104.210000", "183105.700000", "183107.190000", "183108.680000", "183110.170000", "183111.660000", "183113.150000", "183114.640000", "183116.130000", "183117.620000", "183119.110000", "183120.600000", "183122.090000", "183123.580000", "183125.070000", "183126.560000", "183128.050000", "183129.540000", "183131.030000", "183132.520000", "183134.010000", "183135.500000", "183136.990000", "183138.480000", "183139.970000", "183141.460000", "183142.950000", "183144.440000", "183145.930000", "183147.420000", "183148.910000", "183150.400000", "183151.890000", "183153.380000", "183154.870000", "183156.360000", "183157.850000", "183159.340000", "183200.830000", "183202.320000", "183203.810000", "183205.300000", "183206.790000", "183208.280000", "183209.770000", "183211.260000", "183212.750000", "183214.240000", "183215.730000", "183217.220000", "183218.710000", "183220.200000", "183221.690000", "183223.180000", "183224.670000", "183226.160000", "183227.650000", "183229.140000", "183230.630000", "183232.120000", "183233.610000", "183235.100000", "183236.590000", "183238.080000", "183239.570000", "183241.060000", "183242.550000", "183244.040000", "183245.530000", "183247.020000", "183248.510000", "183250.000000", "183251.490000", "183252.980000", "183254.470000", "183255.960000", "183257.450000", "183258.940000", "183300.430000", "183301.920000", "183303.410000", "183304.900000", "183306.390000", "183307.880000", "183309.370000", "183310.860000", "183312.350000", "183313.840000", "183315.330000", "183316.820000", "183318.310000", "183319.800000", "183321.290000", "183322.780000", "183324.270000", "183325.760000", "183327.250000", "183328.740000", "183330.230000", "183331.720000", "183333.210000", "183334.700000", "183336.190000", "183337.680000", "183339.170000", "183340.660000", "183342.150000", "183343.640000", "183345.130000", "183346.620000", "183348.110000", "183349.600000", "183351.090000", "183352.580000", "183354.070000", "183355.560000", "183357.050000", "183358.540000", "183400.030000", "183401.520000", "183403.010000", "183404.500000", "183405.990000", "183407.480000", "183408.970000", "183410.460000", "183411.950000", "183413.440000", "183414.930000", "183416.420000", "183417.910000", "183419.400000", "183420.890000", "183422.380000", "183423.870000", "183425.360000", "183426.850000", "183428.340000", "183429.830000", "183431.320000", "183432.810000", "183434.300000", "183435.790000", "183437.280000", "183438.770000", "183440.260000", "183441.750000", "183443.240000", "183444.730000", "183446.220000", "183447.710000", "183449.200000", "183450.690000", "183452.180000", "183453.670000", "183455.160000", "183456.650000", "183458.140000", "183459.630000", "183501.120000", "183502.610000", "183504.100000", "183505.590000", "183507.080000", "183508.570000", "183510.060000", "183511.550000", "183513.040000", "183514.530000", "183516.020000", "183517.510000", "183519.000000", "183520.490000", "183521.980000", "183523.470000", "183524.960000", "183526.450000", "183527.940000", "183529.430000", "183530.920000", "183532.410000", "183533.900000", "183535.390000", "183536.880000", "183538.370000", "183539.860000", "183541.350000", "183542.840000", "183544.330000", "183545.820000", "183547.310000", "183548.800000", "183550.290000", "183551.780000", "183553.270000", "183554.760000", "183556.250000", "183557.740000", "183559.230000", "183600.720000", "183602.210000", "183603.700000", "183605.190000", "183606.680000", "183608.170000", "183609.660000", "183611.150000", "183612.640000", "183614.130000", "183615.620000", "183617.110000", "183618.600000", "183620.090000", "183621.580000", "183623.070000", "183624.560000", "183626.050000", "183627.540000", "183629.030000", "183630.520000", "183632.010000", "183633.500000", "183634.990000", "183636.480000", "183637.970000", "183639.460000", "183640.950000", "183642.440000", "183643.930000", "183645.420000", "183646.910000", "183648.400000", "183649.890000", "183651.380000", "183652.870000", "183654.360000", "183655.850000", "183657.340000", "183658.830000", "183700.320000", "183701.810000", "183703.300000", "183704.790000", "183706.280000", "183707.770000", "183709.260000", "183710.750000", "183712.240000", "183713.730000", "183715.220000", "183716.710000", "183718.200000", "183719.690000", "183721.180000", "183722.670000", "183724.160000", "183725.650000", "183727.140000", "183728.630000", "183730.120000", "183731.610000", "183733.100000", "183734.590000", "183736.080000", "183737.570000", "183739.060000", "183740.550000", "183742.040000", "183743.530000", "183745.020000", "183746.510000", "183748.000000", "183749.490000", "183750.980000", "183752.470000", "183753.960000", "183755.450000", "183756.940000", "183758.430000", "183759.920000", "183801.410000", "183802.900000", "183804.390000", "183805.880000", "183807.370000", "183808.860000", "183810.350000", "183811.840000", "183813.330000", "183814.820000", "183816.310000", "183817.800000", "183819.290000", "183820.780000", "183822.270000", "183823.760000", "183825.250000", "183826.740000", "183828.230000", "183829.720000", "183831.210000", "183832.700000", "183834.190000", "183835.680000", "183837.170000", "183838.660000", "183840.150000", "183841.640000", "183843.130000", "183844.620000", "183846.110000", "183847.600000", "183849.090000", "183850.580000", "183852.070000", "183853.560000", "183855.050000", "183856.540000", "183858.030000", "183859.520000", "183901.010000", "183902.500000", "183903.990000", "183905.480000", "183906.970000", "183908.460000", "183909.950000", "183911.440000", "183912.930000", "183914.420000", "183915.910000", "183917.400000", "183918.890000", "183920.380000", "183921.870000", "183923.360000", "183924.850000", "183926.340000", "183927.830000", "183929.320000", "183930.810000", "183932.300000", "183933.790000", "183935.280000", "183936.770000", "183938.260000", "183939.750000", "183941.240000", "183942.730000", "183944.220000", "183945.710000", "183947.200000", "183948.690000", "183950.180000", "183951.670000", "183953.160000", "183954.650000", "183956.140000", "183957.630000", "183959.120000", "184000.610000", "184002.100000", "184003.590000", "184005.080000", "184006.570000", "184008.060000", "184009.550000", "184011.040000", "184012.530000", "184014.020000", "184015.510000", "184017.000000", "184018.490000", "184019.980000", "184021.470000", "184022.960000", "184024.450000", "184025.940000", "184027.430000", "184028.920000", "184030.410000", "184031.900000", "184033.390000", "184034.880000", "184036.370000", "184037.860000", "184039.350000", "184040.840000", "184042.330000", "184043.820000", "184045.310000", "184046.800000", "184048.290000", "184049.780000", "184051.270000", "184052.760000", "184054.250000", "184055.740000", "184057.230000", "184058.720000", "184100.210000", "184101.700000", "184103.190000", "184104.680000", "184106.170000", "184107.660000", "184109.150000", "184110.640000", "184112.130000", "184113.620000", "184115.110000", "184116.600000", "184118.090000", "184119.580000", "184121.070000", "184122.560000", "184124.050000", "184125.540000", "184127.030000", "184128.520000", "184130.010000", "184131.500000", "184132.990000", "184134.480000", "184135.970000", "184137.460000", "184138.950000", "184140.440000", "184141.930000", "184143.420000", "184144.910000", "184146.400000", "184147.890000", "184149.380000", "184150.870000", "184152.360000", "184153.850000", "184155.340000", "184156.830000", "184158.320000", "184159.810000", "184201.300000", "184202.790000", "184204.280000", "184205.770000", "184207.260000", "184208.750000", "184210.240000", "184211.730000", "184213.220000", "184214.710000", "184216.200000", "184217.690000", "184219.180000", "184220.670000", "184222.160000", "184223.650000", "184225.140000", "184226.630000", "184228.120000", "184229.610000", "184231.100000", "184232.590000", "184234.080000", "184235.570000", "184237.060000", "184238.550000", "184240.040000", "184241.530000", "184243.020000", "184244.510000", "184246.000000", "184247.490000", "184248.980000", "184250.470000", "184251.960000", "184253.450000", "184254.940000", "184256.430000", "184257.920000", "184259.410000", "184300.900000", "184302.390000", "184303.880000", "184305.370000", "184306.860000", "184308.350000", "184309.840000", "184311.330000"],
      "ContentTime": ["183155.773000", "183155.776000", "183155.779000", "183155.782000", "183155.785000", "183155.788000", "183155.791000", "183155.793000", "183155.796000", "183155.799000", "183155.802000", "183155.805000", "183155.808000", "183155.811000", "183155.814000", "183155.817000", "183155.819000", "183155.822000", "183155.825000", "183155.828000", "183155.838000", "183155.841000", "183155.844000", "183155.847000", "183215.732000", "183215.735000", "183215.738000", "183215.741000", "183215.744000", "183215.749000", "183215.752000", "183215.755000", "183215.758000", "183215.761000", "183215.764000", "183215.767000", "183215.770000", "183215.773000", "183215.776000", "183215.779000", "183215.781000", "183215.784000", "183215.787000", "183215.790000", "183235.732000", "183235.735000", "183235.738000", "183235.741000", "183235.743000", "183235.746000", "183235.753000", "183235.756000", "183235.759000", "183235.762000", "183235.765000", "183235.768000", "183235.771000", "183235.774000", "183235.777000", "183235.780000", "183235.783000", "183235.786000", "183235.789000", "183235.792000", "183255.733000", "183255.736000", "183255.739000", "183255.742000", "183255.745000", "183255.747000", "183255.750000", "183255.753000", "183255.756000", "183255.759000", "183255.762000", "183255.765000", "183255.768000", "183255.771000", "183255.774000", "183255.776000", "183255.779000", "183255.782000", "183255.785000", "183255.788000", "183335.733000", "183335.736000", "183335.739000", "183335.742000", "183335.745000", "183335.747000", "183335.750000", "183335.753000", "183335.756000", "183335.759000", "183335.762000", "183335.765000", "183335.768000", "183335.771000", "183335.774000", "183335.777000", "183335.779000", "183335.782000", "183335.785000", "183335.788000", "183335.791000", "183335.794000", "183335.797000", "183335.800000", "183335.803000", "183335.805000", "183335.808000", "183335.811000", "183335.814000", "183335.824000", "183335.826000", "183335.829000", "183415.732000", "183415.735000", "183415.738000", "183415.741000", "183415.744000", "183415.747000", "183415.750000", "183415.752000", "183415.755000", "183415.758000", "183415.761000", "183415.764000", "183415.767000", "183415.770000", "183415.773000", "183415.776000", "183415.779000", "183415.782000", "183415.784000", "183415.787000", "183415.790000", "183415.793000", "183415.796000", "183415.799000", "183415.802000", "183415.804000", "183415.807000", "183455.732000", "183455.735000", "183455.738000", "183455.741000", "183455.744000", "183455.747000", "183455.750000", "183455.753000", "183455.755000", "183455.758000", "183455.761000", "183455.764000", "183455.767000", "183455.770000", "183455.773000", "183455.776000", "183455.779000", "183455.783000", "183455.786000", "183455.789000", "183455.792000", "183455.795000", "183455.798000", "183455.800000", "183455.803000", "183455.806000", "183535.733000", "183535.736000", "183535.739000", "183535.742000", "183535.745000", "183535.748000", "183535.751000", "183535.754000", "183535.757000", "183535.759000", "183535.762000", "183535.765000", "183535.768000", "183535.771000", "183535.774000", "183535.777000", "183535.780000", "183535.783000", "183535.801000", "183535.804000", "183535.807000", "183535.809000", "183535.812000", "183535.815000", "183535.818000", "183535.821000", "183535.824000", "183615.733000", "183615.736000", "183615.739000", "183615.742000", "183615.745000", "183615.748000", "183615.751000", "183615.753000", "183615.756000", "183615.759000", "183615.762000", "183615.765000", "183615.768000", "183615.771000", "183615.774000", "183615.777000", "183615.780000", "183615.783000", "183615.786000", "183615.788000", "183615.791000", "183615.794000", "183615.797000", "183615.800000", "183615.811000", "183615.814000", "183615.816000", "183655.732000", "183655.735000", "183655.738000", "183655.741000", "183655.744000", "183655.747000", "183655.750000", "183655.753000", "183655.756000", "183655.758000", "183655.761000", "183655.764000", "183655.767000", "183655.770000", "183655.773000", "183655.776000", "183655.779000", "183655.782000", "183655.785000", "183655.788000", "183655.791000", "183655.793000", "183655.796000", "183655.799000", "183655.802000", "183655.805000", "183655.808000", "183735.733000", "183735.736000", "183735.739000", "183735.742000", "183735.745000", "183735.748000", "183735.751000", "183735.754000", "183735.756000", "183735.759000", "183735.762000", "183735.765000", "183735.768000", "183735.771000", "183735.774000", "183735.777000", "183735.780000", "183735.783000", "183735.786000", "183735.789000", "183735.792000", "183735.794000", "183735.797000", "183735.800000", "183735.803000", "183735.806000", "183735.809000", "183815.733000", "183815.736000", "183815.739000", "183815.742000", "183815.745000", "183815.748000", "183815.751000", "183815.753000", "183815.756000", "183815.759000", "183815.762000", "183815.765000", "183815.768000", "183815.771000", "183815.774000", "183815.777000", "183815.779000", "183815.782000", "183815.785000", "183815.788000", "183815.791000", "183815.794000", "183815.797000", "183815.800000", "183815.803000", "183815.806000", "183815.809000", "183855.732000", "183855.735000", "183855.738000", "183855.741000", "183855.744000", "183855.747000", "183855.750000", "183855.753000", "183855.756000", "183855.758000", "183855.761000", "183855.764000", "183855.767000", "183855.770000", "183855.773000", "183855.776000", "183855.779000", "183855.782000", "183855.785000", "183855.788000", "183855.791000", "183855.794000", "183855.797000", "183855.800000", "183855.802000", "183855.805000", "183915.732000", "183915.735000", "183915.738000", "183915.741000", "183915.744000", "183915.747000", "183915.750000", "183915.753000", "183915.756000", "183915.758000", "183915.761000", "183915.764000", "183915.767000", "183915.770000", "183955.733000", "183955.736000", "183955.739000", "183955.742000", "183955.745000", "183955.748000", "183955.751000", "183955.753000", "183955.756000", "183955.759000", "183955.762000", "183955.765000", "183955.768000", "183955.771000", "183955.774000", "183955.777000", "183955.780000", "183955.782000", "183955.785000", "183955.788000", "183955.791000", "183955.794000", "183955.797000", "183955.800000", "183955.803000", "183955.806000", "183955.809000", "184035.733000", "184035.736000", "184035.739000", "184035.742000", "184035.762000", "184035.766000", "184035.769000", "184035.771000", "184035.782000", "184035.785000", "184035.787000", "184035.790000", "184035.793000", "184035.796000", "184035.799000", "184035.802000", "184035.805000", "184035.808000", "184035.811000", "184035.814000", "184035.817000", "184035.820000", "184035.823000", "184035.825000", "184035.828000", "184035.831000", "184035.834000", "184115.732000", "184115.735000", "184115.738000", "184115.741000", "184115.744000", "184115.747000", "184115.750000", "184115.753000", "184115.756000", "184115.759000", "184115.761000", "184115.764000", "184115.767000", "184115.770000", "184115.773000", "184115.776000", "184115.779000", "184115.782000", "184115.785000", "184115.788000", "184115.791000", "184115.794000", "184115.796000", "184115.799000", "184115.802000", "184115.805000", "184155.732000", "184155.735000", "184155.738000", "184155.741000", "184155.744000", "184155.747000", "184155.750000", "184155.753000", "184155.756000", "184155.758000", "184155.761000", "184155.764000", "184155.767000", "184155.770000", "184155.773000", "184155.776000", "184155.779000", "184155.782000", "184155.785000", "184155.787000", "184155.790000", "184155.793000", "184155.796000", "184155.799000", "184155.802000", "184155.805000", "184155.808000", "184235.733000", "184235.736000", "184235.739000", "184235.742000", "184235.745000", "184235.748000", "184235.751000", "184235.754000", "184235.757000", "184235.771000", "184235.773000", "184235.776000", "184235.779000", "184235.782000", "184235.785000", "184235.788000", "184235.791000", "184235.794000", "184235.797000", "184235.800000", "184235.803000", "184235.806000", "184235.809000", "184235.812000", "184235.815000", "184235.818000", "184235.820000", "184313.622000", "184313.625000", "184313.628000", "184313.631000", "184313.634000", "184313.637000", "184313.640000", "184313.643000", "184313.646000", "184313.649000", "184313.652000", "184313.655000", "184313.658000", "184313.660000", "184313.663000", "184313.666000", "184313.669000", "184313.672000", "184313.675000", "184313.678000", "184313.681000", "184313.684000", "184313.687000", "184313.690000", "184313.693000", "184313.696000"],
