{
  "AcquisitionMatrixPE": 104,
  "AcquisitionNumber": 1,
  "AcquisitionTime": "11:37:16.377500",
  "BandwidthPerPixelPhaseEncode": 17.17,
  "BaseResolution": 104,
  "BodyPartExamined": "BRAIN",
  "CoilString": "HC1-7;NC1_2",
  "ConsistencyInfo": "N4_VE11C_LATEST_20160120",
  "ConversionSoftware": "dcm2niix",
  "ConversionSoftwareVersion": "v1.0.20190720  (JP2:OpenJPEG) GCC7.3.0",
  "DerivedVendorReportedEchoSpacing": 0.000560011,
  "DeviceSerialNumber": "167006",
  "DwellTime": 2.1e-06,
  "EchoTime": 0.037,
  "EchoTrainLength": 104,
  "EffectiveEchoSpacing": 0.000560011,
  "FlipAngle": 52,
  "ImageComments": "Unaliased_MB4_PE3_LB",
  "ImageOrientationPatientDICOM": [0.999903, -0.0114563, 0.00789211, 0.0134386, 0.942103, -0.335055],
  "ImageType": [
    "ORIGINAL",
    "PRIMARY",
    "M",
    "MB",
    "ND",
    "MOSAIC"
],
  "ImagingFrequency": 123.26,
  "InPlanePhaseEncodingDirectionDICOM": "COL",
  "InstitutionAddress": "Chemin_Queen-Mary_4565_Montreal_District_CA_H3W_1W5",
  "InstitutionName": "IUGM",
  "InstitutionalDepartmentName": "Department",
  "MRAcquisitionType": "2D",
  "MagneticFieldStrength": 3,
  "Manufacturer": "Siemens",
  "ManufacturersModelName": "Prisma_fit",
  "Modality": "MR",
  "MultibandAccelerationFactor": 4,
  "PartialFourier": 1,
  "PatientPosition": "HFS",
  "PercentPhaseFOV": 100,
  "PhaseEncodingDirection": "j",
  "PhaseEncodingSteps": 104,
  "PhaseResolution": 1,
  "PixelBandwidth": 2290,
  "ProcedureStepDescription": "video_friends",
  "ProtocolName": "func_task-s01e02b",
  "PulseSequenceDetails": "%CustomerSeq%_cmrr_mbep2d_bold",
  "ReceiveCoilActiveElements": "HC1-7;NC1,2",
  "ReceiveCoilName": "HeadNeck_64",
  "ReconMatrixPE": 104,
  "RepetitionTime": 1.49,
  "SAR": 0.0303893,
  "ScanOptions": "FS",
  "ScanningSequence": "EP",
  "SequenceName": "epfid2d1_104",
  "SequenceVariant": "SK_SS",
  "SeriesDescription": "func_task-s01e02b",
  "SeriesNumber": 21,
  "ShimSetting": [628, -7170, -8821, 676, 36, 161, 19, -7],
  "SliceThickness": 2,
  "SliceTiming": [0, 0.7825, 0.0975, 0.88, 0.195, 0.98, 0.2925, 1.0775, 0.39, 1.175, 0.49, 1.2725, 0.5875, 1.37, 0.685, 0, 0.7825, 0.0975, 0.88, 0.195, 0.98, 0.2925, 1.0775, 0.39, 1.175, 0.49, 1.2725, 0.5875, 1.37, 0.685, 0, 0.7825, 0.0975, 0.88, 0.195, 0.98, 0.2925, 1.0775, 0.39, 1.175, 0.49, 1.2725, 0.5875, 1.37, 0.685, 0, 0.7825, 0.0975, 0.88, 0.195, 0.98, 0.2925, 1.0775, 0.39, 1.175, 0.49, 1.2725, 0.5875, 1.37, 0.685],
  "SoftwareVersions": "syngo_MR_E11",
  "SpacingBetweenSlices": 2,
  "StationName": "MRC35049",
  "TaskName": "friends",
  "TotalReadoutTime": 0.0576811,
  "TxRefAmp": 210.594,
  "WipMemBlock": "9a38aea3-0f23-415a-8d91-70cde5528cb7||Sequence: R016 ve11c/master r/e634e98; Dec 19 2017 11:00:25 by eja",
  "dcmmeta_affine": [
    [-1.9998064041137695, 0.02687716670334339, 0.0071933940052986145, 102.83158874511719],
    [0.022912560030817986, 1.8842055797576904, -0.6702569127082825, -78.381103515625],
    [0.01578422077000141, 0.6701096892356873, 1.8843311071395874, -71.97803497314453],
    [0.0, 0.0, 0.0, 1.0]
],
  "dcmmeta_reorient_transform": [
    [0.0, -1.0, 0.0, 103.0],
    [1.0, 0.0, 0.0, 0.0],
    [0.0, 0.0, 1.0, 0.0],
    [0.0, 0.0, 0.0, 1.0]
],
  "dcmmeta_shape": [104, 104, 60, 472],
  "dcmmeta_slice_dim": 2,
  "dcmmeta_version": 0.6,
  "global": {
    "const": {
      "AcquisitionMatrix": [104, 0, 0, 104],
      "AngioFlag": "N",
      "BitsAllocated": 16,
      "BitsStored": 16,
      "BodyPartExamined": "BRAIN",
      "Columns": 832,
      "EchoNumbers": 1,
      "EchoTime": 37.0,
      "EchoTrainLength": 104,
      "FlipAngle": 52.0,
      "HighBit": 15,
      "ImageOrientationPatient": [0.99990322944334, -0.011456279703, 0.0078921102465, 0.0134385832052, 0.94210278664011, -0.3350548371332],
      "ImagePositionPatient": [-843.31277546186, -793.20272661163, 235.21772601953],
      "ImageType": [
        "ORIGINAL",
        "PRIMARY",
        "M",
        "MB",
        "ND",
        "MOSAIC"
],
      "ImagedNucleus": "1H",
      "ImagingFrequency": 123.259525,
      "InPlanePhaseEncodingDirection": "COL",
      "MRAcquisitionType": "2D",
      "MagneticFieldStrength": 3.0,
      "Manufacturer": "SIEMENS",
      "ManufacturerModelName": "Prisma_fit",
      "Modality": "MR",
      "NumberOfAverages": 1.0,
      "NumberOfPhaseEncodingSteps": 104,
      "PercentPhaseFieldOfView": 100.0,
      "PercentSampling": 100.0,
      "PerformedProcedureStepStartTime": "102922.228000",
      "PhotometricInterpretation": "MONOCHROME2",
      "PixelBandwidth": 2290.0,
      "PixelRepresentation": 0,
      "PixelSpacing": [2.0, 2.0],
      "ProtocolName": "func_task-s01e02b",
      "RepetitionTime": 1490.0,
      "Rows": 832,
      "SAR": 0.03038934864771,
      "SamplesPerPixel": 1,
      "ScanOptions": "FS",
      "ScanningSequence": "EP",
      "SequenceName": "epfid2d1_104",
      "SequenceVariant": [
        "SK",
        "SS"
],
      "SeriesDescription": "func_task-s01e02b",
      "SeriesNumber": 21,
      "SeriesTime": "113856.851000",
      "SliceLocation": -41.177633408466,
      "SliceThickness": 2.0,
      "SmallestImagePixelValue": 0,
      "SoftwareVersions": "syngo MR E11",
      "SpacingBetweenSlices": 1.9999999303852,
      "SpecificCharacterSet": "ISO_IR 100",
      "StudyID": "1",
      "StudyTime": "102922.156000",
      "TransmitCoilName": "Body",
      "VariableFlipAngleFlag": "N",
      "WindowCenterWidthExplanation": "Algo1",
      "dBdt": 0.0},
    "slices": {}
  },
  "time": {
    "samples": {
      "AcquisitionNumber": [1, 2, 3, 4, 5, 6, 7, 8, 9, 10, 11, 12, 13, 14, 15, 16, 17, 18, 19, 20, 21, 22, 23, 24, 25, 26, 27, 28, 29, 30, 31, 32, 33, 34, 35, 36, 37, 38, 39, 40, 41, 42, 43, 44, 45, 46, 47, 48, 49, 50, 51, 52, 53, 54, 55, 56, 57, 58, 59, 60, 61, 62, 63, 64, 65, 66, 67, 68, 69, 70, 71, 72, 73, 74, 75, 76, 77, 78, 79, 80, 81, 82, 83, 84, 85, 86, 87, 88, 89, 90, 91, 92, 93, 94, 95, 96, 97, 98, 99, 100, 101, 102, 103, 104, 105, 106, 107, 108, 109, 110, 111, 112, 113, 114, 115, 116, 117, 118, 119, 120, 121, 122, 123, 124, 125, 126, 127, 128, 129, 130, 131, 132, 133, 134, 135, 136, 137, 138, 139, 140, 141, 142, 143, 144, 145, 146, 147, 148, 149, 150, 151, 152, 153, 154, 155, 156, 157, 158, 159, 160, 161, 162, 163, 164, 165, 166, 167, 168, 169, 170, 171, 172, 173, 174, 175, 176, 177, 178, 179, 180, 181, 182, 183, 184, 185, 186, 187, 188, 189, 190, 191, 192, 193, 194, 195, 196, 197, 198, 199, 200, 201, 202, 203, 204, 205, 206, 207, 208, 209, 210, 211, 212, 213, 214, 215, 216, 217, 218, 219, 220, 221, 222, 223, 224, 225, 226, 227, 228, 229, 230, 231, 232, 233, 234, 235, 236, 237, 238, 239, 240, 241, 242, 243, 244, 245, 246, 247, 248, 249, 250, 251, 252, 253, 254, 255, 256, 257, 258, 259, 260, 261, 262, 263, 264, 265, 266, 267, 268, 269, 270, 271, 272, 273, 274, 275, 276, 277, 278, 279, 280, 281, 282, 283, 284, 285, 286, 287, 288, 289, 290, 291, 292, 293, 294, 295, 296, 297, 298, 299, 300, 301, 302, 303, 304, 305, 306, 307, 308, 309, 310, 311, 312, 313, 314, 315, 316, 317, 318, 319, 320, 321, 322, 323, 324, 325, 326, 327, 328, 329, 330, 331, 332, 333, 334, 335, 336, 337, 338, 339, 340, 341, 342, 343, 344, 345, 346, 347, 348, 349, 350, 351, 352, 353, 354, 355, 356, 357, 358, 359, 360, 361, 362, 363, 364, 365, 366, 367, 368, 369, 370, 371, 372, 373, 374, 375, 376, 377, 378, 379, 380, 381, 382, 383, 384, 385, 386, 387, 388, 389, 390, 391, 392, 393, 394, 395, 396, 397, 398, 399, 400, 401, 402, 403, 404, 405, 406, 407, 408, 409, 410, 411, 412, 413, 414, 415, 416, 417, 418, 419, 420, 421, 422, 423, 424, 425, 426, 427, 428, 429, 430, 431, 432, 433, 434, 435, 436, 437, 438, 439, 440, 441, 442, 443, 444, 445, 446, 447, 448, 449, 450, 451, 452, 453, 454, 455, 456, 457, 458, 459, 460, 461, 462, 463, 464, 465, 466, 467, 468, 469, 470, 471, 472],
      "AcquisitionTime": ["113716.377500", "113717.867500", "113719.357500", "113720.847500", "113722.337500", "113723.827500", "113725.317500", "113726.807500", "113728.297500", "113729.787500", "113731.277500", "113732.767500", "113734.257500", "113735.747500", "113737.237500", "113738.727500", "113740.217500", "113741.707500", "113743.197500", "113744.687500", "113746.177500", "113747.667500", "113749.157500", "113750.647500", "113752.137500", "113753.627500", "113755.117500", "113756.607500", "113758.097500", "113759.587500", "113801.077500", "113802.567500", "113804.057500", "113805.547500", "113807.037500", "113808.527500", "113810.017500", "113811.507500", "113812.997500", "113814.487500", "113815.977500", "113817.467500", "113818.957500", "113820.447500", "113821.937500", "113823.427500", "113824.917500", "113826.407500", "113827.897500", "113829.387500", "113830.877500", "113832.367500", "113833.857500", "113835.347500", "113836.837500", "113838.327500", "113839.817500", "113841.307500", "113842.797500", "113844.287500", "113845.777500", "113847.267500", "113848.757500", "113850.247500", "113851.737500", "113853.227500", "113854.717500", "113856.207500", "113857.697500", "113859.187500", "113900.677500", "113902.167500", "113903.657500", "113905.147500", "113906.637500", "113908.127500", "113909.617500", "113911.107500", "113912.597500", "113914.087500", "113915.577500", "113917.067500", "113918.557500", "113920.047500", "113921.537500", "113923.027500", "113924.517500", "113926.007500", "113927.497500", "113928.987500", "113930.477500", "113931.967500", "113933.457500", "113934.947500", "113936.437500", "113937.927500", "113939.417500", "113940.907500", "113942.397500", "113943.887500", "113945.377500", "113946.867500", "113948.357500", "113949.847500", "113951.337500", "113952.827500", "113954.317500", "113955.807500", "113957.297500", "113958.787500", "114000.277500", "114001.767500", "114003.257500", "114004.747500", "114006.237500", "114007.727500", "114009.217500", "114010.707500", "114012.197500", "114013.687500", "114015.177500", "114016.667500", "114018.157500", "114019.647500", "114021.137500", "114022.627500", "114024.117500", "114025.607500", "114027.097500", "114028.587500", "114030.077500", "114031.567500", "114033.057500", "114034.547500", "114036.037500", "114037.527500", "114039.017500", "114040.507500", "114041.997500", "114043.487500", "114044.977500", "114046.467500", "114047.957500", "114049.447500", "114050.937500", "114052.427500", "114053.917500", "114055.407500", "114056.897500", "114058.387500", "114059.877500", "114101.367500", "114102.857500", "114104.347500", "114105.837500", "114107.327500", "114108.817500", "114110.307500", "114111.797500", "114113.287500", "114114.777500", "114116.267500", "114117.757500", "114119.247500", "114120.737500", "114122.227500", "114123.717500", "114125.207500", "114126.697500", "114128.187500", "114129.677500", "114131.167500", "114132.657500", "114134.147500", "114135.637500", "114137.127500", "114138.617500", "114140.107500", "114141.597500", "114143.087500", "114144.577500", "114146.067500", "114147.557500", "114149.047500", "114150.537500", "114152.027500", "114153.517500", "114155.007500", "114156.497500", "114157.987500", "114159.477500", "114200.967500", "114202.457500", "114203.947500", "114205.437500", "114206.927500", "114208.417500", "114209.907500", "114211.397500", "114212.887500", "114214.377500", "114215.867500", "114217.357500", "114218.847500", "114220.337500", "114221.827500", "114223.317500", "114224.807500", "114226.297500", "114227.787500", "114229.277500", "114230.767500", "114232.257500", "114233.747500", "114235.237500", "114236.727500", "114238.217500", "114239.707500", "114241.197500", "114242.687500", "114244.177500", "114245.667500", "114247.157500", "114248.647500", "114250.137500", "114251.627500", "114253.117500", "114254.607500", "114256.097500", "114257.587500", "114259.077500", "114300.567500", "114302.057500", "114303.547500", "114305.037500", "114306.527500", "114308.017500", "114309.507500", "114310.997500", "114312.487500", "114313.977500", "114315.467500", "114316.957500", "114318.447500", "114319.937500", "114321.427500", "114322.917500", "114324.407500", "114325.897500", "114327.387500", "114328.877500", "114330.367500", "114331.857500", "114333.347500", "114334.837500", "114336.327500", "114337.817500", "114339.307500", "114340.797500", "114342.287500", "114343.777500", "114345.267500", "114346.757500", "114348.247500", "114349.737500", "114351.227500", "114352.717500", "114354.207500", "114355.697500", "114357.187500", "114358.677500", "114400.167500", "114401.657500", "114403.147500", "114404.637500", "114406.127500", "114407.617500", "114409.107500", "114410.597500", "114412.087500", "114413.577500", "114415.067500", "114416.557500", "114418.047500", "114419.537500", "114421.027500", "114422.517500", "114424.007500", "114425.497500", "114426.987500", "114428.477500", "114429.967500", "114431.457500", "114432.947500", "114434.437500", "114435.927500", "114437.417500", "114438.907500", "114440.397500", "114441.887500", "114443.377500", "114444.867500", "114446.357500", "114447.847500", "114449.337500", "114450.827500", "114452.317500", "114453.807500", "114455.297500", "114456.787500", "114458.277500", "114459.767500", "114501.257500", "114502.747500", "114504.237500", "114505.727500", "114507.217500", "114508.707500", "114510.197500", "114511.687500", "114513.177500", "114514.667500", "114516.157500", "114517.647500", "114519.137500", "114520.627500", "114522.117500", "114523.607500", "114525.097500", "114526.587500", "114528.077500", "114529.567500", "114531.057500", "114532.547500", "114534.037500", "114535.527500", "114537.017500", "114538.507500", "114539.997500", "114541.487500", "114542.977500", "114544.467500", "114545.957500", "114547.447500", "114548.937500", "114550.427500", "114551.917500", "114553.407500", "114554.897500", "114556.387500", "114557.877500", "114559.367500", "114600.857500", "114602.347500", "114603.837500", "114605.327500", "114606.817500", "114608.307500", "114609.797500", "114611.287500", "114612.777500", "114614.267500", "114615.757500", "114617.247500", "114618.737500", "114620.227500", "114621.717500", "114623.207500", "114624.697500", "114626.187500", "114627.677500", "114629.167500", "114630.657500", "114632.147500", "114633.637500", "114635.127500", "114636.617500", "114638.107500", "114639.597500", "114641.087500", "114642.577500", "114644.067500", "114645.557500", "114647.047500", "114648.537500", "114650.027500", "114651.517500", "114653.007500", "114654.497500", "114655.987500", "114657.477500", "114658.967500", "114700.457500", "114701.947500", "114703.437500", "114704.927500", "114706.417500", "114707.907500", "114709.397500", "114710.887500", "114712.377500", "114713.867500", "114715.357500", "114716.847500", "114718.337500", "114719.827500", "114721.317500", "114722.807500", "114724.297500", "114725.787500", "114727.277500", "114728.767500", "114730.257500", "114731.747500", "114733.237500", "114734.727500", "114736.217500", "114737.707500", "114739.197500", "114740.687500", "114742.177500", "114743.667500", "114745.157500", "114746.647500", "114748.137500", "114749.627500", "114751.117500", "114752.607500", "114754.097500", "114755.587500", "114757.077500", "114758.567500", "114800.057500", "114801.547500", "114803.037500", "114804.527500", "114806.017500", "114807.507500", "114808.997500", "114810.487500", "114811.977500", "114813.467500", "114814.957500", "114816.447500", "114817.937500", "114819.427500", "114820.917500", "114822.407500", "114823.897500", "114825.387500", "114826.877500", "114828.367500", "114829.857500", "114831.347500", "114832.837500", "114834.327500", "114835.817500", "114837.307500", "114838.797500", "114840.287500", "114841.777500", "114843.267500", "114844.757500", "114846.247500", "114847.737500", "114849.227500", "114850.717500", "114852.207500", "114853.697500", "114855.187500", "114856.677500", "114858.167500"],
      "ContentTime": ["113856.854000", "113856.857000", "113856.860000", "113856.863000", "113856.866000", "113856.869000", "113856.871000", "113856.874000", "113856.877000", "113856.880000", "113856.883000", "113856.886000", "113856.889000", "113856.898000", "113856.901000", "113856.904000", "113856.907000", "113856.910000", "113856.912000", "113856.915000", "113856.918000", "113856.925000", "113856.928000", "113856.931000", "113856.934000", "113856.937000", "113856.940000", "113856.943000", "113856.945000", "113856.948000", "113856.951000", "113856.954000", "113856.957000", "113856.960000", "113856.962000", "113916.805000", "113916.808000", "113916.811000", "113916.814000", "113916.817000", "113916.820000", "113916.823000", "113916.826000", "113916.829000", "113916.833000", "113916.836000", "113916.839000", "113916.844000", "113916.848000", "113916.851000", "113916.854000", "113916.857000", "113916.860000", "113916.863000", "113916.866000", "113936.804000", "113936.807000", "113936.811000", "113936.814000", "113936.816000", "113936.819000", "113936.822000", "113936.825000", "113936.828000", "113936.831000", "113936.834000", "113936.837000", "113936.840000", "113936.842000", "113936.845000", "113936.848000", "113936.851000", "113936.854000", "113936.857000", "113936.859000", "113956.804000", "113956.807000", "113956.810000", "113956.813000", "113956.815000", "113956.818000", "113956.821000", "113956.824000", "113956.827000", "113956.830000", "113956.833000", "113956.835000", "113956.838000", "113956.841000", "113956.844000", "113956.847000", "113956.850000", "113956.853000", "113956.856000", "113956.859000", "114016.804000", "114016.807000", "114016.810000", "114016.813000", "114016.816000", "114016.819000", "114016.821000", "114016.824000", "114016.827000", "114016.830000", "114016.833000", "114016.836000", "114016.839000", "114016.841000", "114016.844000", "114016.847000", "114016.850000", "114016.853000", "114016.856000", "114016.859000", "114056.804000", "114056.807000", "114056.810000", "114056.813000", "114056.816000", "114056.819000", "114056.821000", "114056.824000", "114056.827000", "114056.830000", "114056.833000", "114056.836000", "114056.838000", "114056.841000", "114056.844000", "114056.847000", "114056.850000", "114056.853000", "114056.856000", "114056.859000", "114056.861000", "114056.864000", "114056.867000", "114056.870000", "114056.873000", "114056.876000", "114056.879000", "114056.881000", "114056.884000", "114056.887000", "114056.890000", "114056.893000", "114136.805000", "114136.808000", "114136.811000", "114136.814000", "114136.825000", "114136.828000", "114136.831000", "114136.834000", "114136.837000", "114136.839000", "114136.842000", "114136.845000", "114136.848000", "114136.851000", "114136.854000", "114136.857000", "114136.860000", "114136.862000", "114136.865000", "114136.868000", "114136.871000", "114136.874000", "114136.877000", "114136.880000", "114136.883000", "114136.886000", "114136.888000", "114216.804000", "114216.807000", "114216.810000", "114216.813000", "114216.816000", "114216.819000", "114216.822000", "114216.824000", "114216.827000", "114216.830000", "114216.833000", "114216.836000", "114216.839000", "114216.842000", "114216.845000", "114216.848000", "114216.851000", "114216.854000", "114216.857000", "114216.860000", "114216.863000", "114216.884000", "114216.887000", "114216.890000", "114216.893000", "114216.896000", "114256.804000", "114256.807000", "114256.810000", "114256.813000", "114256.816000", "114256.818000", "114256.821000", "114256.824000", "114256.827000", "114256.830000", "114256.833000", "114256.836000", "114256.839000", "114256.841000", "114256.844000", "114256.847000", "114256.850000", "114256.853000", "114256.856000", "114256.858000", "114256.861000", "114256.864000", "114256.867000", "114256.870000", "114256.873000", "114256.876000", "114256.879000", "114336.805000", "114336.808000", "114336.811000", "114336.814000", "114336.817000", "114336.819000", "114336.822000", "114336.825000", "114336.828000", "114336.831000", "114336.834000", "114336.837000", "114336.840000", "114336.842000", "114336.845000", "114336.848000", "114336.851000", "114336.854000", "114336.857000", "114336.860000", "114336.863000", "114336.865000", "114336.868000", "114336.871000", "114336.874000", "114336.877000", "114336.880000", "114416.804000", "114416.807000", "114416.810000", "114416.813000", "114416.816000", "114416.819000", "114416.822000", "114416.824000", "114416.827000", "114416.830000", "114416.833000", "114416.836000", "114416.839000", "114416.842000", "114416.845000", "114416.847000", "114416.850000", "114416.853000", "114416.856000", "114416.859000", "114416.862000", "114416.865000", "114416.868000", "114416.870000", "114416.873000", "114416.876000", "114416.879000", "114456.804000", "114456.807000", "114456.810000", "114456.813000", "114456.815000", "114456.818000", "114456.821000", "114456.824000", "114456.827000", "114456.830000", "114456.833000", "114456.836000", "114456.838000", "114456.841000", "114456.844000", "114456.847000", "114456.850000", "114456.853000", "114456.855000", "114456.858000", "114456.861000", "114456.864000", "114456.867000", "114456.870000", "114456.873000", "114456.876000", "114456.878000", "114536.804000", "114536.807000", "114536.810000", "114536.813000", "114536.815000", "114536.818000", "114536.821000", "114536.824000", "114536.827000", "114536.830000", "114536.833000", "114536.836000", "114536.838000", "114536.841000", "114536.844000", "114536.847000", "114536.850000", "114536.853000", "114536.856000", "114536.859000", "114536.861000", "114536.864000", "114536.867000", "114536.870000", "114536.873000", "114536.876000", "114536.879000", "114616.805000", "114616.808000", "114616.811000", "114616.814000", "114616.817000", "114616.820000", "114616.822000", "114616.825000", "114616.828000", "114616.831000", "114616.834000", "114616.837000", "114616.840000", "114616.843000", "114616.846000", "114616.848000", "114616.851000", "114616.854000", "114616.857000", "114616.860000", "114616.863000", "114616.866000", "114616.868000", "114616.871000", "114616.874000", "114616.877000", "114616.880000", "114656.804000", "114656.807000", "114656.810000", "114656.813000", "114656.816000", "114656.819000", "114656.822000", "114656.825000", "114656.827000", "114656.830000", "114656.833000", "114656.836000", "114656.839000", "114656.842000", "114656.845000", "114656.848000", "114656.866000", "114656.869000", "114656.872000", "114656.875000", "114656.878000", "114656.880000", "114656.883000", "114656.886000", "114656.889000", "114656.892000", "114736.804000", "114736.807000", "114736.810000", "114736.813000", "114736.816000", "114736.819000", "114736.822000", "114736.824000", "114736.827000", "114736.830000", "114736.833000", "114736.836000", "114736.839000", "114736.842000", "114736.845000", "114736.847000", "114736.850000", "114736.853000", "114736.856000", "114736.859000", "114736.862000", "114736.865000", "114736.867000", "114736.870000", "114736.873000", "114736.876000", "114736.879000", "114816.805000", "114816.808000", "114816.811000", "114816.814000", "114816.817000", "114816.820000", "114816.823000", "114816.826000", "114816.829000", "114816.832000", "114816.835000", "114816.837000", "114816.840000", "114816.843000", "114816.846000", "114816.849000", "114816.852000", "114816.855000", "114816.857000", "114816.860000", "114816.863000", "114816.866000", "114816.869000", "114816.872000", "114816.875000", "114816.877000", "114816.880000", "114856.804000", "114856.807000", "114856.810000", "114856.813000", "114856.816000", "114856.819000", "114856.822000", "114856.824000", "114856.827000", "114856.830000", "114856.833000", "114856.836000", "114856.839000", "114856.842000", "114856.845000", "114856.848000", "114856.851000", "114856.854000", "114856.857000", "114856.860000", "114856.863000", "114856.866000", "114856.868000", "114856.871000", "114856.874000", "114856.877000", "114856.880000", "114900.648000", "114900.651000", "114900.654000"],
