{
  "AcquisitionMatrixPE": 104,
  "AcquisitionNumber": 1,
  "AcquisitionTime": "11:03:35.565000",
  "BandwidthPerPixelPhaseEncode": 17.17,
  "BaseResolution": 104,
  "BodyPartExamined": "BRAIN",
  "CoilString": "HC1-7;NC1_2",
  "ConsistencyInfo": "N4_VE11C_LATEST_20160120",
  "ConversionSoftware": "dcm2niix",
  "ConversionSoftwareVersion": "v1.0.20190720  (JP2:OpenJPEG) GCC7.3.0",
  "DerivedVendorReportedEchoSpacing": 0.000560011,
  "DeviceSerialNumber": "167006",
  "DwellTime": 2.1e-06,
  "EchoTime": 0.037,
  "EchoTrainLength": 104,
  "EffectiveEchoSpacing": 0.000560011,
  "FlipAngle": 52,
  "ImageComments": "Unaliased_MB4_PE3_LB",
  "ImageOrientationPatientDICOM": [0.999761, -0.0217194, -0.00255173, 0.0195455, 0.939782, -0.341215],
  "ImageType": [
    "ORIGINAL",
    "PRIMARY",
    "M",
    "MB",
    "ND",
    "MOSAIC"
],
  "ImagingFrequency": 123.26,
  "InPlanePhaseEncodingDirectionDICOM": "COL",
  "InstitutionAddress": "Chemin_Queen-Mary_4565_Montreal_District_CA_H3W_1W5",
  "InstitutionName": "IUGM",
  "InstitutionalDepartmentName": "Department",
  "MRAcquisitionType": "2D",
  "MagneticFieldStrength": 3,
  "Manufacturer": "Siemens",
  "ManufacturersModelName": "Prisma_fit",
  "Modality": "MR",
  "MultibandAccelerationFactor": 4,
  "PartialFourier": 1,
  "PatientPosition": "HFS",
  "PercentPhaseFOV": 100,
  "PhaseEncodingDirection": "j",
  "PhaseEncodingSteps": 104,
  "PhaseResolution": 1,
  "PixelBandwidth": 2290,
  "ProcedureStepDescription": "video_friends",
  "ProtocolName": "func_task-s01e01b",
  "PulseSequenceDetails": "%CustomerSeq%_cmrr_mbep2d_bold",
  "ReceiveCoilActiveElements": "HC1-7;NC1,2",
  "ReceiveCoilName": "HeadNeck_64",
  "ReconMatrixPE": 104,
  "RepetitionTime": 1.49,
  "SAR": 0.0289769,
  "ScanOptions": "FS",
  "ScanningSequence": "EP",
  "SequenceName": "epfid2d1_104",
  "SequenceVariant": "SK_SS",
  "SeriesDescription": "func_task-s01e01b",
  "SeriesNumber": 11,
  "ShimSetting": [621, -7161, -8818, 671, 12, 161, 33, -3],
  "SliceThickness": 2,
  "SliceTiming": [0, 0.785, 0.1, 0.8825, 0.1975, 0.98, 0.295, 1.08, 0.3925, 1.1775, 0.49, 1.275, 0.59, 1.3725, 0.6875, 0, 0.785, 0.1, 0.8825, 0.1975, 0.98, 0.295, 1.08, 0.3925, 1.1775, 0.49, 1.275, 0.59, 1.3725, 0.6875, 0, 0.785, 0.1, 0.8825, 0.1975, 0.98, 0.295, 1.08, 0.3925, 1.1775, 0.49, 1.275, 0.59, 1.3725, 0.6875, 0, 0.785, 0.1, 0.8825, 0.1975, 0.98, 0.295, 1.08, 0.3925, 1.1775, 0.49, 1.275, 0.59, 1.3725, 0.6875],
  "SoftwareVersions": "syngo_MR_E11",
  "SpacingBetweenSlices": 2,
  "StationName": "MRC35049",
  "TaskName": "friends",
  "TotalReadoutTime": 0.0576811,
  "TxRefAmp": 208.509,
  "WipMemBlock": "aec2deff-5bc7-4d7b-95b2-ab04df62995b||Sequence: R016 ve11c/master r/e634e98; Dec 19 2017 11:00:25 by eja",
  "dcmmeta_affine": [
    [-1.9995217323303223, 0.039090968668460846, -0.019618121907114983, 102.92753601074219],
    [0.04343879967927933, 1.879563808441162, -0.6821679472923279, -79.03658294677734],
    [-0.00510345259681344, 0.6824308633804321, 1.8799632787704468, -71.64566040039062],
    [0.0, 0.0, 0.0, 1.0]
],
  "dcmmeta_reorient_transform": [
    [0.0, -1.0, 0.0, 103.0],
    [1.0, 0.0, 0.0, 0.0],
    [0.0, 0.0, 1.0, 0.0],
    [0.0, 0.0, 0.0, 1.0]
],
  "dcmmeta_shape": [104, 104, 60, 482],
  "dcmmeta_slice_dim": 2,
  "dcmmeta_version": 0.6,
  "global": {
    "const": {
      "AcquisitionMatrix": [104, 0, 0, 104],
      "AngioFlag": "N",
      "BitsAllocated": 16,
      "BitsStored": 16,
      "BodyPartExamined": "BRAIN",
      "Columns": 832,
      "EchoNumbers": 1,
      "EchoTime": 37.0,
      "EchoTrainLength": 104,
      "FlipAngle": 52.0,
      "HighBit": 15,
      "ImageOrientationPatient": [0.99976084958517, -0.0217193998415, -0.0025517263303, 0.01954548451599, 0.93978188941067, -0.3412154368881],
      "ImagePositionPatient": [-849.00891936439, -782.90797980119, 248.90721268957],
      "ImageType": [
        "ORIGINAL",
        "PRIMARY",
        "M",
        "MB",
        "ND",
        "MOSAIC"
],
      "ImagedNucleus": "1H",
      "ImagingFrequency": 123.259521,
      "InPlanePhaseEncodingDirection": "COL",
      "MRAcquisitionType": "2D",
      "MagneticFieldStrength": 3.0,
      "Manufacturer": "SIEMENS",
      "ManufacturerModelName": "Prisma_fit",
      "Modality": "MR",
      "NumberOfAverages": 1.0,
      "NumberOfPhaseEncodingSteps": 104,
      "PercentPhaseFieldOfView": 100.0,
      "PercentSampling": 100.0,
      "PerformedProcedureStepStartTime": "102922.228000",
      "PhotometricInterpretation": "MONOCHROME2",
      "PixelBandwidth": 2290.0,
      "PixelRepresentation": 0,
      "PixelSpacing": [2.0, 2.0],
      "ProtocolName": "func_task-s01e01b",
      "RepetitionTime": 1490.0,
      "Rows": 832,
      "SAR": 0.02897690679212,
      "SamplesPerPixel": 1,
      "ScanOptions": "FS",
      "ScanningSequence": "EP",
      "SequenceName": "epfid2d1_104",
      "SequenceVariant": [
        "SK",
        "SS"
],
      "SeriesDescription": "func_task-s01e01b",
      "SeriesNumber": 11,
      "SeriesTime": "110455.712000",
      "SliceLocation": -41.397120293471,
      "SliceThickness": 2.0,
      "SmallestImagePixelValue": 0,
      "SoftwareVersions": "syngo MR E11",
      "SpacingBetweenSlices": 1.9999999985283,
      "SpecificCharacterSet": "ISO_IR 100",
      "StudyID": "1",
      "StudyTime": "102922.156000",
      "TransmitCoilName": "Body",
      "VariableFlipAngleFlag": "N",
      "WindowCenterWidthExplanation": "Algo1",
      "dBdt": 0.0},
    "slices": {}
  },
  "time": {
    "samples": {
      "AcquisitionNumber": [1, 2, 3, 4, 5, 6, 7, 8, 9, 10, 11, 12, 13, 14, 15, 16, 17, 18, 19, 20, 21, 22, 23, 24, 25, 26, 27, 28, 29, 30, 31, 32, 33, 34, 35, 36, 37, 38, 39, 40, 41, 42, 43, 44, 45, 46, 47, 48, 49, 50, 51, 52, 53, 54, 55, 56, 57, 58, 59, 60, 61, 62, 63, 64, 65, 66, 67, 68, 69, 70, 71, 72, 73, 74, 75, 76, 77, 78, 79, 80, 81, 82, 83, 84, 85, 86, 87, 88, 89, 90, 91, 92, 93, 94, 95, 96, 97, 98, 99, 100, 101, 102, 103, 104, 105, 106, 107, 108, 109, 110, 111, 112, 113, 114, 115, 116, 117, 118, 119, 120, 121, 122, 123, 124, 125, 126, 127, 128, 129, 130, 131, 132, 133, 134, 135, 136, 137, 138, 139, 140, 141, 142, 143, 144, 145, 146, 147, 148, 149, 150, 151, 152, 153, 154, 155, 156, 157, 158, 159, 160, 161, 162, 163, 164, 165, 166, 167, 168, 169, 170, 171, 172, 173, 174, 175, 176, 177, 178, 179, 180, 181, 182, 183, 184, 185, 186, 187, 188, 189, 190, 191, 192, 193, 194, 195, 196, 197, 198, 199, 200, 201, 202, 203, 204, 205, 206, 207, 208, 209, 210, 211, 212, 213, 214, 215, 216, 217, 218, 219, 220, 221, 222, 223, 224, 225, 226, 227, 228, 229, 230, 231, 232, 233, 234, 235, 236, 237, 238, 239, 240, 241, 242, 243, 244, 245, 246, 247, 248, 249, 250, 251, 252, 253, 254, 255, 256, 257, 258, 259, 260, 261, 262, 263, 264, 265, 266, 267, 268, 269, 270, 271, 272, 273, 274, 275, 276, 277, 278, 279, 280, 281, 282, 283, 284, 285, 286, 287, 288, 289, 290, 291, 292, 293, 294, 295, 296, 297, 298, 299, 300, 301, 302, 303, 304, 305, 306, 307, 308, 309, 310, 311, 312, 313, 314, 315, 316, 317, 318, 319, 320, 321, 322, 323, 324, 325, 326, 327, 328, 329, 330, 331, 332, 333, 334, 335, 336, 337, 338, 339, 340, 341, 342, 343, 344, 345, 346, 347, 348, 349, 350, 351, 352, 353, 354, 355, 356, 357, 358, 359, 360, 361, 362, 363, 364, 365, 366, 367, 368, 369, 370, 371, 372, 373, 374, 375, 376, 377, 378, 379, 380, 381, 382, 383, 384, 385, 386, 387, 388, 389, 390, 391, 392, 393, 394, 395, 396, 397, 398, 399, 400, 401, 402, 403, 404, 405, 406, 407, 408, 409, 410, 411, 412, 413, 414, 415, 416, 417, 418, 419, 420, 421, 422, 423, 424, 425, 426, 427, 428, 429, 430, 431, 432, 433, 434, 435, 436, 437, 438, 439, 440, 441, 442, 443, 444, 445, 446, 447, 448, 449, 450, 451, 452, 453, 454, 455, 456, 457, 458, 459, 460, 461, 462, 463, 464, 465, 466, 467, 468, 469, 470, 471, 472, 473, 474, 475, 476, 477, 478, 479, 480, 481, 482],
      "AcquisitionTime": ["110335.565000", "110337.055000", "110338.545000", "110340.035000", "110341.525000", "110343.015000", "110344.505000", "110345.995000", "110347.485000", "110348.975000", "110350.465000", "110351.955000", "110353.445000", "110354.935000", "110356.425000", "110357.915000", "110359.405000", "110400.895000", "110402.385000", "110403.875000", "110405.365000", "110406.855000", "110408.345000", "110409.835000", "110411.325000", "110412.815000", "110414.305000", "110415.795000", "110417.285000", "110418.775000", "110420.265000", "110421.755000", "110423.245000", "110424.735000", "110426.225000", "110427.715000", "110429.205000", "110430.695000", "110432.185000", "110433.675000", "110435.165000", "110436.655000", "110438.145000", "110439.635000", "110441.125000", "110442.615000", "110444.105000", "110445.595000", "110447.085000", "110448.575000", "110450.065000", "110451.555000", "110453.045000", "110454.535000", "110456.025000", "110457.515000", "110459.005000", "110500.495000", "110501.985000", "110503.475000", "110504.965000", "110506.455000", "110507.945000", "110509.435000", "110510.925000", "110512.415000", "110513.905000", "110515.395000", "110516.885000", "110518.375000", "110519.865000", "110521.355000", "110522.845000", "110524.335000", "110525.825000", "110527.315000", "110528.805000", "110530.295000", "110531.785000", "110533.275000", "110534.765000", "110536.255000", "110537.745000", "110539.235000", "110540.725000", "110542.215000", "110543.705000", "110545.195000", "110546.685000", "110548.175000", "110549.665000", "110551.155000", "110552.645000", "110554.135000", "110555.625000", "110557.115000", "110558.605000", "110600.095000", "110601.585000", "110603.075000", "110604.565000", "110606.055000", "110607.545000", "110609.035000", "110610.525000", "110612.015000", "110613.505000", "110614.995000", "110616.485000", "110617.975000", "110619.465000", "110620.955000", "110622.445000", "110623.935000", "110625.425000", "110626.915000", "110628.405000", "110629.895000", "110631.385000", "110632.875000", "110634.365000", "110635.855000", "110637.345000", "110638.835000", "110640.325000", "110641.815000", "110643.305000", "110644.795000", "110646.285000", "110647.775000", "110649.265000", "110650.755000", "110652.245000", "110653.735000", "110655.225000", "110656.715000", "110658.205000", "110659.695000", "110701.185000", "110702.675000", "110704.165000", "110705.655000", "110707.145000", "110708.635000", "110710.125000", "110711.615000", "110713.105000", "110714.595000", "110716.085000", "110717.575000", "110719.065000", "110720.555000", "110722.045000", "110723.535000", "110725.025000", "110726.515000", "110728.005000", "110729.495000", "110730.985000", "110732.475000", "110733.965000", "110735.455000", "110736.945000", "110738.435000", "110739.925000", "110741.415000", "110742.905000", "110744.395000", "110745.885000", "110747.375000", "110748.865000", "110750.355000", "110751.845000", "110753.335000", "110754.825000", "110756.315000", "110757.805000", "110759.295000", "110800.785000", "110802.275000", "110803.765000", "110805.255000", "110806.745000", "110808.235000", "110809.725000", "110811.215000", "110812.705000", "110814.195000", "110815.685000", "110817.175000", "110818.665000", "110820.155000", "110821.645000", "110823.135000", "110824.625000", "110826.115000", "110827.605000", "110829.095000", "110830.585000", "110832.075000", "110833.565000", "110835.055000", "110836.545000", "110838.035000", "110839.525000", "110841.015000", "110842.505000", "110843.995000", "110845.485000", "110846.975000", "110848.465000", "110849.955000", "110851.445000", "110852.935000", "110854.425000", "110855.915000", "110857.405000", "110858.895000", "110900.385000", "110901.875000", "110903.365000", "110904.855000", "110906.345000", "110907.835000", "110909.325000", "110910.815000", "110912.305000", "110913.795000", "110915.285000", "110916.775000", "110918.265000", "110919.755000", "110921.245000", "110922.735000", "110924.225000", "110925.715000", "110927.205000", "110928.695000", "110930.185000", "110931.675000", "110933.165000", "110934.655000", "110936.145000", "110937.635000", "110939.125000", "110940.615000", "110942.105000", "110943.595000", "110945.085000", "110946.575000", "110948.065000", "110949.555000", "110951.045000", "110952.535000", "110954.025000", "110955.515000", "110957.005000", "110958.495000", "110959.985000", "111001.475000", "111002.965000", "111004.455000", "111005.945000", "111007.435000", "111008.925000", "111010.415000", "111011.905000", "111013.395000", "111014.885000", "111016.375000", "111017.865000", "111019.355000", "111020.845000", "111022.335000", "111023.825000", "111025.315000", "111026.805000", "111028.295000", "111029.785000", "111031.275000", "111032.765000", "111034.255000", "111035.745000", "111037.235000", "111038.725000", "111040.215000", "111041.705000", "111043.195000", "111044.685000", "111046.175000", "111047.665000", "111049.155000", "111050.645000", "111052.135000", "111053.625000", "111055.115000", "111056.605000", "111058.095000", "111059.585000", "111101.075000", "111102.565000", "111104.055000", "111105.545000", "111107.035000", "111108.525000", "111110.015000", "111111.505000", "111112.995000", "111114.485000", "111115.975000", "111117.465000", "111118.955000", "111120.445000", "111121.935000", "111123.425000", "111124.915000", "111126.405000", "111127.895000", "111129.385000", "111130.875000", "111132.365000", "111133.855000", "111135.345000", "111136.835000", "111138.325000", "111139.815000", "111141.305000", "111142.795000", "111144.285000", "111145.775000", "111147.265000", "111148.755000", "111150.245000", "111151.735000", "111153.225000", "111154.715000", "111156.205000", "111157.695000", "111159.185000", "111200.675000", "111202.165000", "111203.655000", "111205.145000", "111206.635000", "111208.125000", "111209.615000", "111211.105000", "111212.595000", "111214.085000", "111215.575000", "111217.065000", "111218.555000", "111220.045000", "111221.535000", "111223.025000", "111224.515000", "111226.005000", "111227.495000", "111228.985000", "111230.475000", "111231.965000", "111233.455000", "111234.945000", "111236.435000", "111237.925000", "111239.415000", "111240.905000", "111242.395000", "111243.885000", "111245.375000", "111246.865000", "111248.355000", "111249.845000", "111251.335000", "111252.825000", "111254.315000", "111255.805000", "111257.295000", "111258.785000", "111300.275000", "111301.765000", "111303.255000", "111304.745000", "111306.235000", "111307.725000", "111309.215000", "111310.705000", "111312.195000", "111313.685000", "111315.175000", "111316.665000", "111318.155000", "111319.645000", "111321.135000", "111322.625000", "111324.115000", "111325.605000", "111327.095000", "111328.585000", "111330.075000", "111331.565000", "111333.055000", "111334.545000", "111336.035000", "111337.525000", "111339.015000", "111340.505000", "111341.995000", "111343.485000", "111344.975000", "111346.465000", "111347.955000", "111349.445000", "111350.935000", "111352.425000", "111353.915000", "111355.405000", "111356.895000", "111358.385000", "111359.875000", "111401.365000", "111402.855000", "111404.345000", "111405.835000", "111407.325000", "111408.815000", "111410.305000", "111411.795000", "111413.285000", "111414.775000", "111416.265000", "111417.755000", "111419.245000", "111420.735000", "111422.225000", "111423.715000", "111425.205000", "111426.695000", "111428.185000", "111429.675000", "111431.165000", "111432.655000", "111434.145000", "111435.635000", "111437.125000", "111438.615000", "111440.105000", "111441.595000", "111443.085000", "111444.575000", "111446.065000", "111447.555000", "111449.045000", "111450.535000", "111452.025000", "111453.515000", "111455.005000", "111456.495000", "111457.985000", "111459.475000", "111500.965000", "111502.455000", "111503.945000", "111505.435000", "111506.925000", "111508.415000", "111509.905000", "111511.395000", "111512.885000", "111514.375000", "111515.865000", "111517.355000", "111518.845000", "111520.335000", "111521.825000", "111523.315000", "111524.805000", "111526.295000", "111527.785000", "111529.275000", "111530.765000", "111532.255000"],
      "ContentTime": ["110455.715000", "110455.718000", "110455.721000", "110455.724000", "110455.727000", "110455.730000", "110455.733000", "110455.746000", "110455.749000", "110455.751000", "110455.754000", "110455.757000", "110455.760000", "110455.763000", "110455.766000", "110455.775000", "110455.778000", "110455.781000", "110455.784000", "110455.787000", "110455.789000", "110455.793000", "110455.796000", "110455.799000", "110455.802000", "110455.805000", "110515.681000", "110515.684000", "110515.687000", "110515.690000", "110515.692000", "110515.695000", "110515.698000", "110515.701000", "110515.704000", "110515.707000", "110515.710000", "110515.713000", "110515.729000", "110515.731000", "110515.734000", "110515.737000", "110515.740000", "110515.743000", "110515.746000", "110515.750000", "110535.680000", "110535.683000", "110535.686000", "110535.689000", "110535.692000", "110535.694000", "110535.697000", "110535.700000", "110535.703000", "110535.706000", "110535.716000", "110535.719000", "110535.722000", "110535.725000", "110535.727000", "110535.730000", "110535.733000", "110535.736000", "110535.739000", "110535.742000", "110535.745000", "110555.680000", "110555.683000", "110555.686000", "110555.689000", "110555.691000", "110555.694000", "110555.697000", "110555.700000", "110555.708000", "110555.711000", "110555.714000", "110555.717000", "110555.720000", "110555.722000", "110555.725000", "110555.728000", "110555.731000", "110555.734000", "110555.737000", "110555.740000", "110615.680000", "110615.683000", "110615.686000", "110615.689000", "110615.691000", "110615.694000", "110615.697000", "110615.700000", "110615.703000", "110615.706000", "110615.709000", "110615.711000", "110615.714000", "110615.717000", "110615.720000", "110615.726000", "110615.729000", "110615.732000", "110615.735000", "110615.737000", "110655.681000", "110655.684000", "110655.687000", "110655.690000", "110655.693000", "110655.695000", "110655.698000", "110655.701000", "110655.704000", "110655.707000", "110655.710000", "110655.713000", "110655.716000", "110655.719000", "110655.721000", "110655.724000", "110655.727000", "110655.730000", "110655.733000", "110655.736000", "110655.739000", "110655.741000", "110655.744000", "110655.747000", "110655.750000", "110655.753000", "110655.756000", "110715.681000", "110715.684000", "110715.687000", "110715.690000", "110715.693000", "110715.695000", "110715.698000", "110715.701000", "110715.704000", "110715.707000", "110715.710000", "110715.713000", "110715.716000", "110755.680000", "110755.683000", "110755.686000", "110755.689000", "110755.692000", "110755.695000", "110755.697000", "110755.700000", "110755.703000", "110755.706000", "110755.709000", "110755.712000", "110755.715000", "110755.718000", "110755.720000", "110755.723000", "110755.726000", "110755.729000", "110755.732000", "110755.735000", "110755.738000", "110755.741000", "110755.752000", "110755.755000", "110755.758000", "110755.761000", "110755.764000", "110835.680000", "110835.683000", "110835.686000", "110835.689000", "110835.692000", "110835.695000", "110835.698000", "110835.700000", "110835.703000", "110835.706000", "110835.709000", "110835.712000", "110835.715000", "110835.718000", "110835.720000", "110835.723000", "110835.726000", "110835.729000", "110835.732000", "110835.735000", "110835.738000", "110835.741000", "110835.744000", "110835.747000", "110835.749000", "110835.752000", "110835.755000", "110915.681000", "110915.684000", "110915.687000", "110915.690000", "110915.693000", "110915.696000", "110915.699000", "110915.702000", "110915.705000", "110915.708000", "110915.711000", "110915.713000", "110915.716000", "110915.719000", "110915.722000", "110915.725000", "110915.728000", "110915.738000", "110915.741000", "110915.744000", "110915.747000", "110915.750000", "110915.753000", "110915.756000", "110915.758000", "110915.761000", "110955.681000", "110955.684000", "110955.687000", "110955.690000", "110955.693000", "110955.696000", "110955.699000", "110955.702000", "110955.704000", "110955.707000", "110955.710000", "110955.713000", "110955.716000", "110955.719000", "110955.722000", "110955.725000", "110955.728000", "110955.730000", "110955.733000", "110955.736000", "110955.739000", "110955.742000", "110955.745000", "110955.748000", "110955.751000", "110955.754000", "110955.756000", "111035.680000", "111035.683000", "111035.686000", "111035.689000", "111035.692000", "111035.695000", "111035.698000", "111035.701000", "111035.703000", "111035.706000", "111035.709000", "111035.712000", "111035.715000", "111035.718000", "111035.721000", "111035.724000", "111035.726000", "111035.729000", "111035.732000", "111035.735000", "111035.738000", "111035.741000", "111035.744000", "111035.747000", "111035.750000", "111035.753000", "111035.755000", "111115.681000", "111115.684000", "111115.687000", "111115.690000", "111115.693000", "111115.696000", "111115.698000", "111115.701000", "111115.704000", "111115.707000", "111115.710000", "111115.713000", "111115.716000", "111115.719000", "111115.722000", "111115.724000", "111115.727000", "111115.730000", "111115.733000", "111115.736000", "111115.739000", "111115.742000", "111115.745000", "111115.748000", "111115.751000", "111115.753000", "111115.756000", "111155.681000", "111155.684000", "111155.687000", "111155.690000", "111155.693000", "111155.696000", "111155.699000", "111155.702000", "111155.704000", "111155.707000", "111155.710000", "111155.713000", "111155.716000", "111155.719000", "111155.722000", "111155.725000", "111155.728000", "111155.731000", "111155.733000", "111155.736000", "111155.739000", "111155.742000", "111155.745000", "111155.748000", "111155.751000", "111155.754000", "111155.757000", "111235.680000", "111235.683000", "111235.686000", "111235.689000", "111235.692000", "111235.695000", "111235.698000", "111235.701000", "111235.703000", "111235.706000", "111235.709000", "111235.712000", "111235.715000", "111235.718000", "111235.721000", "111235.723000", "111235.726000", "111235.729000", "111235.732000", "111235.735000", "111235.738000", "111235.741000", "111235.744000", "111235.747000", "111235.750000", "111235.753000", "111235.755000", "111315.680000", "111315.683000", "111315.686000", "111315.689000", "111315.692000", "111315.694000", "111315.697000", "111315.700000", "111315.703000", "111315.706000", "111315.709000", "111315.712000", "111315.715000", "111315.718000", "111315.720000", "111315.723000", "111315.726000", "111315.729000", "111315.732000", "111315.735000", "111315.738000", "111315.741000", "111315.744000", "111315.746000", "111315.749000", "111315.752000", "111315.755000", "111355.681000", "111355.684000", "111355.687000", "111355.690000", "111355.693000", "111355.696000", "111355.699000", "111355.702000", "111355.704000", "111355.707000", "111355.710000", "111355.713000", "111355.716000", "111355.719000", "111355.722000", "111355.725000", "111355.728000", "111355.731000", "111355.734000", "111355.737000", "111355.739000", "111355.742000", "111355.745000", "111355.748000", "111355.751000", "111355.754000", "111435.681000", "111435.684000", "111435.687000", "111435.690000", "111435.693000", "111435.696000", "111435.699000", "111435.702000", "111435.704000", "111435.707000", "111435.710000", "111435.713000", "111435.716000", "111435.719000", "111435.722000", "111435.725000", "111435.728000", "111435.731000", "111435.734000", "111435.737000", "111435.740000", "111435.742000", "111435.745000", "111435.748000", "111435.751000", "111435.754000", "111435.757000", "111515.681000", "111515.684000", "111515.687000", "111515.697000", "111515.700000", "111515.703000", "111515.705000", "111515.708000", "111515.711000", "111515.714000", "111515.717000", "111515.720000", "111515.723000", "111515.726000", "111515.729000", "111515.732000", "111515.735000", "111515.738000", "111515.740000", "111515.743000", "111515.746000", "111515.749000", "111515.752000", "111515.755000", "111515.758000", "111515.761000", "111515.764000", "111534.190000", "111534.193000", "111534.196000", "111534.199000", "111534.202000", "111534.205000", "111534.208000", "111534.211000", "111534.214000", "111534.217000", "111534.220000", "111534.222000", "111534.226000"],
