{
  "AcquisitionMatrixPE": 104,
  "AcquisitionNumber": 1,
  "AcquisitionTime": "16:42:55.500000",
  "BandwidthPerPixelPhaseEncode": 17.17,
  "BaseResolution": 104,
  "BodyPartExamined": "BRAIN",
  "CoilCombinationMethod": "Sum of Squares",
  "ConsistencyInfo": "N4_VE11C_LATEST_20160120",
  "ConversionSoftware": "dcm2niix",
  "ConversionSoftwareVersion": "v1.0.20220505",
  "DerivedVendorReportedEchoSpacing": 0.000560011,
  "DeviceSerialNumber": "167006",
  "DwellTime": 2.1e-06,
  "EchoTime": 0.037,
  "EchoTrainLength": 104,
  "EffectiveEchoSpacing": 0.000560011,
  "FlipAngle": 52,
  "HeudiconvVersion": "0.5.3.post811+g6206e14",
  "ImageComments": "Unaliased MB4/PE3/LB",
  "ImageOrientationPatientDICOM": [0.999284, -0.0374212, -0.0056395, 0.033848, 0.950442, -0.309054],
  "ImageOrientationText": "Tra>Cor(-18.0)>Sag(-1.0)",
  "ImageType": [
    "ORIGINAL",
    "PRIMARY",
    "M",
    "MB",
    "ND",
    "MOSAIC"
],
  "ImagingFrequency": 123.259,
  "InPlanePhaseEncodingDirectionDICOM": "COL",
  "InstitutionAddress": "Chemin Queen-Mary 4565,Montreal,District,CA,H3W 1W5",
  "InstitutionName": "IUGM",
  "InstitutionalDepartmentName": "Department",
  "MRAcquisitionType": "2D",
  "MagneticFieldStrength": 3,
  "Manufacturer": "Siemens",
  "ManufacturersModelName": "Prisma_fit",
  "MatrixCoilMode": "SENSE",
  "Modality": "MR",
  "MultibandAccelerationFactor": 4,
  "PartialFourier": 1,
  "PatientPosition": "HFS",
  "PercentPhaseFOV": 100,
  "PercentSampling": 100,
  "PhaseEncodingDirection": "j",
  "PhaseEncodingSteps": 104,
  "PhaseResolution": 1,
  "PixelBandwidth": 2290,
  "ProcedureStepDescription": "video^friends",
  "ProtocolName": "func_task-friends-s06e14b",
  "PulseSequenceDetails": "%CustomerSeq%\\cmrr_mbep2d_bold",
  "ReceiveCoilActiveElements": "HC1-7;NC1,2",
  "ReceiveCoilName": "HeadNeck_64",
  "ReconMatrixPE": 104,
  "RepetitionTime": 1.49,
  "SAR": 0.0297773,
  "ScanOptions": "FS",
  "ScanningSequence": "EP",
  "SequenceName": "epfid2d1_104",
  "SequenceVariant": "SK\\SS",
  "SeriesDescription": "func_task-friends-s06e14b",
  "SeriesNumber": 16,
  "ShimSetting": [611, -7259, -8807, 603, -31, -251, -33, -25],
  "SliceThickness": 2,
  "SliceTiming": [0, 0.7825, 0.0975, 0.88, 0.195, 0.98, 0.2925, 1.0775, 0.39, 1.175, 0.49, 1.2725, 0.5875, 1.37, 0.685, 0, 0.7825, 0.0975, 0.88, 0.195, 0.98, 0.2925, 1.0775, 0.39, 1.175, 0.49, 1.2725, 0.5875, 1.37, 0.685, 0, 0.7825, 0.0975, 0.88, 0.195, 0.98, 0.2925, 1.0775, 0.39, 1.175, 0.49, 1.2725, 0.5875, 1.37, 0.685, 0, 0.7825, 0.0975, 0.88, 0.195, 0.98, 0.2925, 1.0775, 0.39, 1.175, 0.49, 1.2725, 0.5875, 1.37, 0.685],
  "SoftwareVersions": "syngo MR E11",
  "SpacingBetweenSlices": 2,
  "StationName": "MRC35049",
  "TaskName": "s06e14b",
  "TotalReadoutTime": 0.0576811,
  "TxRefAmp": 218.41,
  "WipMemBlock": "9c94085e-63ab-42f3-b8de-dbc3f0c25d1a||Sequence: R016 ve11c/master r/e634e98; Dec 19 2017 11:00:25 by eja",
  "dcmmeta_affine": [
    [-1.9985673427581787, 0.06769609451293945, -0.03385040536522865, 99.47715759277344],
    [0.07484247535467148, 1.9008839130401611, -0.6172836422920227, -77.6134262084961],
    [-0.011278999969363213, 0.6181081533432007, 1.9020555019378662, -59.78943634033203],
    [0.0, 0.0, 0.0, 1.0]
],
  "dcmmeta_reorient_transform": [
    [0.0, -1.0, 0.0, 103.0],
    [1.0, 0.0, 0.0, 0.0],
    [0.0, 0.0, 1.0, 0.0],
    [0.0, 0.0, 0.0, 1.0]
],
  "dcmmeta_shape": [104, 104, 60, 495],
  "dcmmeta_slice_dim": 2,
  "dcmmeta_version": 0.6,
  "global": {
    "const": {
      "AcquisitionMatrix": [104, 0, 0, 104],
      "AngioFlag": "N",
      "BitsAllocated": 16,
      "BitsStored": 16,
      "BodyPartExamined": "BRAIN",
      "Columns": 832,
      "EchoNumbers": 1,
      "EchoTime": 37.0,
      "EchoTrainLength": 104,
      "FlipAngle": 52.0,
      "HighBit": 15,
      "ImageOrientationPatient": [0.99928366700097, -0.0374212360432, -0.0056394998098, 0.03384804828654, 0.95044194167915, -0.3090540812291],
      "ImagePositionPatient": [-858.56974275504, -782.85668442555, 232.97263289548],
      "ImageType": [
        "ORIGINAL",
        "PRIMARY",
        "M",
        "MB",
        "ND",
        "MOSAIC"
],
      "ImagedNucleus": "1H",
      "ImagingFrequency": 123.25879,
      "InPlanePhaseEncodingDirection": "COL",
      "MRAcquisitionType": "2D",
      "MagneticFieldStrength": 3.0,
      "Manufacturer": "SIEMENS",
      "ManufacturerModelName": "Prisma_fit",
      "Modality": "MR",
      "NumberOfAverages": 1.0,
      "NumberOfPhaseEncodingSteps": 104,
      "PercentPhaseFieldOfView": 100.0,
      "PercentSampling": 100.0,
      "PerformedProcedureStepStartTime": "155820.015000",
      "PhotometricInterpretation": "MONOCHROME2",
      "PixelBandwidth": 2290.0,
      "PixelRepresentation": 0,
      "PixelSpacing": [2.0, 2.0],
      "ProtocolName": "func_task-friends-s06e14b",
      "RepetitionTime": 1490.0,
      "Rows": 832,
      "SAR": 0.02977727939388,
      "SamplesPerPixel": 1,
      "ScanOptions": "FS",
      "ScanningSequence": "EP",
      "SequenceName": "epfid2d1_104",
      "SequenceVariant": [
        "SK",
        "SS"
],
      "SeriesDescription": "func_task-friends-s06e14b",
      "SeriesNumber": 16,
      "SeriesTime": "164419.704000",
      "SliceLocation": -34.590333154783,
      "SliceThickness": 2.0,
      "SmallestImagePixelValue": 0,
      "SoftwareVersions": "syngo MR E11",
      "SpacingBetweenSlices": 2.0000000622496,
      "SpecificCharacterSet": "ISO_IR 100",
      "StudyID": "1",
      "StudyTime": "155819.946000",
      "TransmitCoilName": "Body",
      "VariableFlipAngleFlag": "N",
      "WindowCenterWidthExplanation": "Algo1",
      "dBdt": 0.0},
    "slices": {}
  },
  "time": {
    "samples": {
      "AcquisitionNumber": [1, 2, 3, 4, 5, 6, 7, 8, 9, 10, 11, 12, 13, 14, 15, 16, 17, 18, 19, 20, 21, 22, 23, 24, 25, 26, 27, 28, 29, 30, 31, 32, 33, 34, 35, 36, 37, 38, 39, 40, 41, 42, 43, 44, 45, 46, 47, 48, 49, 50, 51, 52, 53, 54, 55, 56, 57, 58, 59, 60, 61, 62, 63, 64, 65, 66, 67, 68, 69, 70, 71, 72, 73, 74, 75, 76, 77, 78, 79, 80, 81, 82, 83, 84, 85, 86, 87, 88, 89, 90, 91, 92, 93, 94, 95, 96, 97, 98, 99, 100, 101, 102, 103, 104, 105, 106, 107, 108, 109, 110, 111, 112, 113, 114, 115, 116, 117, 118, 119, 120, 121, 122, 123, 124, 125, 126, 127, 128, 129, 130, 131, 132, 133, 134, 135, 136, 137, 138, 139, 140, 141, 142, 143, 144, 145, 146, 147, 148, 149, 150, 151, 152, 153, 154, 155, 156, 157, 158, 159, 160, 161, 162, 163, 164, 165, 166, 167, 168, 169, 170, 171, 172, 173, 174, 175, 176, 177, 178, 179, 180, 181, 182, 183, 184, 185, 186, 187, 188, 189, 190, 191, 192, 193, 194, 195, 196, 197, 198, 199, 200, 201, 202, 203, 204, 205, 206, 207, 208, 209, 210, 211, 212, 213, 214, 215, 216, 217, 218, 219, 220, 221, 222, 223, 224, 225, 226, 227, 228, 229, 230, 231, 232, 233, 234, 235, 236, 237, 238, 239, 240, 241, 242, 243, 244, 245, 246, 247, 248, 249, 250, 251, 252, 253, 254, 255, 256, 257, 258, 259, 260, 261, 262, 263, 264, 265, 266, 267, 268, 269, 270, 271, 272, 273, 274, 275, 276, 277, 278, 279, 280, 281, 282, 283, 284, 285, 286, 287, 288, 289, 290, 291, 292, 293, 294, 295, 296, 297, 298, 299, 300, 301, 302, 303, 304, 305, 306, 307, 308, 309, 310, 311, 312, 313, 314, 315, 316, 317, 318, 319, 320, 321, 322, 323, 324, 325, 326, 327, 328, 329, 330, 331, 332, 333, 334, 335, 336, 337, 338, 339, 340, 341, 342, 343, 344, 345, 346, 347, 348, 349, 350, 351, 352, 353, 354, 355, 356, 357, 358, 359, 360, 361, 362, 363, 364, 365, 366, 367, 368, 369, 370, 371, 372, 373, 374, 375, 376, 377, 378, 379, 380, 381, 382, 383, 384, 385, 386, 387, 388, 389, 390, 391, 392, 393, 394, 395, 396, 397, 398, 399, 400, 401, 402, 403, 404, 405, 406, 407, 408, 409, 410, 411, 412, 413, 414, 415, 416, 417, 418, 419, 420, 421, 422, 423, 424, 425, 426, 427, 428, 429, 430, 431, 432, 433, 434, 435, 436, 437, 438, 439, 440, 441, 442, 443, 444, 445, 446, 447, 448, 449, 450, 451, 452, 453, 454, 455, 456, 457, 458, 459, 460, 461, 462, 463, 464, 465, 466, 467, 468, 469, 470, 471, 472, 473, 474, 475, 476, 477, 478, 479, 480, 481, 482, 483, 484, 485, 486, 487, 488, 489, 490, 491, 492, 493, 494, 495],
      "AcquisitionTime": ["164255.500000", "164256.990000", "164258.480000", "164259.970000", "164301.460000", "164302.950000", "164304.440000", "164305.930000", "164307.420000", "164308.910000", "164310.400000", "164311.890000", "164313.380000", "164314.870000", "164316.360000", "164317.850000", "164319.340000", "164320.830000", "164322.320000", "164323.810000", "164325.300000", "164326.790000", "164328.280000", "164329.770000", "164331.260000", "164332.750000", "164334.240000", "164335.730000", "164337.220000", "164338.710000", "164340.200000", "164341.690000", "164343.180000", "164344.670000", "164346.160000", "164347.650000", "164349.140000", "164350.630000", "164352.120000", "164353.610000", "164355.100000", "164356.590000", "164358.080000", "164359.570000", "164401.060000", "164402.550000", "164404.040000", "164405.530000", "164407.020000", "164408.510000", "164410.000000", "164411.490000", "164412.980000", "164414.470000", "164415.960000", "164417.450000", "164418.940000", "164420.430000", "164421.920000", "164423.410000", "164424.900000", "164426.390000", "164427.880000", "164429.370000", "164430.860000", "164432.350000", "164433.840000", "164435.330000", "164436.820000", "164438.310000", "164439.800000", "164441.290000", "164442.780000", "164444.270000", "164445.760000", "164447.250000", "164448.740000", "164450.230000", "164451.720000", "164453.210000", "164454.700000", "164456.190000", "164457.680000", "164459.170000", "164500.660000", "164502.150000", "164503.640000", "164505.130000", "164506.620000", "164508.110000", "164509.600000", "164511.090000", "164512.580000", "164514.070000", "164515.560000", "164517.050000", "164518.540000", "164520.030000", "164521.520000", "164523.010000", "164524.500000", "164525.990000", "164527.480000", "164528.970000", "164530.460000", "164531.950000", "164533.440000", "164534.930000", "164536.420000", "164537.910000", "164539.400000", "164540.890000", "164542.380000", "164543.870000", "164545.360000", "164546.850000", "164548.340000", "164549.830000", "164551.320000", "164552.810000", "164554.300000", "164555.790000", "164557.280000", "164558.770000", "164600.260000", "164601.750000", "164603.240000", "164604.730000", "164606.220000", "164607.710000", "164609.200000", "164610.690000", "164612.180000", "164613.670000", "164615.160000", "164616.650000", "164618.140000", "164619.630000", "164621.120000", "164622.610000", "164624.100000", "164625.590000", "164627.080000", "164628.570000", "164630.060000", "164631.550000", "164633.040000", "164634.530000", "164636.020000", "164637.510000", "164639.000000", "164640.490000", "164641.980000", "164643.470000", "164644.960000", "164646.450000", "164647.940000", "164649.430000", "164650.920000", "164652.410000", "164653.900000", "164655.390000", "164656.880000", "164658.370000", "164659.860000", "164701.350000", "164702.840000", "164704.330000", "164705.820000", "164707.310000", "164708.800000", "164710.290000", "164711.780000", "164713.270000", "164714.760000", "164716.250000", "164717.740000", "164719.230000", "164720.720000", "164722.210000", "164723.700000", "164725.190000", "164726.680000", "164728.170000", "164729.660000", "164731.150000", "164732.640000", "164734.130000", "164735.620000", "164737.110000", "164738.600000", "164740.090000", "164741.580000", "164743.070000", "164744.560000", "164746.050000", "164747.540000", "164749.030000", "164750.520000", "164752.010000", "164753.500000", "164754.990000", "164756.480000", "164757.970000", "164759.460000", "164800.950000", "164802.440000", "164803.930000", "164805.420000", "164806.910000", "164808.400000", "164809.890000", "164811.380000", "164812.870000", "164814.360000", "164815.850000", "164817.340000", "164818.830000", "164820.320000", "164821.810000", "164823.300000", "164824.790000", "164826.280000", "164827.770000", "164829.260000", "164830.750000", "164832.240000", "164833.730000", "164835.220000", "164836.710000", "164838.200000", "164839.690000", "164841.180000", "164842.670000", "164844.160000", "164845.650000", "164847.140000", "164848.630000", "164850.120000", "164851.610000", "164853.100000", "164854.590000", "164856.080000", "164857.570000", "164859.060000", "164900.550000", "164902.040000", "164903.530000", "164905.020000", "164906.510000", "164908.000000", "164909.490000", "164910.980000", "164912.470000", "164913.960000", "164915.450000", "164916.940000", "164918.430000", "164919.920000", "164921.410000", "164922.900000", "164924.390000", "164925.880000", "164927.370000", "164928.860000", "164930.350000", "164931.840000", "164933.330000", "164934.820000", "164936.310000", "164937.800000", "164939.290000", "164940.780000", "164942.270000", "164943.760000", "164945.250000", "164946.740000", "164948.230000", "164949.720000", "164951.210000", "164952.700000", "164954.190000", "164955.680000", "164957.170000", "164958.660000", "165000.150000", "165001.640000", "165003.130000", "165004.620000", "165006.110000", "165007.600000", "165009.090000", "165010.580000", "165012.070000", "165013.560000", "165015.050000", "165016.540000", "165018.030000", "165019.520000", "165021.010000", "165022.500000", "165023.990000", "165025.480000", "165026.970000", "165028.460000", "165029.950000", "165031.440000", "165032.930000", "165034.420000", "165035.910000", "165037.400000", "165038.890000", "165040.380000", "165041.870000", "165043.360000", "165044.850000", "165046.340000", "165047.830000", "165049.320000", "165050.810000", "165052.300000", "165053.790000", "165055.280000", "165056.770000", "165058.260000", "165059.750000", "165101.240000", "165102.730000", "165104.220000", "165105.710000", "165107.200000", "165108.690000", "165110.180000", "165111.670000", "165113.160000", "165114.650000", "165116.140000", "165117.630000", "165119.120000", "165120.610000", "165122.100000", "165123.590000", "165125.080000", "165126.570000", "165128.060000", "165129.550000", "165131.040000", "165132.530000", "165134.020000", "165135.510000", "165137.000000", "165138.490000", "165139.980000", "165141.470000", "165142.960000", "165144.450000", "165145.940000", "165147.430000", "165148.920000", "165150.410000", "165151.900000", "165153.390000", "165154.880000", "165156.370000", "165157.860000", "165159.350000", "165200.840000", "165202.330000", "165203.820000", "165205.310000", "165206.800000", "165208.290000", "165209.780000", "165211.270000", "165212.760000", "165214.250000", "165215.740000", "165217.230000", "165218.720000", "165220.210000", "165221.700000", "165223.190000", "165224.680000", "165226.170000", "165227.660000", "165229.150000", "165230.640000", "165232.130000", "165233.620000", "165235.110000", "165236.600000", "165238.090000", "165239.580000", "165241.070000", "165242.560000", "165244.050000", "165245.540000", "165247.030000", "165248.520000", "165250.010000", "165251.500000", "165252.990000", "165254.480000", "165255.970000", "165257.460000", "165258.950000", "165300.440000", "165301.930000", "165303.420000", "165304.910000", "165306.400000", "165307.890000", "165309.380000", "165310.870000", "165312.360000", "165313.850000", "165315.340000", "165316.830000", "165318.320000", "165319.810000", "165321.300000", "165322.790000", "165324.280000", "165325.770000", "165327.260000", "165328.750000", "165330.240000", "165331.730000", "165333.220000", "165334.710000", "165336.200000", "165337.690000", "165339.180000", "165340.670000", "165342.160000", "165343.650000", "165345.140000", "165346.630000", "165348.120000", "165349.610000", "165351.100000", "165352.590000", "165354.080000", "165355.570000", "165357.060000", "165358.550000", "165400.040000", "165401.530000", "165403.020000", "165404.510000", "165406.000000", "165407.490000", "165408.980000", "165410.470000", "165411.960000", "165413.450000", "165414.940000", "165416.430000", "165417.920000", "165419.410000", "165420.900000", "165422.390000", "165423.880000", "165425.370000", "165426.860000", "165428.350000", "165429.840000", "165431.330000", "165432.820000", "165434.310000", "165435.800000", "165437.290000", "165438.780000", "165440.270000", "165441.760000", "165443.250000", "165444.740000", "165446.230000", "165447.720000", "165449.210000", "165450.700000", "165452.190000", "165453.680000", "165455.170000", "165456.660000", "165458.150000", "165459.640000", "165501.130000", "165502.620000", "165504.110000", "165505.600000", "165507.090000", "165508.580000", "165510.070000", "165511.560000"],
      "ContentTime": ["164419.707000", "164419.710000", "164419.720000", "164419.725000", "164419.728000", "164419.731000", "164419.734000", "164419.751000", "164419.753000", "164419.756000", "164419.759000", "164419.769000", "164419.772000", "164419.775000", "164419.778000", "164419.781000", "164419.784000", "164419.787000", "164419.790000", "164419.819000", "164419.822000", "164419.825000", "164419.828000", "164419.830000", "164419.833000", "164419.836000", "164439.662000", "164439.665000", "164439.668000", "164439.671000", "164439.674000", "164439.677000", "164439.680000", "164439.683000", "164439.686000", "164439.689000", "164439.691000", "164439.702000", "164439.705000", "164439.707000", "164439.710000", "164439.713000", "164439.716000", "164439.719000", "164439.722000", "164439.725000", "164459.663000", "164459.666000", "164459.669000", "164459.672000", "164459.675000", "164459.678000", "164459.681000", "164459.684000", "164459.687000", "164459.689000", "164459.692000", "164459.695000", "164459.698000", "164459.701000", "164459.708000", "164459.711000", "164459.714000", "164459.717000", "164459.720000", "164459.723000", "164459.726000", "164519.663000", "164519.666000", "164519.669000", "164519.673000", "164519.676000", "164519.679000", "164519.682000", "164519.685000", "164519.688000", "164519.691000", "164519.694000", "164519.697000", "164519.702000", "164519.705000", "164519.708000", "164519.711000", "164519.714000", "164519.717000", "164519.720000", "164519.723000", "164539.662000", "164539.665000", "164539.668000", "164539.671000", "164539.674000", "164539.677000", "164539.680000", "164539.683000", "164539.685000", "164539.688000", "164539.691000", "164539.694000", "164539.697000", "164539.700000", "164539.703000", "164539.706000", "164539.713000", "164539.716000", "164539.718000", "164539.721000", "164619.662000", "164619.665000", "164619.668000", "164619.671000", "164619.674000", "164619.677000", "164619.680000", "164619.682000", "164619.685000", "164619.688000", "164619.691000", "164619.694000", "164619.697000", "164619.700000", "164619.703000", "164619.706000", "164619.710000", "164619.713000", "164619.716000", "164619.719000", "164619.722000", "164619.725000", "164619.728000", "164619.730000", "164619.733000", "164619.736000", "164619.739000", "164619.742000", "164619.745000", "164659.662000", "164659.665000", "164659.668000", "164659.671000", "164659.674000", "164659.677000", "164659.680000", "164659.683000", "164659.686000", "164659.689000", "164659.692000", "164659.694000", "164659.697000", "164659.700000", "164659.703000", "164659.706000", "164659.709000", "164659.712000", "164659.715000", "164659.718000", "164659.720000", "164659.723000", "164659.726000", "164659.729000", "164659.732000", "164659.735000", "164659.738000", "164719.663000", "164719.666000", "164719.669000", "164719.672000", "164719.675000", "164719.678000", "164719.681000", "164719.684000", "164719.687000", "164719.690000", "164719.693000", "164719.695000", "164719.698000", "164719.701000", "164759.662000", "164759.665000", "164759.669000", "164759.672000", "164759.675000", "164759.678000", "164759.681000", "164759.684000", "164759.687000", "164759.690000", "164759.693000", "164759.696000", "164759.699000", "164759.702000", "164759.704000", "164759.707000", "164759.710000", "164759.713000", "164759.716000", "164759.719000", "164759.722000", "164759.725000", "164759.728000", "164759.731000", "164759.734000", "164759.737000", "164839.662000", "164839.665000", "164839.668000", "164839.671000", "164839.674000", "164839.694000", "164839.697000", "164839.700000", "164839.703000", "164839.706000", "164839.709000", "164839.711000", "164839.714000", "164839.717000", "164839.720000", "164839.723000", "164839.726000", "164839.729000", "164839.732000", "164839.735000", "164839.738000", "164839.741000", "164839.744000", "164839.747000", "164839.749000", "164839.752000", "164839.755000", "164919.662000", "164919.665000", "164919.668000", "164919.671000", "164919.674000", "164919.677000", "164919.680000", "164919.683000", "164919.686000", "164919.689000", "164919.692000", "164919.695000", "164919.698000", "164919.700000", "164919.703000", "164919.706000", "164919.709000", "164919.712000", "164919.715000", "164919.718000", "164919.721000", "164919.724000", "164919.727000", "164919.730000", "164919.733000", "164919.736000", "164919.738000", "164959.663000", "164959.666000", "164959.669000", "164959.672000", "164959.675000", "164959.678000", "164959.681000", "164959.684000", "164959.687000", "164959.690000", "164959.693000", "164959.696000", "164959.698000", "164959.701000", "164959.704000", "164959.707000", "164959.710000", "164959.713000", "164959.716000", "164959.719000", "164959.722000", "164959.725000", "164959.728000", "164959.731000", "164959.733000", "164959.736000", "164959.739000", "165039.662000", "165039.665000", "165039.668000", "165039.671000", "165039.674000", "165039.677000", "165039.680000", "165039.683000", "165039.686000", "165039.689000", "165039.692000", "165039.695000", "165039.698000", "165039.700000", "165039.703000", "165039.706000", "165039.709000", "165039.712000", "165039.715000", "165039.718000", "165039.721000", "165039.724000", "165039.727000", "165039.730000", "165039.733000", "165039.735000", "165039.738000", "165119.662000", "165119.674000", "165119.677000", "165119.680000", "165119.683000", "165119.686000", "165119.689000", "165119.692000", "165119.694000", "165119.697000", "165119.700000", "165119.703000", "165119.706000", "165119.709000", "165119.712000", "165119.715000", "165119.718000", "165119.721000", "165119.724000", "165119.727000", "165119.730000", "165119.732000", "165119.735000", "165119.738000", "165119.741000", "165119.744000", "165119.747000", "165159.663000", "165159.666000", "165159.669000", "165159.672000", "165159.675000", "165159.678000", "165159.681000", "165159.684000", "165159.687000", "165159.690000", "165159.693000", "165159.696000", "165159.698000", "165159.701000", "165159.704000", "165159.707000", "165159.710000", "165159.713000", "165159.716000", "165159.719000", "165159.722000", "165159.725000", "165159.728000", "165159.731000", "165159.733000", "165159.736000", "165159.739000", "165239.662000", "165239.665000", "165239.668000", "165239.671000", "165239.674000", "165239.677000", "165239.680000", "165239.683000", "165239.686000", "165239.689000", "165239.692000", "165239.694000", "165239.697000", "165239.700000", "165239.703000", "165239.706000", "165239.710000", "165239.713000", "165239.715000", "165239.718000", "165239.721000", "165239.724000", "165239.727000", "165239.730000", "165239.733000", "165239.736000", "165319.677000", "165319.680000", "165319.683000", "165319.686000", "165319.689000", "165319.692000", "165319.695000", "165319.698000", "165319.701000", "165319.704000", "165319.707000", "165319.710000", "165319.713000", "165319.716000", "165319.719000", "165319.722000", "165319.725000", "165319.727000", "165319.730000", "165319.733000", "165319.736000", "165319.739000", "165319.742000", "165319.745000", "165319.748000", "165319.751000", "165319.754000", "165359.662000", "165359.665000", "165359.668000", "165359.671000", "165359.674000", "165359.677000", "165359.680000", "165359.683000", "165359.686000", "165359.689000", "165359.692000", "165359.695000", "165359.698000", "165359.701000", "165359.704000", "165359.707000", "165359.710000", "165359.713000", "165359.716000", "165359.719000", "165359.721000", "165359.724000", "165359.727000", "165359.730000", "165359.733000", "165359.736000", "165359.739000", "165439.663000", "165439.666000", "165439.670000", "165439.676000", "165439.679000", "165439.682000", "165439.685000", "165439.688000", "165439.691000", "165439.694000", "165439.697000", "165439.700000", "165439.703000", "165439.706000", "165439.709000", "165439.712000", "165439.715000", "165439.718000", "165439.721000", "165439.724000", "165439.726000", "165439.729000", "165439.732000", "165439.735000", "165439.738000", "165439.741000", "165439.744000", "165513.298000", "165513.302000", "165513.305000", "165513.308000", "165513.311000", "165513.313000", "165513.316000", "165513.319000", "165513.322000", "165513.325000", "165513.328000", "165513.331000", "165513.334000", "165513.337000", "165513.340000", "165513.343000", "165513.346000", "165513.349000", "165513.352000", "165513.355000", "165513.358000", "165513.360000", "165513.363000"],
