{
  "AcquisitionMatrixPE": 104,
  "AcquisitionNumber": 1,
  "AcquisitionTime": "10:18:24.180000",
  "BandwidthPerPixelPhaseEncode": 17.17,
  "BaseResolution": 104,
  "BodyPartExamined": "BRAIN",
  "CoilCombinationMethod": "Sum of Squares",
  "ConsistencyInfo": "N4_VE11C_LATEST_20160120",
  "ConversionSoftware": "dcm2niix",
  "ConversionSoftwareVersion": "v1.0.20230411",
  "DerivedVendorReportedEchoSpacing": 0.000560011,
  "DeviceSerialNumber": "167006",
  "DwellTime": 2.1e-06,
  "EchoTime": 0.037,
  "EchoTrainLength": 104,
  "EffectiveEchoSpacing": 0.000560011,
  "FlipAngle": 52,
  "HeudiconvVersion": "0.5.3.post861+ge7d3c7f",
  "ImageComments": "Unaliased MB4/PE3/LB",
  "ImageOrientationPatientDICOM": [0.997997, 0.060467, 0.0185826, -0.0514296, 0.946626, -0.318204],
  "ImageOrientationText": "Tra>Cor(-18.5)>Sag(2.1)",
  "ImageType": [
    "ORIGINAL",
    "PRIMARY",
    "M",
    "MB",
    "ND",
    "MOSAIC"
],
  "ImagingFrequency": 123.249575,
  "InPlanePhaseEncodingDirectionDICOM": "COL",
  "InstitutionAddress": "Chemin Queen-Mary 4565,Montreal,District,CA,H3W 1W5",
  "InstitutionName": "IUGM",
  "InstitutionalDepartmentName": "Department",
  "MRAcquisitionType": "2D",
  "MagneticFieldStrength": 3,
  "Manufacturer": "Siemens",
  "ManufacturersModelName": "Prisma_fit",
  "MatrixCoilMode": "SENSE",
  "Modality": "MR",
  "MultibandAccelerationFactor": 4,
  "NonlinearGradientCorrection": false,
  "PartialFourier": 1,
  "PatientPosition": "HFS",
  "PercentPhaseFOV": 100,
  "PercentSampling": 100,
  "PhaseEncodingDirection": "j",
  "PhaseEncodingSteps": 104,
  "PhaseResolution": 1,
  "PixelBandwidth": 2290,
  "ProcedureStepDescription": "video^friends",
  "ProtocolName": "func_task-friends-s07e12b",
  "PulseSequenceDetails": "%CustomerSeq%\\cmrr_mbep2d_bold",
  "ReceiveCoilActiveElements": "HC1-7;NC1,2",
  "ReceiveCoilName": "HeadNeck_64",
  "ReconMatrixPE": 104,
  "RepetitionTime": 1.49,
  "SAR": 0.0585441,
  "ScanOptions": "FS",
  "ScanningSequence": "EP",
  "SequenceName": "epfid2d1_104",
  "SequenceVariant": "SK\\SS",
  "SeriesDescription": "func_task-friends-s07e12b",
  "SeriesNumber": 10,
  "ShimSetting": [617, -7217, -8790, 639, 146, -27, -71, 78],
  "SliceThickness": 2,
  "SliceTiming": [0, 0.785, 0.1, 0.8825, 0.1975, 0.98, 0.295, 1.08, 0.3925, 1.1775, 0.49, 1.275, 0.59, 1.3725, 0.6875, 0, 0.785, 0.1, 0.8825, 0.1975, 0.98, 0.295, 1.08, 0.3925, 1.1775, 0.49, 1.275, 0.59, 1.3725, 0.6875, 0, 0.785, 0.1, 0.8825, 0.1975, 0.98, 0.295, 1.08, 0.3925, 1.1775, 0.49, 1.275, 0.59, 1.3725, 0.6875, 0, 0.785, 0.1, 0.8825, 0.1975, 0.98, 0.295, 1.08, 0.3925, 1.1775, 0.49, 1.275, 0.59, 1.3725, 0.6875],
  "SoftwareVersions": "syngo MR E11",
  "SpacingBetweenSlices": 2,
  "StationName": "MRC35049",
  "TaskName": "s07e12b",
  "TotalReadoutTime": 0.0576811,
  "TxRefAmp": 268.803,
  "WipMemBlock": "265748d0-bae2-4de2-9516-6ce216b072c8||Sequence: R017 ve11c/master r/75a17815+; Jun 28 2022 16:32:11 by eja",
  "dcmmeta_affine": [
    [-1.9959944486618042, -0.10285915434360504, 0.07366307824850082, 106.47376251220703],
    [-0.1209339052438736, 1.8932526111602783, -0.6332213878631592, -64.37096405029297],
    [0.03716510161757469, 0.6364073753356934, 1.8956804275512695, -55.12373733520508],
    [0.0, 0.0, 0.0, 1.0]
],
  "dcmmeta_reorient_transform": [
    [0.0, -1.0, 0.0, 103.0],
    [1.0, 0.0, 0.0, 0.0],
    [0.0, 0.0, 1.0, 0.0],
    [0.0, 0.0, 0.0, 1.0]
],
  "dcmmeta_shape": [104, 104, 60, 486],
  "dcmmeta_slice_dim": 2,
  "dcmmeta_version": 0.6,
  "global": {
    "const": {
      "AcquisitionMatrix": [104, 0, 0, 104],
      "AngioFlag": "N",
      "BitsAllocated": 16,
      "BitsStored": 16,
      "BodyPartExamined": "BRAIN",
      "Columns": 832,
      "EchoNumbers": 1,
      "EchoTime": 37.0,
      "EchoTrainLength": 104,
      "FlipAngle": 52.0,
      "HighBit": 15,
      "ImageOrientationPatient": [0.99799721259287, 0.060466953438, 0.01858255092272, -0.0514295764489, 0.94662633038005, -0.3182036915208],
      "ImagePositionPatient": [-784.98050726916, -863.79797062661, 228.55041397764],
      "ImageType": [
        "ORIGINAL",
        "PRIMARY",
        "M",
        "MB",
        "ND",
        "MOSAIC"
],
      "ImagedNucleus": "1H",
      "ImagingFrequency": 123.249575,
      "InPlanePhaseEncodingDirection": "COL",
      "MRAcquisitionType": "2D",
      "MagneticFieldStrength": 3.0,
      "Manufacturer": "SIEMENS",
      "ManufacturerModelName": "Prisma_fit",
      "Modality": "MR",
      "NumberOfAverages": 1.0,
      "NumberOfPhaseEncodingSteps": 104,
      "PercentPhaseFieldOfView": 100.0,
      "PercentSampling": 100.0,
      "PerformedProcedureStepStartTime": "101315.705000",
      "PhotometricInterpretation": "MONOCHROME2",
      "PixelBandwidth": 2290.0,
      "PixelRepresentation": 0,
      "PixelSpacing": [2.0, 2.0],
      "ProtocolName": "func_task-friends-s07e12b",
      "RepetitionTime": 1490.0,
      "Rows": 832,
      "SAR": 0.05854405877695,
      "SamplesPerPixel": 1,
      "ScanOptions": "FS",
      "ScanningSequence": "EP",
      "SequenceName": "epfid2d1_104",
      "SequenceVariant": [
        "SK",
        "SS"
],
      "SeriesDescription": "func_task-friends-s07e12b",
      "SeriesNumber": 10,
      "SeriesTime": "101916.740000",
      "SliceLocation": -27.946366499679,
      "SliceThickness": 2.0,
      "SmallestImagePixelValue": 0,
      "SoftwareVersions": "syngo MR E11",
      "SpacingBetweenSlices": 1.9999999840513,
      "SpecificCharacterSet": "ISO_IR 100",
      "StudyID": "1",
      "StudyTime": "101315.618000",
      "TransmitCoilName": "Body",
      "VariableFlipAngleFlag": "N",
      "WindowCenterWidthExplanation": "Algo1",
      "dBdt": 0.0},
    "slices": {}
  },
  "time": {
    "samples": {
      "AcquisitionNumber": [1, 2, 3, 4, 5, 6, 7, 8, 9, 10, 11, 12, 13, 14, 15, 16, 17, 18, 19, 20, 21, 22, 23, 24, 25, 26, 27, 28, 29, 30, 31, 32, 33, 34, 35, 36, 37, 38, 39, 40, 41, 42, 43, 44, 45, 46, 47, 48, 49, 50, 51, 52, 53, 54, 55, 56, 57, 58, 59, 60, 61, 62, 63, 64, 65, 66, 67, 68, 69, 70, 71, 72, 73, 74, 75, 76, 77, 78, 79, 80, 81, 82, 83, 84, 85, 86, 87, 88, 89, 90, 91, 92, 93, 94, 95, 96, 97, 98, 99, 100, 101, 102, 103, 104, 105, 106, 107, 108, 109, 110, 111, 112, 113, 114, 115, 116, 117, 118, 119, 120, 121, 122, 123, 124, 125, 126, 127, 128, 129, 130, 131, 132, 133, 134, 135, 136, 137, 138, 139, 140, 141, 142, 143, 144, 145, 146, 147, 148, 149, 150, 151, 152, 153, 154, 155, 156, 157, 158, 159, 160, 161, 162, 163, 164, 165, 166, 167, 168, 169, 170, 171, 172, 173, 174, 175, 176, 177, 178, 179, 180, 181, 182, 183, 184, 185, 186, 187, 188, 189, 190, 191, 192, 193, 194, 195, 196, 197, 198, 199, 200, 201, 202, 203, 204, 205, 206, 207, 208, 209, 210, 211, 212, 213, 214, 215, 216, 217, 218, 219, 220, 221, 222, 223, 224, 225, 226, 227, 228, 229, 230, 231, 232, 233, 234, 235, 236, 237, 238, 239, 240, 241, 242, 243, 244, 245, 246, 247, 248, 249, 250, 251, 252, 253, 254, 255, 256, 257, 258, 259, 260, 261, 262, 263, 264, 265, 266, 267, 268, 269, 270, 271, 272, 273, 274, 275, 276, 277, 278, 279, 280, 281, 282, 283, 284, 285, 286, 287, 288, 289, 290, 291, 292, 293, 294, 295, 296, 297, 298, 299, 300, 301, 302, 303, 304, 305, 306, 307, 308, 309, 310, 311, 312, 313, 314, 315, 316, 317, 318, 319, 320, 321, 322, 323, 324, 325, 326, 327, 328, 329, 330, 331, 332, 333, 334, 335, 336, 337, 338, 339, 340, 341, 342, 343, 344, 345, 346, 347, 348, 349, 350, 351, 352, 353, 354, 355, 356, 357, 358, 359, 360, 361, 362, 363, 364, 365, 366, 367, 368, 369, 370, 371, 372, 373, 374, 375, 376, 377, 378, 379, 380, 381, 382, 383, 384, 385, 386, 387, 388, 389, 390, 391, 392, 393, 394, 395, 396, 397, 398, 399, 400, 401, 402, 403, 404, 405, 406, 407, 408, 409, 410, 411, 412, 413, 414, 415, 416, 417, 418, 419, 420, 421, 422, 423, 424, 425, 426, 427, 428, 429, 430, 431, 432, 433, 434, 435, 436, 437, 438, 439, 440, 441, 442, 443, 444, 445, 446, 447, 448, 449, 450, 451, 452, 453, 454, 455, 456, 457, 458, 459, 460, 461, 462, 463, 464, 465, 466, 467, 468, 469, 470, 471, 472, 473, 474, 475, 476, 477, 478, 479, 480, 481, 482, 483, 484, 485, 486],
      "AcquisitionTime": ["101824.180000", "101825.670000", "101827.160000", "101828.650000", "101830.140000", "101831.630000", "101833.120000", "101834.610000", "101836.100000", "101837.590000", "101839.080000", "101840.570000", "101842.060000", "101843.550000", "101845.040000", "101846.530000", "101848.020000", "101849.510000", "101851.000000", "101852.490000", "101853.980000", "101855.470000", "101856.960000", "101858.450000", "101859.940000", "101901.430000", "101902.920000", "101904.410000", "101905.900000", "101907.390000", "101908.880000", "101910.370000", "101911.860000", "101913.350000", "101914.840000", "101916.330000", "101917.820000", "101919.310000", "101920.800000", "101922.290000", "101923.780000", "101925.270000", "101926.760000", "101928.250000", "101929.740000", "101931.230000", "101932.720000", "101934.210000", "101935.700000", "101937.190000", "101938.680000", "101940.170000", "101941.660000", "101943.150000", "101944.640000", "101946.130000", "101947.620000", "101949.110000", "101950.600000", "101952.090000", "101953.580000", "101955.070000", "101956.560000", "101958.050000", "101959.540000", "102001.030000", "102002.520000", "102004.010000", "102005.500000", "102006.990000", "102008.480000", "102009.970000", "102011.460000", "102012.950000", "102014.440000", "102015.930000", "102017.420000", "102018.910000", "102020.400000", "102021.890000", "102023.380000", "102024.870000", "102026.360000", "102027.850000", "102029.340000", "102030.830000", "102032.320000", "102033.810000", "102035.300000", "102036.790000", "102038.280000", "102039.770000", "102041.260000", "102042.750000", "102044.240000", "102045.730000", "102047.220000", "102048.710000", "102050.200000", "102051.690000", "102053.180000", "102054.670000", "102056.160000", "102057.650000", "102059.140000", "102100.630000", "102102.120000", "102103.610000", "102105.100000", "102106.590000", "102108.080000", "102109.570000", "102111.060000", "102112.550000", "102114.040000", "102115.530000", "102117.020000", "102118.510000", "102120.000000", "102121.490000", "102122.980000", "102124.470000", "102125.960000", "102127.450000", "102128.940000", "102130.430000", "102131.920000", "102133.410000", "102134.900000", "102136.390000", "102137.880000", "102139.370000", "102140.860000", "102142.350000", "102143.840000", "102145.330000", "102146.820000", "102148.310000", "102149.800000", "102151.290000", "102152.780000", "102154.270000", "102155.760000", "102157.250000", "102158.740000", "102200.230000", "102201.720000", "102203.210000", "102204.700000", "102206.190000", "102207.680000", "102209.170000", "102210.660000", "102212.150000", "102213.640000", "102215.130000", "102216.620000", "102218.110000", "102219.600000", "102221.090000", "102222.580000", "102224.070000", "102225.560000", "102227.050000", "102228.540000", "102230.030000", "102231.520000", "102233.010000", "102234.500000", "102235.990000", "102237.480000", "102238.970000", "102240.460000", "102241.950000", "102243.440000", "102244.930000", "102246.420000", "102247.910000", "102249.400000", "102250.890000", "102252.380000", "102253.870000", "102255.360000", "102256.850000", "102258.340000", "102259.830000", "102301.320000", "102302.810000", "102304.300000", "102305.790000", "102307.280000", "102308.770000", "102310.260000", "102311.750000", "102313.240000", "102314.730000", "102316.220000", "102317.710000", "102319.200000", "102320.690000", "102322.180000", "102323.670000", "102325.160000", "102326.650000", "102328.140000", "102329.630000", "102331.120000", "102332.610000", "102334.100000", "102335.590000", "102337.080000", "102338.570000", "102340.060000", "102341.550000", "102343.040000", "102344.530000", "102346.020000", "102347.510000", "102349.000000", "102350.490000", "102351.980000", "102353.470000", "102354.960000", "102356.450000", "102357.940000", "102359.430000", "102400.920000", "102402.410000", "102403.900000", "102405.390000", "102406.880000", "102408.370000", "102409.860000", "102411.350000", "102412.840000", "102414.330000", "102415.820000", "102417.310000", "102418.800000", "102420.290000", "102421.780000", "102423.270000", "102424.760000", "102426.250000", "102427.740000", "102429.230000", "102430.720000", "102432.210000", "102433.700000", "102435.190000", "102436.680000", "102438.170000", "102439.660000", "102441.150000", "102442.640000", "102444.130000", "102445.620000", "102447.110000", "102448.600000", "102450.090000", "102451.580000", "102453.070000", "102454.560000", "102456.050000", "102457.540000", "102459.030000", "102500.520000", "102502.010000", "102503.500000", "102504.990000", "102506.480000", "102507.970000", "102509.460000", "102510.950000", "102512.440000", "102513.930000", "102515.420000", "102516.910000", "102518.400000", "102519.890000", "102521.380000", "102522.870000", "102524.360000", "102525.850000", "102527.340000", "102528.830000", "102530.320000", "102531.810000", "102533.300000", "102534.790000", "102536.280000", "102537.770000", "102539.260000", "102540.750000", "102542.240000", "102543.730000", "102545.220000", "102546.710000", "102548.200000", "102549.690000", "102551.180000", "102552.670000", "102554.160000", "102555.650000", "102557.140000", "102558.630000", "102600.120000", "102601.610000", "102603.100000", "102604.590000", "102606.080000", "102607.570000", "102609.060000", "102610.550000", "102612.040000", "102613.530000", "102615.020000", "102616.510000", "102618.000000", "102619.490000", "102620.980000", "102622.470000", "102623.960000", "102625.450000", "102626.940000", "102628.430000", "102629.920000", "102631.410000", "102632.900000", "102634.390000", "102635.880000", "102637.370000", "102638.860000", "102640.350000", "102641.840000", "102643.330000", "102644.820000", "102646.310000", "102647.800000", "102649.290000", "102650.780000", "102652.270000", "102653.760000", "102655.250000", "102656.740000", "102658.230000", "102659.720000", "102701.210000", "102702.700000", "102704.190000", "102705.680000", "102707.170000", "102708.660000", "102710.150000", "102711.640000", "102713.130000", "102714.620000", "102716.110000", "102717.600000", "102719.090000", "102720.580000", "102722.070000", "102723.560000", "102725.050000", "102726.540000", "102728.030000", "102729.520000", "102731.010000", "102732.500000", "102733.990000", "102735.480000", "102736.970000", "102738.460000", "102739.950000", "102741.440000", "102742.930000", "102744.420000", "102745.910000", "102747.400000", "102748.890000", "102750.380000", "102751.870000", "102753.360000", "102754.850000", "102756.340000", "102757.830000", "102759.320000", "102800.810000", "102802.300000", "102803.790000", "102805.280000", "102806.770000", "102808.260000", "102809.750000", "102811.240000", "102812.730000", "102814.220000", "102815.710000", "102817.200000", "102818.690000", "102820.180000", "102821.670000", "102823.160000", "102824.650000", "102826.140000", "102827.630000", "102829.120000", "102830.610000", "102832.100000", "102833.590000", "102835.080000", "102836.570000", "102838.060000", "102839.550000", "102841.040000", "102842.530000", "102844.020000", "102845.510000", "102847.000000", "102848.490000", "102849.980000", "102851.470000", "102852.960000", "102854.450000", "102855.940000", "102857.430000", "102858.920000", "102900.410000", "102901.900000", "102903.390000", "102904.880000", "102906.370000", "102907.860000", "102909.350000", "102910.840000", "102912.330000", "102913.820000", "102915.310000", "102916.800000", "102918.290000", "102919.780000", "102921.270000", "102922.760000", "102924.250000", "102925.740000", "102927.230000", "102928.720000", "102930.210000", "102931.700000", "102933.190000", "102934.680000", "102936.170000", "102937.660000", "102939.150000", "102940.640000", "102942.130000", "102943.620000", "102945.110000", "102946.600000", "102948.090000", "102949.580000", "102951.070000", "102952.560000", "102954.050000", "102955.540000", "102957.030000", "102958.520000", "103000.010000", "103001.500000", "103002.990000", "103004.480000", "103005.970000", "103007.460000", "103008.950000", "103010.440000", "103011.930000", "103013.420000", "103014.910000", "103016.400000", "103017.890000", "103019.380000", "103020.870000", "103022.360000", "103023.850000", "103025.340000", "103026.830000"],
      "ContentTime": ["101916.742000", "101916.746000", "101916.749000", "101916.752000", "101916.755000", "101916.758000", "101936.712000", "101936.715000", "101936.718000", "101936.721000", "101936.724000", "101936.727000", "101936.739000", "101936.742000", "101936.745000", "101936.748000", "101936.751000", "101936.754000", "101936.758000", "101936.761000", "101936.764000", "101936.767000", "101936.770000", "101936.773000", "101936.776000", "101936.794000", "101956.712000", "101956.715000", "101956.726000", "101956.729000", "101956.732000", "101956.736000", "101956.738000", "101956.741000", "101956.744000", "101956.748000", "101956.751000", "101956.754000", "101956.756000", "101956.760000", "101956.763000", "101956.766000", "101956.769000", "101956.772000", "101956.775000", "101956.778000", "102016.712000", "102016.715000", "102016.726000", "102016.729000", "102016.732000", "102016.735000", "102016.738000", "102016.741000", "102016.744000", "102016.747000", "102016.750000", "102016.753000", "102016.756000", "102016.759000", "102016.762000", "102016.765000", "102016.768000", "102016.771000", "102016.774000", "102016.777000", "102036.712000", "102036.715000", "102036.718000", "102036.721000", "102036.724000", "102036.727000", "102036.730000", "102036.733000", "102036.736000", "102036.739000", "102036.742000", "102036.746000", "102036.749000", "102036.752000", "102036.755000", "102036.758000", "102036.761000", "102036.764000", "102036.767000", "102036.770000", "102036.773000", "102116.712000", "102116.715000", "102116.718000", "102116.721000", "102116.724000", "102116.727000", "102116.730000", "102116.733000", "102116.738000", "102116.769000", "102116.772000", "102116.775000", "102116.778000", "102116.781000", "102116.784000", "102116.787000", "102116.790000", "102116.793000", "102116.796000", "102116.799000", "102116.802000", "102116.805000", "102116.810000", "102116.813000", "102116.816000", "102116.819000", "102116.822000", "102116.825000", "102156.712000", "102156.715000", "102156.726000", "102156.729000", "102156.732000", "102156.735000", "102156.738000", "102156.741000", "102156.744000", "102156.747000", "102156.750000", "102156.753000", "102156.756000", "102156.759000", "102156.762000", "102156.765000", "102156.768000", "102156.771000", "102156.774000", "102156.777000", "102156.780000", "102156.783000", "102156.786000", "102156.789000", "102156.792000", "102156.795000", "102156.798000", "102236.712000", "102236.715000", "102236.718000", "102236.721000", "102236.724000", "102236.727000", "102236.730000", "102236.733000", "102236.736000", "102236.739000", "102236.742000", "102236.745000", "102236.749000", "102236.751000", "102236.754000", "102236.758000", "102236.761000", "102236.764000", "102236.767000", "102236.770000", "102236.773000", "102236.776000", "102236.780000", "102236.783000", "102236.786000", "102236.789000", "102236.792000", "102316.712000", "102316.715000", "102316.718000", "102316.721000", "102316.724000", "102316.728000", "102316.731000", "102316.734000", "102316.737000", "102316.740000", "102316.743000", "102316.746000", "102316.749000", "102316.752000", "102316.755000", "102316.758000", "102316.761000", "102316.764000", "102316.767000", "102316.770000", "102316.773000", "102316.776000", "102316.779000", "102316.782000", "102316.785000", "102316.788000", "102316.791000", "102356.712000", "102356.716000", "102356.719000", "102356.722000", "102356.725000", "102356.728000", "102356.731000", "102356.734000", "102356.737000", "102356.740000", "102356.752000", "102356.755000", "102356.758000", "102356.761000", "102356.764000", "102356.767000", "102356.770000", "102356.773000", "102356.776000", "102356.779000", "102356.782000", "102356.785000", "102356.788000", "102356.791000", "102356.794000", "102356.797000", "102356.800000", "102436.712000", "102436.715000", "102436.718000", "102436.721000", "102436.724000", "102436.728000", "102436.731000", "102436.734000", "102436.737000", "102436.740000", "102436.743000", "102436.746000", "102436.749000", "102436.752000", "102436.755000", "102436.758000", "102436.761000", "102436.764000", "102436.767000", "102436.770000", "102436.773000", "102436.776000", "102436.779000", "102436.782000", "102436.785000", "102436.788000", "102436.791000", "102516.712000", "102516.721000", "102516.724000", "102516.756000", "102516.759000", "102516.762000", "102516.765000", "102516.768000", "102516.771000", "102516.774000", "102516.777000", "102516.781000", "102516.784000", "102516.787000", "102516.790000", "102516.793000", "102516.796000", "102516.799000", "102516.802000", "102516.805000", "102516.808000", "102516.811000", "102516.814000", "102516.817000", "102516.820000", "102516.823000", "102556.712000", "102556.715000", "102556.718000", "102556.721000", "102556.724000", "102556.728000", "102556.730000", "102556.733000", "102556.737000", "102556.740000", "102556.743000", "102556.746000", "102556.749000", "102556.752000", "102556.755000", "102556.758000", "102556.761000", "102556.764000", "102556.767000", "102556.770000", "102556.773000", "102556.776000", "102556.779000", "102556.782000", "102556.785000", "102556.788000", "102556.791000", "102636.712000", "102636.715000", "102636.718000", "102636.721000", "102636.725000", "102636.728000", "102636.731000", "102636.734000", "102636.737000", "102636.740000", "102636.743000", "102636.746000", "102636.749000", "102636.752000", "102636.755000", "102636.758000", "102636.761000", "102636.764000", "102636.767000", "102636.770000", "102636.774000", "102636.777000", "102636.780000", "102636.783000", "102636.786000", "102636.789000", "102636.792000", "102716.712000", "102716.715000", "102716.718000", "102716.721000", "102716.724000", "102716.728000", "102716.730000", "102716.734000", "102716.737000", "102716.740000", "102716.743000", "102716.746000", "102716.749000", "102716.752000", "102716.755000", "102716.758000", "102716.761000", "102716.764000", "102716.767000", "102716.770000", "102716.773000", "102716.776000", "102716.779000", "102716.782000", "102716.785000", "102716.788000", "102716.791000", "102756.712000", "102756.715000", "102756.719000", "102756.722000", "102756.725000", "102756.728000", "102756.731000", "102756.734000", "102756.737000", "102756.740000", "102756.743000", "102756.746000", "102756.749000", "102756.752000", "102756.755000", "102756.758000", "102756.761000", "102756.764000", "102756.767000", "102756.771000", "102756.774000", "102756.777000", "102756.780000", "102756.783000", "102756.786000", "102756.789000", "102756.792000", "102836.712000", "102836.716000", "102836.719000", "102836.739000", "102836.742000", "102836.745000", "102836.752000", "102836.755000", "102836.758000", "102836.761000", "102836.764000", "102836.767000", "102836.770000", "102836.773000", "102836.776000", "102836.779000", "102836.782000", "102836.785000", "102836.788000", "102836.791000", "102836.794000", "102836.797000", "102836.800000", "102836.803000", "102836.806000", "102836.809000", "102836.812000", "102916.712000", "102916.725000", "102916.728000", "102916.730000", "102916.734000", "102916.737000", "102916.740000", "102916.743000", "102916.746000", "102916.749000", "102916.752000", "102916.755000", "102916.758000", "102916.761000", "102916.764000", "102916.767000", "102916.770000", "102916.773000", "102916.776000", "102916.780000", "102916.783000", "102916.786000", "102916.789000", "102916.792000", "102916.795000", "102916.798000", "102916.801000", "102956.712000", "102956.715000", "102956.718000", "102956.722000", "102956.725000", "102956.728000", "102956.731000", "102956.734000", "102956.737000", "102956.740000", "102956.743000", "102956.746000", "102956.749000", "102956.752000", "102956.755000", "102956.758000", "102956.761000", "102956.765000", "102956.768000", "102956.771000", "102956.774000", "102956.777000", "102956.780000", "102956.783000", "102956.786000", "102956.789000", "103028.176000", "103028.179000", "103028.182000", "103028.185000", "103028.188000", "103028.192000", "103028.194000", "103028.198000", "103028.201000", "103028.204000", "103028.207000", "103028.210000", "103028.213000", "103028.216000", "103028.219000", "103028.222000", "103028.225000", "103028.228000", "103028.231000", "103028.234000", "103028.237000", "103028.240000"],
