{
  "AcquisitionMatrixPE": 104,
  "AcquisitionNumber": 1,
  "AcquisitionTime": "11:15:22.872500",
  "BandwidthPerPixelPhaseEncode": 17.17,
  "BaseResolution": 104,
  "BodyPartExamined": "BRAIN",
  "CoilString": "HC1-7;NC1_2",
  "ConsistencyInfo": "N4_VE11C_LATEST_20160120",
  "ConversionSoftware": "dcm2niix",
  "ConversionSoftwareVersion": "v1.0.20190902",
  "DerivedVendorReportedEchoSpacing": 0.000560011,
  "DeviceSerialNumber": "167006",
  "DwellTime": 2.1e-06,
  "EchoTime": 0.037,
  "EchoTrainLength": 104,
  "EffectiveEchoSpacing": 0.000560011,
  "FlipAngle": 52,
  "ImageComments": "Unaliased_MB4_PE3_LB",
  "ImageOrientationPatientDICOM": [0.998396, 5.56531e-05, -0.0566162, -0.013244, 0.972484, -0.232595],
  "ImageType": [
    "ORIGINAL",
    "PRIMARY",
    "M",
    "MB",
    "ND",
    "MOSAIC"
],
  "ImagingFrequency": 123.259,
  "InPlanePhaseEncodingDirectionDICOM": "COL",
  "InstitutionAddress": "Chemin_Queen-Mary_4565_Montreal_District_CA_H3W_1W5",
  "InstitutionName": "IUGM",
  "InstitutionalDepartmentName": "Department",
  "MRAcquisitionType": "2D",
  "MagneticFieldStrength": 3,
  "Manufacturer": "Siemens",
  "ManufacturersModelName": "Prisma_fit",
  "Modality": "MR",
  "MultibandAccelerationFactor": 4,
  "PartialFourier": 1,
  "PatientPosition": "HFS",
  "PercentPhaseFOV": 100,
  "PhaseEncodingDirection": "j",
  "PhaseEncodingSteps": 104,
  "PhaseResolution": 1,
  "PixelBandwidth": 2290,
  "ProcedureStepDescription": "video_friends",
  "ProtocolName": "func_task-friends-s03e16a",
  "PulseSequenceDetails": "%CustomerSeq%_cmrr_mbep2d_bold",
  "ReceiveCoilActiveElements": "HC1-7;NC1,2",
  "ReceiveCoilName": "HeadNeck_64",
  "ReconMatrixPE": 104,
  "RepetitionTime": 1.49,
  "SAR": 0.0287942,
  "ScanOptions": "FS",
  "ScanningSequence": "EP",
  "SequenceName": "epfid2d1_104",
  "SequenceVariant": "SK_SS",
  "SeriesDescription": "func_task-friends-s03e16a",
  "SeriesNumber": 13,
  "ShimSetting": [612, -7243, -8833, 612, 1, -262, 1, 40],
  "SliceThickness": 2,
  "SliceTiming": [0, 0.785, 0.0975, 0.8825, 0.1975, 0.98, 0.295, 1.0775, 0.3925, 1.175, 0.49, 1.275, 0.5875, 1.3725, 0.6875, 0, 0.785, 0.0975, 0.8825, 0.1975, 0.98, 0.295, 1.0775, 0.3925, 1.175, 0.49, 1.275, 0.5875, 1.3725, 0.6875, 0, 0.785, 0.0975, 0.8825, 0.1975, 0.98, 0.295, 1.0775, 0.3925, 1.175, 0.49, 1.275, 0.5875, 1.3725, 0.6875, 0, 0.785, 0.0975, 0.8825, 0.1975, 0.98, 0.295, 1.0775, 0.3925, 1.175, 0.49, 1.275, 0.5875, 1.3725, 0.6875],
  "SoftwareVersions": "syngo_MR_E11",
  "SpacingBetweenSlices": 2,
  "StationName": "MRC35049",
  "TaskName": "s03e16a",
  "TotalReadoutTime": 0.0576811,
  "TxRefAmp": 216.548,
  "WipMemBlock": "f5fbd67c-1e28-405a-87dc-286c3de792ca||Sequence: R016 ve11c/master r/e634e98; Dec 19 2017 11:00:25 by eja",
  "dcmmeta_affine": [
    [-1.9967920780181885, -0.02648800238966942, -0.1100906953215599, 103.57557678222656],
    [-0.00011130610801046714, 1.9449670314788818, -0.46594342589378357, -81.30774688720703],
    [-0.11323234438896179, 0.46518993377685547, 1.941848874092102, -51.82347106933594],
    [0.0, 0.0, 0.0, 1.0]
],
  "dcmmeta_reorient_transform": [
    [0.0, -1.0, 0.0, 103.0],
    [1.0, 0.0, 0.0, 0.0],
    [0.0, 0.0, 1.0, 0.0],
    [0.0, 0.0, 0.0, 1.0]
],
  "dcmmeta_shape": [104, 104, 60, 468],
  "dcmmeta_slice_dim": 2,
  "dcmmeta_version": 0.6,
  "global": {
    "const": {
      "AcquisitionMatrix": [104, 0, 0, 104],
      "AngioFlag": "N",
      "BitsAllocated": 16,
      "BitsStored": 16,
      "BodyPartExamined": "BRAIN",
      "Columns": 832,
      "EchoNumbers": 1,
      "EchoTime": 37.0,
      "EchoTrainLength": 104,
      "FlipAngle": 52.0,
      "HighBit": 15,
      "ImageOrientationPatient": [0.99839601668779, 5.565305519e-05, -0.056616170523, -0.0132440013727, 0.97248350933307, -0.2325949709321],
      "ImagePositionPatient": [-818.03798031463, -827.03236864475, 206.63680369329],
      "ImageType": [
        "ORIGINAL",
        "PRIMARY",
        "M",
        "MB",
        "ND",
        "MOSAIC"
],
      "ImagedNucleus": "1H",
      "ImagingFrequency": 123.259083,
      "InPlanePhaseEncodingDirection": "COL",
      "MRAcquisitionType": "2D",
      "MagneticFieldStrength": 3.0,
      "Manufacturer": "SIEMENS",
      "ManufacturerModelName": "Prisma_fit",
      "Modality": "MR",
      "NumberOfAverages": 1.0,
      "NumberOfPhaseEncodingSteps": 104,
      "PercentPhaseFieldOfView": 100.0,
      "PercentSampling": 100.0,
      "PerformedProcedureStepStartTime": "094532.345000",
      "PhotometricInterpretation": "MONOCHROME2",
      "PixelBandwidth": 2290.0,
      "PixelRepresentation": 0,
      "PixelSpacing": [2.0, 2.0],
      "ProtocolName": "func_task-friends-s03e16a",
      "RepetitionTime": 1490.0,
      "Rows": 832,
      "SAR": 0.02879417911508,
      "SamplesPerPixel": 1,
      "ScanOptions": "FS",
      "ScanningSequence": "EP",
      "SequenceName": "epfid2d1_104",
      "SequenceVariant": [
        "SK",
        "SS"
],
      "SeriesDescription": "func_task-friends-s03e16a",
      "SeriesNumber": 13,
      "SeriesTime": "111641.208000",
      "SliceLocation": -37.075621538657,
      "SliceThickness": 2.0,
      "SmallestImagePixelValue": 0,
      "SoftwareVersions": "syngo MR E11",
      "SpacingBetweenSlices": 2.0000000252878,
      "SpecificCharacterSet": "ISO_IR 100",
      "StudyID": "1",
      "StudyTime": "094532.155000",
      "TransmitCoilName": "Body",
      "VariableFlipAngleFlag": "N",
      "WindowCenterWidthExplanation": "Algo1",
      "dBdt": 0.0},
    "slices": {}
  },
  "time": {
    "samples": {
      "AcquisitionNumber": [1, 2, 3, 4, 5, 6, 7, 8, 9, 10, 11, 12, 13, 14, 15, 16, 17, 18, 19, 20, 21, 22, 23, 24, 25, 26, 27, 28, 29, 30, 31, 32, 33, 34, 35, 36, 37, 38, 39, 40, 41, 42, 43, 44, 45, 46, 47, 48, 49, 50, 51, 52, 53, 54, 55, 56, 57, 58, 59, 60, 61, 62, 63, 64, 65, 66, 67, 68, 69, 70, 71, 72, 73, 74, 75, 76, 77, 78, 79, 80, 81, 82, 83, 84, 85, 86, 87, 88, 89, 90, 91, 92, 93, 94, 95, 96, 97, 98, 99, 100, 101, 102, 103, 104, 105, 106, 107, 108, 109, 110, 111, 112, 113, 114, 115, 116, 117, 118, 119, 120, 121, 122, 123, 124, 125, 126, 127, 128, 129, 130, 131, 132, 133, 134, 135, 136, 137, 138, 139, 140, 141, 142, 143, 144, 145, 146, 147, 148, 149, 150, 151, 152, 153, 154, 155, 156, 157, 158, 159, 160, 161, 162, 163, 164, 165, 166, 167, 168, 169, 170, 171, 172, 173, 174, 175, 176, 177, 178, 179, 180, 181, 182, 183, 184, 185, 186, 187, 188, 189, 190, 191, 192, 193, 194, 195, 196, 197, 198, 199, 200, 201, 202, 203, 204, 205, 206, 207, 208, 209, 210, 211, 212, 213, 214, 215, 216, 217, 218, 219, 220, 221, 222, 223, 224, 225, 226, 227, 228, 229, 230, 231, 232, 233, 234, 235, 236, 237, 238, 239, 240, 241, 242, 243, 244, 245, 246, 247, 248, 249, 250, 251, 252, 253, 254, 255, 256, 257, 258, 259, 260, 261, 262, 263, 264, 265, 266, 267, 268, 269, 270, 271, 272, 273, 274, 275, 276, 277, 278, 279, 280, 281, 282, 283, 284, 285, 286, 287, 288, 289, 290, 291, 292, 293, 294, 295, 296, 297, 298, 299, 300, 301, 302, 303, 304, 305, 306, 307, 308, 309, 310, 311, 312, 313, 314, 315, 316, 317, 318, 319, 320, 321, 322, 323, 324, 325, 326, 327, 328, 329, 330, 331, 332, 333, 334, 335, 336, 337, 338, 339, 340, 341, 342, 343, 344, 345, 346, 347, 348, 349, 350, 351, 352, 353, 354, 355, 356, 357, 358, 359, 360, 361, 362, 363, 364, 365, 366, 367, 368, 369, 370, 371, 372, 373, 374, 375, 376, 377, 378, 379, 380, 381, 382, 383, 384, 385, 386, 387, 388, 389, 390, 391, 392, 393, 394, 395, 396, 397, 398, 399, 400, 401, 402, 403, 404, 405, 406, 407, 408, 409, 410, 411, 412, 413, 414, 415, 416, 417, 418, 419, 420, 421, 422, 423, 424, 425, 426, 427, 428, 429, 430, 431, 432, 433, 434, 435, 436, 437, 438, 439, 440, 441, 442, 443, 444, 445, 446, 447, 448, 449, 450, 451, 452, 453, 454, 455, 456, 457, 458, 459, 460, 461, 462, 463, 464, 465, 466, 467, 468],
      "AcquisitionTime": ["111522.872500", "111524.362500", "111525.852500", "111527.342500", "111528.832500", "111530.322500", "111531.812500", "111533.302500", "111534.792500", "111536.282500", "111537.772500", "111539.262500", "111540.752500", "111542.242500", "111543.732500", "111545.222500", "111546.712500", "111548.202500", "111549.692500", "111551.182500", "111552.672500", "111554.162500", "111555.652500", "111557.142500", "111558.632500", "111600.122500", "111601.612500", "111603.102500", "111604.592500", "111606.082500", "111607.572500", "111609.062500", "111610.552500", "111612.042500", "111613.532500", "111615.022500", "111616.512500", "111618.002500", "111619.492500", "111620.982500", "111622.472500", "111623.962500", "111625.452500", "111626.942500", "111628.432500", "111629.922500", "111631.412500", "111632.902500", "111634.392500", "111635.882500", "111637.372500", "111638.862500", "111640.352500", "111641.842500", "111643.332500", "111644.822500", "111646.312500", "111647.802500", "111649.292500", "111650.782500", "111652.272500", "111653.762500", "111655.252500", "111656.742500", "111658.232500", "111659.722500", "111701.212500", "111702.702500", "111704.192500", "111705.682500", "111707.172500", "111708.662500", "111710.152500", "111711.642500", "111713.132500", "111714.622500", "111716.112500", "111717.602500", "111719.092500", "111720.582500", "111722.072500", "111723.562500", "111725.052500", "111726.542500", "111728.032500", "111729.522500", "111731.012500", "111732.502500", "111733.992500", "111735.482500", "111736.972500", "111738.462500", "111739.952500", "111741.442500", "111742.932500", "111744.422500", "111745.912500", "111747.402500", "111748.892500", "111750.382500", "111751.872500", "111753.362500", "111754.852500", "111756.342500", "111757.832500", "111759.322500", "111800.812500", "111802.302500", "111803.792500", "111805.282500", "111806.772500", "111808.262500", "111809.752500", "111811.242500", "111812.732500", "111814.222500", "111815.712500", "111817.202500", "111818.692500", "111820.182500", "111821.672500", "111823.162500", "111824.652500", "111826.142500", "111827.632500", "111829.122500", "111830.612500", "111832.102500", "111833.592500", "111835.082500", "111836.572500", "111838.062500", "111839.552500", "111841.042500", "111842.532500", "111844.022500", "111845.512500", "111847.002500", "111848.492500", "111849.982500", "111851.472500", "111852.962500", "111854.452500", "111855.942500", "111857.432500", "111858.922500", "111900.412500", "111901.902500", "111903.392500", "111904.882500", "111906.372500", "111907.862500", "111909.352500", "111910.842500", "111912.332500", "111913.822500", "111915.312500", "111916.802500", "111918.292500", "111919.782500", "111921.272500", "111922.762500", "111924.252500", "111925.742500", "111927.232500", "111928.722500", "111930.212500", "111931.702500", "111933.192500", "111934.682500", "111936.172500", "111937.662500", "111939.152500", "111940.642500", "111942.132500", "111943.622500", "111945.112500", "111946.602500", "111948.092500", "111949.582500", "111951.072500", "111952.562500", "111954.052500", "111955.542500", "111957.032500", "111958.522500", "112000.012500", "112001.502500", "112002.992500", "112004.482500", "112005.972500", "112007.462500", "112008.952500", "112010.442500", "112011.932500", "112013.422500", "112014.912500", "112016.402500", "112017.892500", "112019.382500", "112020.872500", "112022.362500", "112023.852500", "112025.342500", "112026.832500", "112028.322500", "112029.812500", "112031.302500", "112032.792500", "112034.282500", "112035.772500", "112037.262500", "112038.752500", "112040.242500", "112041.732500", "112043.222500", "112044.712500", "112046.202500", "112047.692500", "112049.182500", "112050.672500", "112052.162500", "112053.652500", "112055.142500", "112056.632500", "112058.122500", "112059.612500", "112101.102500", "112102.592500", "112104.082500", "112105.572500", "112107.062500", "112108.552500", "112110.042500", "112111.532500", "112113.022500", "112114.512500", "112116.002500", "112117.492500", "112118.982500", "112120.472500", "112121.962500", "112123.452500", "112124.942500", "112126.432500", "112127.922500", "112129.412500", "112130.902500", "112132.392500", "112133.882500", "112135.372500", "112136.862500", "112138.352500", "112139.842500", "112141.332500", "112142.822500", "112144.312500", "112145.802500", "112147.292500", "112148.782500", "112150.272500", "112151.762500", "112153.252500", "112154.742500", "112156.232500", "112157.722500", "112159.212500", "112200.702500", "112202.192500", "112203.682500", "112205.172500", "112206.662500", "112208.152500", "112209.642500", "112211.132500", "112212.622500", "112214.112500", "112215.602500", "112217.092500", "112218.582500", "112220.072500", "112221.562500", "112223.052500", "112224.542500", "112226.032500", "112227.522500", "112229.012500", "112230.502500", "112231.992500", "112233.482500", "112234.972500", "112236.462500", "112237.952500", "112239.442500", "112240.932500", "112242.422500", "112243.912500", "112245.402500", "112246.892500", "112248.382500", "112249.872500", "112251.362500", "112252.852500", "112254.342500", "112255.832500", "112257.322500", "112258.812500", "112300.302500", "112301.792500", "112303.282500", "112304.772500", "112306.262500", "112307.752500", "112309.242500", "112310.732500", "112312.222500", "112313.712500", "112315.202500", "112316.692500", "112318.182500", "112319.672500", "112321.162500", "112322.652500", "112324.142500", "112325.632500", "112327.122500", "112328.612500", "112330.102500", "112331.592500", "112333.082500", "112334.572500", "112336.062500", "112337.552500", "112339.042500", "112340.532500", "112342.022500", "112343.512500", "112345.002500", "112346.492500", "112347.982500", "112349.472500", "112350.962500", "112352.452500", "112353.942500", "112355.432500", "112356.922500", "112358.412500", "112359.902500", "112401.392500", "112402.882500", "112404.372500", "112405.862500", "112407.352500", "112408.842500", "112410.332500", "112411.822500", "112413.312500", "112414.802500", "112416.292500", "112417.782500", "112419.272500", "112420.762500", "112422.252500", "112423.742500", "112425.232500", "112426.722500", "112428.212500", "112429.702500", "112431.192500", "112432.682500", "112434.172500", "112435.662500", "112437.152500", "112438.642500", "112440.132500", "112441.622500", "112443.112500", "112444.602500", "112446.092500", "112447.582500", "112449.072500", "112450.562500", "112452.052500", "112453.542500", "112455.032500", "112456.522500", "112458.012500", "112459.502500", "112500.992500", "112502.482500", "112503.972500", "112505.462500", "112506.952500", "112508.442500", "112509.932500", "112511.422500", "112512.912500", "112514.402500", "112515.892500", "112517.382500", "112518.872500", "112520.362500", "112521.852500", "112523.342500", "112524.832500", "112526.322500", "112527.812500", "112529.302500", "112530.792500", "112532.282500", "112533.772500", "112535.262500", "112536.752500", "112538.242500", "112539.732500", "112541.222500", "112542.712500", "112544.202500", "112545.692500", "112547.182500", "112548.672500", "112550.162500", "112551.652500", "112553.142500", "112554.632500", "112556.122500", "112557.612500", "112559.102500", "112600.592500", "112602.082500", "112603.572500", "112605.062500", "112606.552500", "112608.042500", "112609.532500", "112611.022500", "112612.512500", "112614.002500", "112615.492500", "112616.982500", "112618.472500", "112619.962500", "112621.452500", "112622.942500", "112624.432500", "112625.922500", "112627.412500", "112628.902500", "112630.392500", "112631.882500", "112633.372500", "112634.862500", "112636.352500", "112637.842500", "112639.332500", "112640.822500", "112642.312500", "112643.802500", "112645.292500", "112646.782500", "112648.272500", "112649.762500", "112651.252500", "112652.742500", "112654.232500", "112655.722500", "112657.212500", "112658.702500"],
      "ContentTime": ["111641.211000", "111641.214000", "111641.217000", "111641.219000", "111641.222000", "111641.240000", "111641.243000", "111641.246000", "111641.249000", "111641.251000", "111641.254000", "111641.257000", "111641.260000", "111641.263000", "111641.265000", "111641.268000", "111641.271000", "111641.274000", "111641.277000", "111641.279000", "111641.282000", "111641.285000", "111641.288000", "111701.178000", "111701.181000", "111701.183000", "111701.186000", "111701.189000", "111701.192000", "111701.195000", "111701.197000", "111701.200000", "111701.203000", "111701.206000", "111701.209000", "111701.211000", "111701.214000", "111701.217000", "111701.220000", "111701.223000", "111701.226000", "111701.228000", "111701.231000", "111721.178000", "111721.181000", "111721.183000", "111721.186000", "111721.189000", "111721.192000", "111721.195000", "111721.209000", "111721.212000", "111721.215000", "111721.217000", "111721.220000", "111721.223000", "111721.226000", "111721.229000", "111721.231000", "111721.234000", "111721.243000", "111721.246000", "111721.249000", "111741.178000", "111741.181000", "111741.184000", "111741.186000", "111741.189000", "111741.192000", "111741.195000", "111741.198000", "111741.200000", "111741.203000", "111741.206000", "111741.209000", "111741.211000", "111741.214000", "111741.217000", "111741.220000", "111741.223000", "111741.226000", "111741.228000", "111741.231000", "111801.178000", "111801.181000", "111801.184000", "111801.187000", "111801.190000", "111801.193000", "111801.195000", "111801.198000", "111801.201000", "111801.204000", "111801.207000", "111801.210000", "111801.212000", "111801.215000", "111801.218000", "111801.221000", "111801.224000", "111801.226000", "111801.229000", "111801.232000", "111841.178000", "111841.181000", "111841.184000", "111841.199000", "111841.202000", "111841.204000", "111841.207000", "111841.210000", "111841.213000", "111841.216000", "111841.218000", "111841.221000", "111841.234000", "111841.236000", "111841.239000", "111841.242000", "111841.245000", "111841.248000", "111841.250000", "111841.253000", "111841.256000", "111841.259000", "111841.262000", "111841.265000", "111841.268000", "111841.270000", "111841.273000", "111841.276000", "111841.279000", "111921.178000", "111921.181000", "111921.184000", "111921.186000", "111921.189000", "111921.192000", "111921.195000", "111921.198000", "111921.201000", "111921.203000", "111921.206000", "111921.209000", "111921.212000", "111921.215000", "111921.217000", "111921.220000", "111921.223000", "111921.226000", "111921.229000", "111921.231000", "111921.234000", "111921.237000", "111921.240000", "111921.243000", "111921.246000", "111921.248000", "111921.251000", "112001.178000", "112001.181000", "112001.184000", "112001.186000", "112001.189000", "112001.192000", "112001.195000", "112001.198000", "112001.201000", "112001.204000", "112001.206000", "112001.209000", "112001.212000", "112001.215000", "112001.218000", "112001.221000", "112001.223000", "112001.226000", "112001.229000", "112001.232000", "112001.235000", "112001.237000", "112001.240000", "112001.243000", "112001.246000", "112001.249000", "112001.251000", "112041.177000", "112041.180000", "112041.183000", "112041.186000", "112041.188000", "112041.191000", "112041.194000", "112041.197000", "112041.200000", "112041.203000", "112041.205000", "112041.208000", "112041.211000", "112041.214000", "112041.217000", "112041.219000", "112041.222000", "112041.225000", "112041.228000", "112041.231000", "112041.234000", "112041.236000", "112041.239000", "112041.242000", "112041.245000", "112041.248000", "112041.250000", "112121.178000", "112121.181000", "112121.184000", "112121.187000", "112121.190000", "112121.193000", "112121.195000", "112121.198000", "112121.201000", "112121.204000", "112121.207000", "112121.210000", "112121.212000", "112121.215000", "112121.218000", "112121.221000", "112121.224000", "112121.227000", "112121.229000", "112121.232000", "112121.235000", "112121.238000", "112121.241000", "112121.244000", "112121.246000", "112121.249000", "112201.178000", "112201.181000", "112201.184000", "112201.187000", "112201.189000", "112201.192000", "112201.195000", "112201.198000", "112201.201000", "112201.203000", "112201.206000", "112201.209000", "112201.212000", "112201.215000", "112201.218000", "112201.220000", "112201.223000", "112201.226000", "112201.229000", "112201.232000", "112201.234000", "112201.237000", "112201.240000", "112201.243000", "112201.246000", "112201.249000", "112201.251000", "112241.177000", "112241.180000", "112241.183000", "112241.186000", "112241.188000", "112241.191000", "112241.194000", "112241.197000", "112241.199000", "112241.202000", "112241.205000", "112241.208000", "112241.211000", "112241.214000", "112241.216000", "112241.219000", "112241.222000", "112241.225000", "112241.228000", "112241.230000", "112241.233000", "112241.236000", "112241.239000", "112241.242000", "112241.244000", "112241.247000", "112241.250000", "112321.178000", "112321.181000", "112321.184000", "112321.187000", "112321.189000", "112321.192000", "112321.195000", "112321.198000", "112321.201000", "112321.203000", "112321.206000", "112321.209000", "112321.212000", "112321.215000", "112321.218000", "112321.234000", "112321.237000", "112321.239000", "112321.242000", "112321.245000", "112321.248000", "112321.251000", "112321.253000", "112321.256000", "112321.259000", "112321.262000", "112321.265000", "112401.178000", "112401.181000", "112401.184000", "112401.187000", "112401.190000", "112401.192000", "112401.201000", "112401.204000", "112401.207000", "112401.210000", "112401.212000", "112401.215000", "112401.218000", "112401.221000", "112401.224000", "112401.227000", "112401.229000", "112401.232000", "112401.235000", "112401.238000", "112401.240000", "112401.243000", "112401.246000", "112401.249000", "112401.252000", "112401.255000", "112401.257000", "112441.178000", "112441.181000", "112441.184000", "112441.187000", "112441.189000", "112441.192000", "112441.195000", "112441.198000", "112441.201000", "112441.204000", "112441.206000", "112441.209000", "112441.212000", "112441.215000", "112441.218000", "112441.221000", "112441.224000", "112441.226000", "112441.229000", "112441.232000", "112441.235000", "112441.238000", "112441.240000", "112441.243000", "112441.246000", "112441.249000", "112441.252000", "112521.177000", "112521.180000", "112521.183000", "112521.186000", "112521.188000", "112521.191000", "112521.194000", "112521.197000", "112521.200000", "112521.202000", "112521.205000", "112521.208000", "112521.211000", "112521.214000", "112521.217000", "112521.219000", "112521.222000", "112521.225000", "112521.228000", "112521.231000", "112521.233000", "112521.236000", "112521.239000", "112521.242000", "112521.245000", "112521.247000", "112521.250000", "112601.178000", "112601.181000", "112601.184000", "112601.186000", "112601.189000", "112601.192000", "112601.195000", "112601.198000", "112601.201000", "112601.204000", "112601.206000", "112601.209000", "112601.212000", "112601.215000", "112601.218000", "112601.221000", "112601.223000", "112601.226000", "112601.229000", "112601.232000", "112601.235000", "112601.237000", "112601.242000", "112601.245000", "112601.247000", "112601.250000", "112641.178000", "112641.181000", "112641.184000", "112641.186000", "112641.189000", "112641.192000", "112641.195000", "112641.198000", "112641.201000", "112641.204000", "112641.206000", "112641.209000", "112641.212000", "112641.215000", "112641.218000", "112641.220000", "112641.223000", "112641.226000", "112641.229000", "112641.232000", "112641.234000", "112641.237000", "112641.240000", "112641.243000", "112641.246000", "112641.249000", "112641.251000", "112701.040000", "112701.043000", "112701.046000", "112701.049000", "112701.051000", "112701.054000", "112701.057000", "112701.060000", "112701.063000", "112701.066000", "112701.068000", "112701.072000", "112701.075000", "112701.077000"],
