{
  "AcquisitionMatrixPE": 104,
  "AcquisitionNumber": 1,
  "AcquisitionTime": "11:37:37.942500",
  "BandwidthPerPixelPhaseEncode": 17.17,
  "BaseResolution": 104,
  "BodyPartExamined": "BRAIN",
  "CoilString": "HC1-7;NC1_2",
  "ConsistencyInfo": "N4_VE11C_LATEST_20160120",
  "ConversionSoftware": "dcm2niix",
  "ConversionSoftwareVersion": "v1.0.20190902",
  "DerivedVendorReportedEchoSpacing": 0.000560011,
  "DeviceSerialNumber": "167006",
  "DwellTime": 2.1e-06,
  "EchoTime": 0.037,
  "EchoTrainLength": 104,
  "EffectiveEchoSpacing": 0.000560011,
  "FlipAngle": 52,
  "ImageComments": "Unaliased_MB4_PE3_LB",
  "ImageOrientationPatientDICOM": [0.998119, -0.0170637, -0.0588786, 0.00156784, 0.967269, -0.253747],
  "ImageType": [
    "ORIGINAL",
    "PRIMARY",
    "M",
    "MB",
    "ND",
    "MOSAIC"
],
  "ImagingFrequency": 123.259,
  "InPlanePhaseEncodingDirectionDICOM": "COL",
  "InstitutionAddress": "Chemin_Queen-Mary_4565_Montreal_District_CA_H3W_1W5",
  "InstitutionName": "IUGM",
  "InstitutionalDepartmentName": "Department",
  "MRAcquisitionType": "2D",
  "MagneticFieldStrength": 3,
  "Manufacturer": "Siemens",
  "ManufacturersModelName": "Prisma_fit",
  "Modality": "MR",
  "MultibandAccelerationFactor": 4,
  "PartialFourier": 1,
  "PatientPosition": "HFS",
  "PercentPhaseFOV": 100,
  "PhaseEncodingDirection": "j",
  "PhaseEncodingSteps": 104,
  "PhaseResolution": 1,
  "PixelBandwidth": 2290,
  "ProcedureStepDescription": "video_friends",
  "ProtocolName": "func_task-friends-s03e16b",
  "PulseSequenceDetails": "%CustomerSeq%_cmrr_mbep2d_bold",
  "ReceiveCoilActiveElements": "HC1-7;NC1,2",
  "ReceiveCoilName": "HeadNeck_64",
  "ReconMatrixPE": 104,
  "RepetitionTime": 1.49,
  "SAR": 0.0290059,
  "ScanOptions": "FS",
  "ScanningSequence": "EP",
  "SequenceName": "epfid2d1_104",
  "SequenceVariant": "SK_SS",
  "SeriesDescription": "func_task-friends-s03e16b",
  "SeriesNumber": 22,
  "ShimSetting": [608, -7271, -8849, 610, -19, -344, 43, 37],
  "SliceThickness": 2,
  "SliceTiming": [0, 0.785, 0.0975, 0.8825, 0.1975, 0.98, 0.295, 1.0775, 0.3925, 1.1775, 0.49, 1.275, 0.5875, 1.3725, 0.6875, 0, 0.785, 0.0975, 0.8825, 0.1975, 0.98, 0.295, 1.0775, 0.3925, 1.1775, 0.49, 1.275, 0.5875, 1.3725, 0.6875, 0, 0.785, 0.0975, 0.8825, 0.1975, 0.98, 0.295, 1.0775, 0.3925, 1.1775, 0.49, 1.275, 0.5875, 1.3725, 0.6875, 0, 0.785, 0.0975, 0.8825, 0.1975, 0.98, 0.295, 1.0775, 0.3925, 1.1775, 0.49, 1.275, 0.5875, 1.3725, 0.6875],
  "SoftwareVersions": "syngo_MR_E11",
  "SpacingBetweenSlices": 2,
  "StationName": "MRC35049",
  "TaskName": "s03e16b",
  "TotalReadoutTime": 0.0576811,
  "TxRefAmp": 217.23,
  "WipMemBlock": "30f10724-2536-45fc-a388-58b3dccbf621||Sequence: R016 ve11c/master r/e634e98; Dec 19 2017 11:00:25 by eja",
  "dcmmeta_affine": [
    [-1.9962385892868042, 0.0031356867402791977, -0.12256257981061935, 101.78697967529297],
    [0.034127313643693924, 1.934538722038269, -0.5063548684120178, -81.8830337524414],
    [-0.11775714159011841, 0.5074939131736755, 1.9309539794921875, -54.65534973144531],
    [0.0, 0.0, 0.0, 1.0]
],
  "dcmmeta_reorient_transform": [
    [0.0, -1.0, 0.0, 103.0],
    [1.0, 0.0, 0.0, 0.0],
    [0.0, 0.0, 1.0, 0.0],
    [0.0, 0.0, 0.0, 1.0]
],
  "dcmmeta_shape": [104, 104, 60, 468],
  "dcmmeta_slice_dim": 2,
  "dcmmeta_version": 0.6,
  "global": {
    "const": {
      "AcquisitionMatrix": [104, 0, 0, 104],
      "AngioFlag": "N",
      "BitsAllocated": 16,
      "BitsStored": 16,
      "BodyPartExamined": "BRAIN",
      "Columns": 832,
      "EchoNumbers": 1,
      "EchoTime": 37.0,
      "EchoTrainLength": 104,
      "FlipAngle": 52.0,
      "HighBit": 15,
      "ImageOrientationPatient": [0.99811930432984, -0.0170636574724, -0.0588785692573, 0.00156784340769, 0.96726936224097, -0.2537469659661],
      "ImagePositionPatient": [-829.88219956956, -809.12420499171, 225.20791515447],
      "ImageType": [
        "ORIGINAL",
        "PRIMARY",
        "M",
        "MB",
        "ND",
        "MOSAIC"
],
      "ImagedNucleus": "1H",
      "ImagingFrequency": 123.259093,
      "InPlanePhaseEncodingDirection": "COL",
      "MRAcquisitionType": "2D",
      "MagneticFieldStrength": 3.0,
      "Manufacturer": "SIEMENS",
      "ManufacturerModelName": "Prisma_fit",
      "Modality": "MR",
      "NumberOfAverages": 1.0,
      "NumberOfPhaseEncodingSteps": 104,
      "PercentPhaseFieldOfView": 100.0,
      "PercentSampling": 100.0,
      "PerformedProcedureStepStartTime": "094532.345000",
      "PhotometricInterpretation": "MONOCHROME2",
      "PixelBandwidth": 2290.0,
      "PixelRepresentation": 0,
      "PixelSpacing": [2.0, 2.0],
      "ProtocolName": "func_task-friends-s03e16b",
      "RepetitionTime": 1490.0,
      "Rows": 832,
      "SAR": 0.02900589062358,
      "SamplesPerPixel": 1,
      "ScanOptions": "FS",
      "ScanningSequence": "EP",
      "SequenceName": "epfid2d1_104",
      "SequenceVariant": [
        "SK",
        "SS"
],
      "SeriesDescription": "func_task-friends-s03e16b",
      "SeriesNumber": 22,
      "SeriesTime": "113837.266000",
      "SliceLocation": -38.275181717088,
      "SliceThickness": 2.0,
      "SmallestImagePixelValue": 0,
      "SoftwareVersions": "syngo MR E11",
      "SpacingBetweenSlices": 2.0000000305134,
      "SpecificCharacterSet": "ISO_IR 100",
      "StudyID": "1",
      "StudyTime": "094532.155000",
      "TransmitCoilName": "Body",
      "VariableFlipAngleFlag": "N",
      "WindowCenterWidthExplanation": "Algo1",
      "dBdt": 0.0},
    "slices": {}
  },
  "time": {
    "samples": {
      "AcquisitionNumber": [1, 2, 3, 4, 5, 6, 7, 8, 9, 10, 11, 12, 13, 14, 15, 16, 17, 18, 19, 20, 21, 22, 23, 24, 25, 26, 27, 28, 29, 30, 31, 32, 33, 34, 35, 36, 37, 38, 39, 40, 41, 42, 43, 44, 45, 46, 47, 48, 49, 50, 51, 52, 53, 54, 55, 56, 57, 58, 59, 60, 61, 62, 63, 64, 65, 66, 67, 68, 69, 70, 71, 72, 73, 74, 75, 76, 77, 78, 79, 80, 81, 82, 83, 84, 85, 86, 87, 88, 89, 90, 91, 92, 93, 94, 95, 96, 97, 98, 99, 100, 101, 102, 103, 104, 105, 106, 107, 108, 109, 110, 111, 112, 113, 114, 115, 116, 117, 118, 119, 120, 121, 122, 123, 124, 125, 126, 127, 128, 129, 130, 131, 132, 133, 134, 135, 136, 137, 138, 139, 140, 141, 142, 143, 144, 145, 146, 147, 148, 149, 150, 151, 152, 153, 154, 155, 156, 157, 158, 159, 160, 161, 162, 163, 164, 165, 166, 167, 168, 169, 170, 171, 172, 173, 174, 175, 176, 177, 178, 179, 180, 181, 182, 183, 184, 185, 186, 187, 188, 189, 190, 191, 192, 193, 194, 195, 196, 197, 198, 199, 200, 201, 202, 203, 204, 205, 206, 207, 208, 209, 210, 211, 212, 213, 214, 215, 216, 217, 218, 219, 220, 221, 222, 223, 224, 225, 226, 227, 228, 229, 230, 231, 232, 233, 234, 235, 236, 237, 238, 239, 240, 241, 242, 243, 244, 245, 246, 247, 248, 249, 250, 251, 252, 253, 254, 255, 256, 257, 258, 259, 260, 261, 262, 263, 264, 265, 266, 267, 268, 269, 270, 271, 272, 273, 274, 275, 276, 277, 278, 279, 280, 281, 282, 283, 284, 285, 286, 287, 288, 289, 290, 291, 292, 293, 294, 295, 296, 297, 298, 299, 300, 301, 302, 303, 304, 305, 306, 307, 308, 309, 310, 311, 312, 313, 314, 315, 316, 317, 318, 319, 320, 321, 322, 323, 324, 325, 326, 327, 328, 329, 330, 331, 332, 333, 334, 335, 336, 337, 338, 339, 340, 341, 342, 343, 344, 345, 346, 347, 348, 349, 350, 351, 352, 353, 354, 355, 356, 357, 358, 359, 360, 361, 362, 363, 364, 365, 366, 367, 368, 369, 370, 371, 372, 373, 374, 375, 376, 377, 378, 379, 380, 381, 382, 383, 384, 385, 386, 387, 388, 389, 390, 391, 392, 393, 394, 395, 396, 397, 398, 399, 400, 401, 402, 403, 404, 405, 406, 407, 408, 409, 410, 411, 412, 413, 414, 415, 416, 417, 418, 419, 420, 421, 422, 423, 424, 425, 426, 427, 428, 429, 430, 431, 432, 433, 434, 435, 436, 437, 438, 439, 440, 441, 442, 443, 444, 445, 446, 447, 448, 449, 450, 451, 452, 453, 454, 455, 456, 457, 458, 459, 460, 461, 462, 463, 464, 465, 466, 467, 468],
      "AcquisitionTime": ["113737.942500", "113739.432500", "113740.922500", "113742.412500", "113743.902500", "113745.392500", "113746.882500", "113748.372500", "113749.862500", "113751.352500", "113752.842500", "113754.332500", "113755.822500", "113757.312500", "113758.802500", "113800.292500", "113801.782500", "113803.272500", "113804.762500", "113806.252500", "113807.742500", "113809.232500", "113810.722500", "113812.212500", "113813.702500", "113815.192500", "113816.682500", "113818.172500", "113819.662500", "113821.152500", "113822.642500", "113824.132500", "113825.622500", "113827.112500", "113828.602500", "113830.092500", "113831.582500", "113833.072500", "113834.562500", "113836.052500", "113837.542500", "113839.032500", "113840.522500", "113842.012500", "113843.502500", "113844.992500", "113846.482500", "113847.972500", "113849.462500", "113850.952500", "113852.442500", "113853.932500", "113855.422500", "113856.912500", "113858.402500", "113859.892500", "113901.382500", "113902.872500", "113904.362500", "113905.852500", "113907.342500", "113908.832500", "113910.322500", "113911.812500", "113913.302500", "113914.792500", "113916.282500", "113917.772500", "113919.262500", "113920.752500", "113922.242500", "113923.732500", "113925.222500", "113926.712500", "113928.202500", "113929.692500", "113931.182500", "113932.672500", "113934.162500", "113935.652500", "113937.142500", "113938.632500", "113940.122500", "113941.612500", "113943.102500", "113944.592500", "113946.082500", "113947.572500", "113949.062500", "113950.552500", "113952.042500", "113953.532500", "113955.022500", "113956.512500", "113958.002500", "113959.492500", "114000.982500", "114002.472500", "114003.962500", "114005.452500", "114006.942500", "114008.432500", "114009.922500", "114011.412500", "114012.902500", "114014.392500", "114015.882500", "114017.372500", "114018.862500", "114020.352500", "114021.842500", "114023.332500", "114024.822500", "114026.312500", "114027.802500", "114029.292500", "114030.782500", "114032.272500", "114033.762500", "114035.252500", "114036.742500", "114038.232500", "114039.722500", "114041.212500", "114042.702500", "114044.192500", "114045.682500", "114047.172500", "114048.662500", "114050.152500", "114051.642500", "114053.132500", "114054.622500", "114056.112500", "114057.602500", "114059.092500", "114100.582500", "114102.072500", "114103.562500", "114105.052500", "114106.542500", "114108.032500", "114109.522500", "114111.012500", "114112.502500", "114113.992500", "114115.482500", "114116.972500", "114118.462500", "114119.952500", "114121.442500", "114122.932500", "114124.422500", "114125.912500", "114127.402500", "114128.892500", "114130.382500", "114131.872500", "114133.362500", "114134.852500", "114136.342500", "114137.832500", "114139.322500", "114140.812500", "114142.302500", "114143.792500", "114145.282500", "114146.772500", "114148.262500", "114149.752500", "114151.242500", "114152.732500", "114154.222500", "114155.712500", "114157.202500", "114158.692500", "114200.182500", "114201.672500", "114203.162500", "114204.652500", "114206.142500", "114207.632500", "114209.122500", "114210.612500", "114212.102500", "114213.592500", "114215.082500", "114216.572500", "114218.062500", "114219.552500", "114221.042500", "114222.532500", "114224.022500", "114225.512500", "114227.002500", "114228.492500", "114229.982500", "114231.472500", "114232.962500", "114234.452500", "114235.942500", "114237.432500", "114238.922500", "114240.412500", "114241.902500", "114243.392500", "114244.882500", "114246.372500", "114247.862500", "114249.352500", "114250.842500", "114252.332500", "114253.822500", "114255.312500", "114256.802500", "114258.292500", "114259.782500", "114301.272500", "114302.762500", "114304.252500", "114305.742500", "114307.232500", "114308.722500", "114310.212500", "114311.702500", "114313.192500", "114314.682500", "114316.172500", "114317.662500", "114319.152500", "114320.642500", "114322.132500", "114323.622500", "114325.112500", "114326.602500", "114328.092500", "114329.582500", "114331.072500", "114332.562500", "114334.052500", "114335.542500", "114337.032500", "114338.522500", "114340.012500", "114341.502500", "114342.992500", "114344.482500", "114345.972500", "114347.462500", "114348.952500", "114350.442500", "114351.932500", "114353.422500", "114354.912500", "114356.402500", "114357.892500", "114359.382500", "114400.872500", "114402.362500", "114403.852500", "114405.342500", "114406.832500", "114408.322500", "114409.812500", "114411.302500", "114412.792500", "114414.282500", "114415.772500", "114417.262500", "114418.752500", "114420.242500", "114421.732500", "114423.222500", "114424.712500", "114426.202500", "114427.692500", "114429.182500", "114430.672500", "114432.162500", "114433.652500", "114435.142500", "114436.632500", "114438.122500", "114439.612500", "114441.102500", "114442.592500", "114444.082500", "114445.572500", "114447.062500", "114448.552500", "114450.042500", "114451.532500", "114453.022500", "114454.512500", "114456.002500", "114457.492500", "114458.982500", "114500.472500", "114501.962500", "114503.452500", "114504.942500", "114506.432500", "114507.922500", "114509.412500", "114510.902500", "114512.392500", "114513.882500", "114515.372500", "114516.862500", "114518.352500", "114519.842500", "114521.332500", "114522.822500", "114524.312500", "114525.802500", "114527.292500", "114528.782500", "114530.272500", "114531.762500", "114533.252500", "114534.742500", "114536.232500", "114537.722500", "114539.212500", "114540.702500", "114542.192500", "114543.682500", "114545.172500", "114546.662500", "114548.152500", "114549.642500", "114551.132500", "114552.622500", "114554.112500", "114555.602500", "114557.092500", "114558.582500", "114600.072500", "114601.562500", "114603.052500", "114604.542500", "114606.032500", "114607.522500", "114609.012500", "114610.502500", "114611.992500", "114613.482500", "114614.972500", "114616.462500", "114617.952500", "114619.442500", "114620.932500", "114622.422500", "114623.912500", "114625.402500", "114626.892500", "114628.382500", "114629.872500", "114631.362500", "114632.852500", "114634.342500", "114635.832500", "114637.322500", "114638.812500", "114640.302500", "114641.792500", "114643.282500", "114644.772500", "114646.262500", "114647.752500", "114649.242500", "114650.732500", "114652.222500", "114653.712500", "114655.202500", "114656.692500", "114658.182500", "114659.672500", "114701.162500", "114702.652500", "114704.142500", "114705.632500", "114707.122500", "114708.612500", "114710.102500", "114711.592500", "114713.082500", "114714.572500", "114716.062500", "114717.552500", "114719.042500", "114720.532500", "114722.022500", "114723.512500", "114725.002500", "114726.492500", "114727.982500", "114729.472500", "114730.962500", "114732.452500", "114733.942500", "114735.432500", "114736.922500", "114738.412500", "114739.902500", "114741.392500", "114742.882500", "114744.372500", "114745.862500", "114747.352500", "114748.842500", "114750.332500", "114751.822500", "114753.312500", "114754.802500", "114756.292500", "114757.782500", "114759.272500", "114800.762500", "114802.252500", "114803.742500", "114805.232500", "114806.722500", "114808.212500", "114809.702500", "114811.192500", "114812.682500", "114814.172500", "114815.662500", "114817.152500", "114818.642500", "114820.132500", "114821.622500", "114823.112500", "114824.602500", "114826.092500", "114827.582500", "114829.072500", "114830.562500", "114832.052500", "114833.542500", "114835.032500", "114836.522500", "114838.012500", "114839.502500", "114840.992500", "114842.482500", "114843.972500", "114845.462500", "114846.952500", "114848.442500", "114849.932500", "114851.422500", "114852.912500", "114854.402500", "114855.892500", "114857.382500", "114858.872500", "114900.362500", "114901.852500", "114903.342500", "114904.832500", "114906.322500", "114907.812500", "114909.302500", "114910.792500", "114912.282500", "114913.772500"],
      "ContentTime": ["113837.268000", "113837.278000", "113837.281000", "113837.284000", "113857.239000", "113857.242000", "113857.245000", "113857.248000", "113857.250000", "113857.253000", "113857.256000", "113857.259000", "113857.262000", "113857.265000", "113857.267000", "113857.270000", "113857.273000", "113857.276000", "113857.279000", "113857.281000", "113857.292000", "113857.294000", "113857.297000", "113857.300000", "113917.238000", "113917.241000", "113917.244000", "113917.246000", "113917.250000", "113917.253000", "113917.263000", "113917.266000", "113917.269000", "113917.271000", "113917.274000", "113917.277000", "113917.280000", "113917.283000", "113917.293000", "113917.295000", "113917.298000", "113917.301000", "113917.304000", "113917.307000", "113937.238000", "113937.241000", "113937.244000", "113937.247000", "113937.249000", "113937.252000", "113937.255000", "113937.258000", "113937.261000", "113937.264000", "113937.266000", "113937.269000", "113937.272000", "113937.275000", "113937.278000", "113937.280000", "113937.283000", "113937.287000", "113937.290000", "113937.294000", "113957.239000", "113957.242000", "113957.245000", "113957.248000", "113957.250000", "113957.253000", "113957.256000", "113957.259000", "113957.262000", "113957.264000", "113957.267000", "113957.270000", "113957.273000", "113957.276000", "113957.278000", "113957.281000", "113957.284000", "113957.287000", "113957.290000", "113957.292000", "113957.295000", "114017.239000", "114017.242000", "114017.245000", "114017.248000", "114017.250000", "114017.253000", "114017.256000", "114017.259000", "114017.262000", "114017.265000", "114017.267000", "114017.270000", "114017.273000", "114017.276000", "114017.279000", "114017.281000", "114017.284000", "114017.287000", "114017.290000", "114017.293000", "114057.239000", "114057.242000", "114057.245000", "114057.255000", "114057.258000", "114057.261000", "114057.264000", "114057.266000", "114057.269000", "114057.272000", "114057.275000", "114057.278000", "114057.281000", "114057.284000", "114057.286000", "114057.289000", "114057.292000", "114057.295000", "114057.298000", "114057.301000", "114057.303000", "114057.306000", "114057.309000", "114057.312000", "114057.315000", "114057.318000", "114057.320000", "114057.323000", "114137.238000", "114137.241000", "114137.244000", "114137.247000", "114137.250000", "114137.252000", "114137.255000", "114137.258000", "114137.261000", "114137.264000", "114137.267000", "114137.269000", "114137.272000", "114137.275000", "114137.278000", "114137.281000", "114137.283000", "114137.286000", "114137.289000", "114137.292000", "114137.295000", "114137.298000", "114137.300000", "114137.303000", "114137.307000", "114137.310000", "114217.239000", "114217.242000", "114217.245000", "114217.248000", "114217.251000", "114217.253000", "114217.256000", "114217.259000", "114217.262000", "114217.265000", "114217.268000", "114217.271000", "114217.274000", "114217.276000", "114217.279000", "114217.282000", "114217.285000", "114217.288000", "114217.291000", "114217.293000", "114217.296000", "114217.299000", "114217.302000", "114217.305000", "114217.308000", "114217.311000", "114217.313000", "114257.239000", "114257.242000", "114257.245000", "114257.248000", "114257.251000", "114257.254000", "114257.256000", "114257.259000", "114257.262000", "114257.265000", "114257.268000", "114257.271000", "114257.273000", "114257.276000", "114257.279000", "114257.282000", "114257.285000", "114257.288000", "114257.290000", "114257.293000", "114257.296000", "114257.299000", "114257.302000", "114257.305000", "114257.308000", "114257.310000", "114257.313000", "114337.239000", "114337.242000", "114337.245000", "114337.248000", "114337.251000", "114337.254000", "114337.257000", "114337.259000", "114337.262000", "114337.265000", "114337.268000", "114337.271000", "114337.274000", "114337.277000", "114337.279000", "114337.282000", "114337.285000", "114337.288000", "114337.291000", "114337.294000", "114337.297000", "114337.300000", "114337.302000", "114337.305000", "114337.308000", "114337.311000", "114337.314000", "114417.238000", "114417.241000", "114417.244000", "114417.247000", "114417.250000", "114417.252000", "114417.255000", "114417.258000", "114417.261000", "114417.264000", "114417.267000", "114417.269000", "114417.272000", "114417.275000", "114417.278000", "114417.281000", "114417.284000", "114417.287000", "114417.289000", "114417.292000", "114417.295000", "114417.298000", "114417.301000", "114417.304000", "114417.307000", "114417.309000", "114417.312000", "114457.239000", "114457.242000", "114457.245000", "114457.248000", "114457.251000", "114457.254000", "114457.256000", "114457.259000", "114457.262000", "114457.265000", "114457.268000", "114457.271000", "114457.274000", "114457.277000", "114457.279000", "114457.282000", "114457.285000", "114457.292000", "114457.295000", "114457.297000", "114457.300000", "114457.303000", "114457.306000", "114457.309000", "114457.312000", "114457.315000", "114457.318000", "114537.239000", "114537.242000", "114537.245000", "114537.248000", "114537.251000", "114537.254000", "114537.257000", "114537.260000", "114537.262000", "114537.265000", "114537.268000", "114537.271000", "114537.274000", "114537.277000", "114537.280000", "114537.283000", "114537.285000", "114537.288000", "114537.291000", "114537.294000", "114537.297000", "114537.300000", "114537.303000", "114537.306000", "114537.308000", "114537.311000", "114617.238000", "114617.241000", "114617.244000", "114617.247000", "114617.250000", "114617.252000", "114617.255000", "114617.258000", "114617.261000", "114617.264000", "114617.267000", "114617.270000", "114617.272000", "114617.275000", "114617.278000", "114617.281000", "114617.284000", "114617.287000", "114617.295000", "114617.297000", "114617.300000", "114617.303000", "114617.306000", "114617.309000", "114617.312000", "114617.315000", "114617.318000", "114657.239000", "114657.242000", "114657.245000", "114657.248000", "114657.251000", "114657.253000", "114657.256000", "114657.259000", "114657.262000", "114657.265000", "114657.268000", "114657.271000", "114657.274000", "114657.277000", "114657.280000", "114657.282000", "114657.285000", "114657.288000", "114657.291000", "114657.294000", "114657.297000", "114657.300000", "114657.303000", "114657.305000", "114657.308000", "114657.311000", "114657.314000", "114737.239000", "114737.242000", "114737.245000", "114737.248000", "114737.251000", "114737.254000", "114737.256000", "114737.259000", "114737.262000", "114737.265000", "114737.268000", "114737.271000", "114737.274000", "114737.276000", "114737.279000", "114737.282000", "114737.285000", "114737.288000", "114737.291000", "114737.294000", "114737.297000", "114737.300000", "114737.302000", "114737.305000", "114737.308000", "114737.311000", "114737.314000", "114757.239000", "114757.242000", "114757.245000", "114757.248000", "114757.252000", "114757.255000", "114757.258000", "114757.261000", "114757.263000", "114757.266000", "114757.269000", "114757.272000", "114757.275000", "114837.238000", "114837.241000", "114837.244000", "114837.247000", "114837.250000", "114837.253000", "114837.255000", "114837.258000", "114837.261000", "114837.264000", "114837.267000", "114837.270000", "114837.273000", "114837.275000", "114837.278000", "114837.281000", "114837.284000", "114837.287000", "114837.290000", "114837.293000", "114837.295000", "114837.298000", "114837.301000", "114837.304000", "114837.307000", "114837.310000", "114837.312000", "114916.420000", "114916.423000", "114916.426000", "114916.429000", "114916.432000", "114916.435000", "114916.437000", "114916.440000", "114916.443000", "114916.446000", "114916.449000", "114916.452000", "114916.455000", "114916.457000", "114916.460000", "114916.463000", "114916.466000", "114916.469000", "114916.472000", "114916.474000", "114916.477000", "114916.480000", "114916.483000", "114916.486000", "114916.489000", "114916.492000", "114916.494000"],
