{
  "AcquisitionMatrixPE": 104,
  "AcquisitionNumber": 1,
  "AcquisitionTime": "10:51:37.885000",
  "BandwidthPerPixelPhaseEncode": 17.17,
  "BaseResolution": 104,
  "BodyPartExamined": "BRAIN",
  "CoilString": "HC1-7;NC1_2",
  "ConsistencyInfo": "N4_VE11C_LATEST_20160120",
  "ConversionSoftware": "dcm2niix",
  "ConversionSoftwareVersion": "v1.0.20190902",
  "DerivedVendorReportedEchoSpacing": 0.000560011,
  "DeviceSerialNumber": "167006",
  "DwellTime": 2.1e-06,
  "EchoTime": 0.037,
  "EchoTrainLength": 104,
  "EffectiveEchoSpacing": 0.000560011,
  "FlipAngle": 52,
  "ImageComments": "Unaliased_MB4_PE3_LB",
  "ImageOrientationPatientDICOM": [0.998396, 5.56531e-05, -0.0566162, -0.013244, 0.972484, -0.232595],
  "ImageType": [
    "ORIGINAL",
    "PRIMARY",
    "M",
    "MB",
    "ND",
    "MOSAIC"
],
  "ImagingFrequency": 123.259,
  "InPlanePhaseEncodingDirectionDICOM": "COL",
  "InstitutionAddress": "Chemin_Queen-Mary_4565_Montreal_District_CA_H3W_1W5",
  "InstitutionName": "IUGM",
  "InstitutionalDepartmentName": "Department",
  "MRAcquisitionType": "2D",
  "MagneticFieldStrength": 3,
  "Manufacturer": "Siemens",
  "ManufacturersModelName": "Prisma_fit",
  "Modality": "MR",
  "MultibandAccelerationFactor": 4,
  "PartialFourier": 1,
  "PatientPosition": "HFS",
  "PercentPhaseFOV": 100,
  "PhaseEncodingDirection": "j",
  "PhaseEncodingSteps": 104,
  "PhaseResolution": 1,
  "PixelBandwidth": 2290,
  "ProcedureStepDescription": "video_friends",
  "ProtocolName": "func_task-friends-s03e15a",
  "PulseSequenceDetails": "%CustomerSeq%_cmrr_mbep2d_bold",
  "ReceiveCoilActiveElements": "HC1-7;NC1,2",
  "ReceiveCoilName": "HeadNeck_64",
  "ReconMatrixPE": 104,
  "RepetitionTime": 1.49,
  "SAR": 0.0287915,
  "ScanOptions": "FS",
  "ScanningSequence": "EP",
  "SequenceName": "epfid2d1_104",
  "SequenceVariant": "SK_SS",
  "SeriesDescription": "func_task-friends-s03e15a",
  "SeriesNumber": 9,
  "ShimSetting": [612, -7243, -8833, 612, 1, -262, 1, 40],
  "SliceThickness": 2,
  "SliceTiming": [0, 0.785, 0.0975, 0.8825, 0.195, 0.98, 0.295, 1.0775, 0.3925, 1.175, 0.49, 1.275, 0.5875, 1.3725, 0.685, 0, 0.785, 0.0975, 0.8825, 0.195, 0.98, 0.295, 1.0775, 0.3925, 1.175, 0.49, 1.275, 0.5875, 1.3725, 0.685, 0, 0.785, 0.0975, 0.8825, 0.195, 0.98, 0.295, 1.0775, 0.3925, 1.175, 0.49, 1.275, 0.5875, 1.3725, 0.685, 0, 0.785, 0.0975, 0.8825, 0.195, 0.98, 0.295, 1.0775, 0.3925, 1.175, 0.49, 1.275, 0.5875, 1.3725, 0.685],
  "SoftwareVersions": "syngo_MR_E11",
  "SpacingBetweenSlices": 2,
  "StationName": "MRC35049",
  "TaskName": "s03e15a",
  "TotalReadoutTime": 0.0576811,
  "TxRefAmp": 216.548,
  "WipMemBlock": "f819a411-4d3c-4526-a55e-19389b715aff||Sequence: R016 ve11c/master r/e634e98; Dec 19 2017 11:00:25 by eja",
  "dcmmeta_affine": [
    [-1.9967920780181885, -0.02648800238966942, -0.1100906953215599, 103.57557678222656],
    [-0.00011130610801046714, 1.9449670314788818, -0.46594342589378357, -81.30774688720703],
    [-0.11323234438896179, 0.46518993377685547, 1.941848874092102, -51.82347106933594],
    [0.0, 0.0, 0.0, 1.0]
],
  "dcmmeta_reorient_transform": [
    [0.0, -1.0, 0.0, 103.0],
    [1.0, 0.0, 0.0, 0.0],
    [0.0, 0.0, 1.0, 0.0],
    [0.0, 0.0, 0.0, 1.0]
],
  "dcmmeta_shape": [104, 104, 60, 458],
  "dcmmeta_slice_dim": 2,
  "dcmmeta_version": 0.6,
  "global": {
    "const": {
      "AcquisitionMatrix": [104, 0, 0, 104],
      "AngioFlag": "N",
      "BitsAllocated": 16,
      "BitsStored": 16,
      "BodyPartExamined": "BRAIN",
      "Columns": 832,
      "EchoNumbers": 1,
      "EchoTime": 37.0,
      "EchoTrainLength": 104,
      "FlipAngle": 52.0,
      "HighBit": 15,
      "ImageOrientationPatient": [0.99839601668779, 5.565305519e-05, -0.056616170523, -0.0132440013727, 0.97248350933307, -0.2325949709321],
      "ImagePositionPatient": [-818.03798031463, -827.03236864475, 206.63680369329],
      "ImageType": [
        "ORIGINAL",
        "PRIMARY",
        "M",
        "MB",
        "ND",
        "MOSAIC"
],
      "ImagedNucleus": "1H",
      "ImagingFrequency": 123.259066,
      "InPlanePhaseEncodingDirection": "COL",
      "MRAcquisitionType": "2D",
      "MagneticFieldStrength": 3.0,
      "Manufacturer": "SIEMENS",
      "ManufacturerModelName": "Prisma_fit",
      "Modality": "MR",
      "NumberOfAverages": 1.0,
      "NumberOfPhaseEncodingSteps": 104,
      "PercentPhaseFieldOfView": 100.0,
      "PercentSampling": 100.0,
      "PerformedProcedureStepStartTime": "094532.345000",
      "PhotometricInterpretation": "MONOCHROME2",
      "PixelBandwidth": 2290.0,
      "PixelRepresentation": 0,
      "PixelSpacing": [2.0, 2.0],
      "ProtocolName": "func_task-friends-s03e15a",
      "RepetitionTime": 1490.0,
      "Rows": 832,
      "SAR": 0.02879152639808,
      "SamplesPerPixel": 1,
      "ScanOptions": "FS",
      "ScanningSequence": "EP",
      "SequenceName": "epfid2d1_104",
      "SequenceVariant": [
        "SK",
        "SS"
],
      "SeriesDescription": "func_task-friends-s03e15a",
      "SeriesNumber": 9,
      "SeriesTime": "105311.249000",
      "SliceLocation": -37.075621538657,
      "SliceThickness": 2.0,
      "SmallestImagePixelValue": 0,
      "SoftwareVersions": "syngo MR E11",
      "SpacingBetweenSlices": 2.0000000252878,
      "SpecificCharacterSet": "ISO_IR 100",
      "StudyID": "1",
      "StudyTime": "094532.155000",
      "TransmitCoilName": "Body",
      "VariableFlipAngleFlag": "N",
      "WindowCenterWidthExplanation": "Algo1",
      "dBdt": 0.0},
    "slices": {}
  },
  "time": {
    "samples": {
      "AcquisitionNumber": [1, 2, 3, 4, 5, 6, 7, 8, 9, 10, 11, 12, 13, 14, 15, 16, 17, 18, 19, 20, 21, 22, 23, 24, 25, 26, 27, 28, 29, 30, 31, 32, 33, 34, 35, 36, 37, 38, 39, 40, 41, 42, 43, 44, 45, 46, 47, 48, 49, 50, 51, 52, 53, 54, 55, 56, 57, 58, 59, 60, 61, 62, 63, 64, 65, 66, 67, 68, 69, 70, 71, 72, 73, 74, 75, 76, 77, 78, 79, 80, 81, 82, 83, 84, 85, 86, 87, 88, 89, 90, 91, 92, 93, 94, 95, 96, 97, 98, 99, 100, 101, 102, 103, 104, 105, 106, 107, 108, 109, 110, 111, 112, 113, 114, 115, 116, 117, 118, 119, 120, 121, 122, 123, 124, 125, 126, 127, 128, 129, 130, 131, 132, 133, 134, 135, 136, 137, 138, 139, 140, 141, 142, 143, 144, 145, 146, 147, 148, 149, 150, 151, 152, 153, 154, 155, 156, 157, 158, 159, 160, 161, 162, 163, 164, 165, 166, 167, 168, 169, 170, 171, 172, 173, 174, 175, 176, 177, 178, 179, 180, 181, 182, 183, 184, 185, 186, 187, 188, 189, 190, 191, 192, 193, 194, 195, 196, 197, 198, 199, 200, 201, 202, 203, 204, 205, 206, 207, 208, 209, 210, 211, 212, 213, 214, 215, 216, 217, 218, 219, 220, 221, 222, 223, 224, 225, 226, 227, 228, 229, 230, 231, 232, 233, 234, 235, 236, 237, 238, 239, 240, 241, 242, 243, 244, 245, 246, 247, 248, 249, 250, 251, 252, 253, 254, 255, 256, 257, 258, 259, 260, 261, 262, 263, 264, 265, 266, 267, 268, 269, 270, 271, 272, 273, 274, 275, 276, 277, 278, 279, 280, 281, 282, 283, 284, 285, 286, 287, 288, 289, 290, 291, 292, 293, 294, 295, 296, 297, 298, 299, 300, 301, 302, 303, 304, 305, 306, 307, 308, 309, 310, 311, 312, 313, 314, 315, 316, 317, 318, 319, 320, 321, 322, 323, 324, 325, 326, 327, 328, 329, 330, 331, 332, 333, 334, 335, 336, 337, 338, 339, 340, 341, 342, 343, 344, 345, 346, 347, 348, 349, 350, 351, 352, 353, 354, 355, 356, 357, 358, 359, 360, 361, 362, 363, 364, 365, 366, 367, 368, 369, 370, 371, 372, 373, 374, 375, 376, 377, 378, 379, 380, 381, 382, 383, 384, 385, 386, 387, 388, 389, 390, 391, 392, 393, 394, 395, 396, 397, 398, 399, 400, 401, 402, 403, 404, 405, 406, 407, 408, 409, 410, 411, 412, 413, 414, 415, 416, 417, 418, 419, 420, 421, 422, 423, 424, 425, 426, 427, 428, 429, 430, 431, 432, 433, 434, 435, 436, 437, 438, 439, 440, 441, 442, 443, 444, 445, 446, 447, 448, 449, 450, 451, 452, 453, 454, 455, 456, 457, 458],
      "AcquisitionTime": ["105137.885000", "105139.375000", "105140.865000", "105142.355000", "105143.845000", "105145.335000", "105146.825000", "105148.315000", "105149.805000", "105151.295000", "105152.785000", "105154.275000", "105155.765000", "105157.255000", "105158.745000", "105200.235000", "105201.725000", "105203.215000", "105204.705000", "105206.195000", "105207.685000", "105209.175000", "105210.665000", "105212.155000", "105213.645000", "105215.135000", "105216.625000", "105218.115000", "105219.605000", "105221.095000", "105222.585000", "105224.075000", "105225.565000", "105227.055000", "105228.545000", "105230.035000", "105231.525000", "105233.015000", "105234.505000", "105235.995000", "105237.485000", "105238.975000", "105240.465000", "105241.955000", "105243.445000", "105244.935000", "105246.425000", "105247.915000", "105249.405000", "105250.895000", "105252.385000", "105253.875000", "105255.365000", "105256.855000", "105258.345000", "105259.835000", "105301.325000", "105302.815000", "105304.305000", "105305.795000", "105307.285000", "105308.775000", "105310.265000", "105311.755000", "105313.245000", "105314.735000", "105316.225000", "105317.715000", "105319.205000", "105320.695000", "105322.185000", "105323.675000", "105325.165000", "105326.655000", "105328.145000", "105329.635000", "105331.125000", "105332.615000", "105334.105000", "105335.595000", "105337.085000", "105338.575000", "105340.065000", "105341.555000", "105343.045000", "105344.535000", "105346.025000", "105347.515000", "105349.005000", "105350.495000", "105351.985000", "105353.475000", "105354.965000", "105356.455000", "105357.945000", "105359.435000", "105400.925000", "105402.415000", "105403.905000", "105405.395000", "105406.885000", "105408.375000", "105409.865000", "105411.355000", "105412.845000", "105414.335000", "105415.825000", "105417.315000", "105418.805000", "105420.295000", "105421.785000", "105423.275000", "105424.765000", "105426.255000", "105427.745000", "105429.235000", "105430.725000", "105432.215000", "105433.705000", "105435.195000", "105436.685000", "105438.175000", "105439.665000", "105441.155000", "105442.645000", "105444.135000", "105445.625000", "105447.115000", "105448.605000", "105450.095000", "105451.585000", "105453.075000", "105454.565000", "105456.055000", "105457.545000", "105459.035000", "105500.525000", "105502.015000", "105503.505000", "105504.995000", "105506.485000", "105507.975000", "105509.465000", "105510.955000", "105512.445000", "105513.935000", "105515.425000", "105516.915000", "105518.405000", "105519.895000", "105521.385000", "105522.875000", "105524.365000", "105525.855000", "105527.345000", "105528.835000", "105530.325000", "105531.815000", "105533.305000", "105534.795000", "105536.285000", "105537.775000", "105539.265000", "105540.755000", "105542.245000", "105543.735000", "105545.225000", "105546.715000", "105548.205000", "105549.695000", "105551.185000", "105552.675000", "105554.165000", "105555.655000", "105557.145000", "105558.635000", "105600.125000", "105601.615000", "105603.105000", "105604.595000", "105606.085000", "105607.575000", "105609.065000", "105610.555000", "105612.045000", "105613.535000", "105615.025000", "105616.515000", "105618.005000", "105619.495000", "105620.985000", "105622.475000", "105623.965000", "105625.455000", "105626.945000", "105628.435000", "105629.925000", "105631.415000", "105632.905000", "105634.395000", "105635.885000", "105637.375000", "105638.865000", "105640.355000", "105641.845000", "105643.335000", "105644.825000", "105646.315000", "105647.805000", "105649.295000", "105650.785000", "105652.275000", "105653.765000", "105655.255000", "105656.745000", "105658.235000", "105659.725000", "105701.215000", "105702.705000", "105704.195000", "105705.685000", "105707.175000", "105708.665000", "105710.155000", "105711.645000", "105713.135000", "105714.625000", "105716.115000", "105717.605000", "105719.095000", "105720.585000", "105722.075000", "105723.565000", "105725.055000", "105726.545000", "105728.035000", "105729.525000", "105731.015000", "105732.505000", "105733.995000", "105735.485000", "105736.975000", "105738.465000", "105739.955000", "105741.445000", "105742.935000", "105744.425000", "105745.915000", "105747.405000", "105748.895000", "105750.385000", "105751.875000", "105753.365000", "105754.855000", "105756.345000", "105757.835000", "105759.325000", "105800.815000", "105802.305000", "105803.795000", "105805.285000", "105806.775000", "105808.265000", "105809.755000", "105811.245000", "105812.735000", "105814.225000", "105815.715000", "105817.205000", "105818.695000", "105820.185000", "105821.675000", "105823.165000", "105824.655000", "105826.145000", "105827.635000", "105829.125000", "105830.615000", "105832.105000", "105833.595000", "105835.085000", "105836.575000", "105838.065000", "105839.555000", "105841.045000", "105842.535000", "105844.025000", "105845.515000", "105847.005000", "105848.495000", "105849.985000", "105851.475000", "105852.965000", "105854.455000", "105855.945000", "105857.435000", "105858.925000", "105900.415000", "105901.905000", "105903.395000", "105904.885000", "105906.375000", "105907.865000", "105909.355000", "105910.845000", "105912.335000", "105913.825000", "105915.315000", "105916.805000", "105918.295000", "105919.785000", "105921.275000", "105922.765000", "105924.255000", "105925.745000", "105927.235000", "105928.725000", "105930.215000", "105931.705000", "105933.195000", "105934.685000", "105936.175000", "105937.665000", "105939.155000", "105940.645000", "105942.135000", "105943.625000", "105945.115000", "105946.605000", "105948.095000", "105949.585000", "105951.075000", "105952.565000", "105954.055000", "105955.545000", "105957.035000", "105958.525000", "110000.015000", "110001.505000", "110002.995000", "110004.485000", "110005.975000", "110007.465000", "110008.955000", "110010.445000", "110011.935000", "110013.425000", "110014.915000", "110016.405000", "110017.895000", "110019.385000", "110020.875000", "110022.365000", "110023.855000", "110025.345000", "110026.835000", "110028.325000", "110029.815000", "110031.305000", "110032.795000", "110034.285000", "110035.775000", "110037.265000", "110038.755000", "110040.245000", "110041.735000", "110043.225000", "110044.715000", "110046.205000", "110047.695000", "110049.185000", "110050.675000", "110052.165000", "110053.655000", "110055.145000", "110056.635000", "110058.125000", "110059.615000", "110101.105000", "110102.595000", "110104.085000", "110105.575000", "110107.065000", "110108.555000", "110110.045000", "110111.535000", "110113.025000", "110114.515000", "110116.005000", "110117.495000", "110118.985000", "110120.475000", "110121.965000", "110123.455000", "110124.945000", "110126.435000", "110127.925000", "110129.415000", "110130.905000", "110132.395000", "110133.885000", "110135.375000", "110136.865000", "110138.355000", "110139.845000", "110141.335000", "110142.825000", "110144.315000", "110145.805000", "110147.295000", "110148.785000", "110150.275000", "110151.765000", "110153.255000", "110154.745000", "110156.235000", "110157.725000", "110159.215000", "110200.705000", "110202.195000", "110203.685000", "110205.175000", "110206.665000", "110208.155000", "110209.645000", "110211.135000", "110212.625000", "110214.115000", "110215.605000", "110217.095000", "110218.585000", "110220.075000", "110221.565000", "110223.055000", "110224.545000", "110226.035000", "110227.525000", "110229.015000", "110230.505000", "110231.995000", "110233.485000", "110234.975000", "110236.465000", "110237.955000", "110239.445000", "110240.935000", "110242.425000", "110243.915000", "110245.405000", "110246.895000", "110248.385000", "110249.875000", "110251.365000", "110252.855000", "110254.345000", "110255.835000", "110257.325000", "110258.815000"],
      "ContentTime": ["105311.252000", "105311.255000", "105311.258000", "105311.265000", "105311.268000", "105311.271000", "105311.274000", "105311.276000", "105311.279000", "105311.282000", "105311.285000", "105311.288000", "105311.290000", "105311.293000", "105311.296000", "105311.299000", "105311.302000", "105311.305000", "105311.308000", "105311.311000", "105311.314000", "105311.316000", "105311.319000", "105311.322000", "105311.325000", "105331.212000", "105331.215000", "105331.218000", "105331.221000", "105331.223000", "105331.226000", "105331.229000", "105331.232000", "105331.235000", "105331.238000", "105331.241000", "105331.244000", "105331.246000", "105331.249000", "105331.252000", "105331.255000", "105331.258000", "105331.261000", "105331.263000", "105331.266000", "105351.212000", "105351.215000", "105351.218000", "105351.220000", "105351.223000", "105351.226000", "105351.229000", "105351.232000", "105351.234000", "105351.237000", "105351.240000", "105351.243000", "105351.246000", "105351.248000", "105351.251000", "105351.254000", "105351.257000", "105351.260000", "105351.263000", "105351.265000", "105411.213000", "105411.216000", "105411.219000", "105411.221000", "105411.224000", "105411.227000", "105411.230000", "105411.233000", "105411.235000", "105411.238000", "105411.241000", "105411.263000", "105411.266000", "105411.269000", "105411.285000", "105411.288000", "105411.290000", "105411.293000", "105411.296000", "105411.299000", "105431.213000", "105431.216000", "105431.219000", "105431.221000", "105431.224000", "105431.227000", "105431.230000", "105431.232000", "105431.235000", "105431.238000", "105431.241000", "105431.244000", "105431.247000", "105431.249000", "105431.252000", "105431.255000", "105431.258000", "105431.261000", "105431.263000", "105431.266000", "105451.212000", "105451.215000", "105451.218000", "105451.221000", "105451.223000", "105451.226000", "105451.229000", "105451.232000", "105451.235000", "105451.237000", "105451.240000", "105451.243000", "105451.246000", "105451.249000", "105451.252000", "105451.254000", "105451.257000", "105451.260000", "105451.263000", "105451.266000", "105531.212000", "105531.215000", "105531.218000", "105531.220000", "105531.223000", "105531.226000", "105531.229000", "105531.232000", "105531.235000", "105531.237000", "105531.240000", "105531.243000", "105531.246000", "105531.249000", "105531.252000", "105531.254000", "105531.257000", "105531.260000", "105531.263000", "105531.266000", "105531.268000", "105531.271000", "105531.274000", "105531.277000", "105531.280000", "105531.283000", "105531.285000", "105531.288000", "105531.291000", "105531.294000", "105531.297000", "105611.212000", "105611.215000", "105611.218000", "105611.221000", "105611.223000", "105611.226000", "105611.229000", "105611.232000", "105611.235000", "105611.238000", "105611.241000", "105611.243000", "105611.246000", "105611.249000", "105611.252000", "105611.255000", "105611.258000", "105611.260000", "105611.263000", "105611.266000", "105611.269000", "105611.272000", "105611.275000", "105611.277000", "105611.280000", "105611.283000", "105611.286000", "105651.213000", "105651.216000", "105651.219000", "105651.222000", "105651.224000", "105651.227000", "105651.230000", "105651.233000", "105651.236000", "105651.239000", "105651.241000", "105651.244000", "105651.247000", "105651.250000", "105651.253000", "105651.256000", "105651.259000", "105651.262000", "105651.264000", "105651.267000", "105651.270000", "105651.273000", "105651.276000", "105651.278000", "105651.281000", "105651.284000", "105651.287000", "105731.212000", "105731.215000", "105731.218000", "105731.221000", "105731.224000", "105731.227000", "105731.230000", "105731.233000", "105731.235000", "105731.238000", "105731.241000", "105731.244000", "105731.247000", "105731.250000", "105731.253000", "105731.255000", "105731.258000", "105731.261000", "105731.264000", "105731.267000", "105731.270000", "105731.273000", "105731.275000", "105731.278000", "105731.281000", "105731.284000", "105731.287000", "105811.212000", "105811.215000", "105811.218000", "105811.221000", "105811.224000", "105811.226000", "105811.229000", "105811.232000", "105811.235000", "105811.238000", "105811.241000", "105811.243000", "105811.246000", "105811.249000", "105811.252000", "105811.255000", "105811.258000", "105811.261000", "105811.263000", "105811.266000", "105811.269000", "105811.272000", "105811.275000", "105811.277000", "105811.280000", "105811.283000", "105851.213000", "105851.216000", "105851.219000", "105851.222000", "105851.224000", "105851.227000", "105851.230000", "105851.233000", "105851.236000", "105851.239000", "105851.241000", "105851.244000", "105851.247000", "105851.250000", "105851.253000", "105851.255000", "105851.258000", "105851.261000", "105851.272000", "105851.275000", "105851.278000", "105851.280000", "105851.283000", "105851.286000", "105851.289000", "105851.292000", "105851.294000", "105931.212000", "105931.215000", "105931.218000", "105931.221000", "105931.223000", "105931.226000", "105931.229000", "105931.232000", "105931.235000", "105931.238000", "105931.241000", "105931.243000", "105931.246000", "105931.249000", "105931.252000", "105931.255000", "105931.258000", "105931.260000", "105931.263000", "105931.266000", "105931.269000", "105931.272000", "105931.275000", "105931.278000", "105931.280000", "105931.283000", "105931.286000", "110011.212000", "110011.215000", "110011.218000", "110011.221000", "110011.224000", "110011.226000", "110011.229000", "110011.232000", "110011.235000", "110011.238000", "110011.240000", "110011.243000", "110011.246000", "110011.249000", "110011.252000", "110011.266000", "110011.268000", "110011.271000", "110011.274000", "110011.277000", "110011.280000", "110011.283000", "110011.285000", "110011.288000", "110011.291000", "110011.294000", "110011.297000", "110051.212000", "110051.215000", "110051.218000", "110051.221000", "110051.224000", "110051.227000", "110051.229000", "110051.232000", "110051.235000", "110051.238000", "110051.241000", "110051.244000", "110051.246000", "110051.249000", "110051.252000", "110051.255000", "110051.258000", "110051.261000", "110051.264000", "110051.266000", "110051.269000", "110051.272000", "110051.275000", "110051.278000", "110051.281000", "110051.283000", "110051.286000", "110131.213000", "110131.216000", "110131.219000", "110131.222000", "110131.225000", "110131.227000", "110131.230000", "110131.233000", "110131.236000", "110131.239000", "110131.242000", "110131.244000", "110131.247000", "110131.250000", "110131.253000", "110131.256000", "110131.259000", "110131.262000", "110131.264000", "110131.267000", "110131.270000", "110131.273000", "110131.276000", "110131.279000", "110131.282000", "110131.284000", "110131.287000", "110211.212000", "110211.215000", "110211.218000", "110211.221000", "110211.224000", "110211.226000", "110211.229000", "110211.232000", "110211.235000", "110211.238000", "110211.241000", "110211.244000", "110211.247000", "110211.249000", "110211.252000", "110211.255000", "110211.258000", "110211.261000", "110211.264000", "110211.267000", "110211.270000", "110211.272000", "110211.275000", "110211.278000", "110211.281000", "110211.284000", "110251.212000", "110251.215000", "110251.218000", "110251.221000", "110251.224000", "110251.226000", "110251.229000", "110251.232000", "110251.235000", "110251.238000", "110251.241000", "110251.244000", "110251.246000", "110251.249000", "110251.252000", "110251.255000", "110251.258000", "110251.261000", "110251.264000", "110251.267000", "110251.269000", "110251.272000", "110251.275000", "110251.278000", "110251.281000", "110251.284000", "110251.286000", "110300.534000", "110300.537000", "110300.540000", "110300.542000", "110300.553000", "110300.556000", "110300.559000"],
