{
  "AcquisitionMatrixPE": 104,
  "AcquisitionNumber": 1,
  "AcquisitionTime": "14:40:33.562500",
  "BandwidthPerPixelPhaseEncode": 17.17,
  "BaseResolution": 104,
  "BodyPartExamined": "BRAIN",
  "CoilString": "HC1-7;NC1_2",
  "ConsistencyInfo": "N4_VE11C_LATEST_20160120",
  "ConversionSoftware": "dcm2niix",
  "ConversionSoftwareVersion": "v1.0.20190720  (JP2:OpenJPEG) GCC7.3.0",
  "DerivedVendorReportedEchoSpacing": 0.000560011,
  "DeviceSerialNumber": "167006",
  "DwellTime": 2.1e-06,
  "EchoTime": 0.037,
  "EchoTrainLength": 104,
  "EffectiveEchoSpacing": 0.000560011,
  "FlipAngle": 52,
  "ImageComments": "Unaliased_MB4_PE3_LB",
  "ImageOrientationPatientDICOM": [0.999996, -0.000498144, 0.00285798, 0.00191986, 0.8522, -0.523212],
  "ImageType": [
    "ORIGINAL",
    "PRIMARY",
    "M",
    "MB",
    "ND",
    "MOSAIC"
],
  "ImagingFrequency": 123.259,
  "InPlanePhaseEncodingDirectionDICOM": "COL",
  "InstitutionAddress": "Chemin_Queen-Mary_4565_Montreal_District_CA_H3W_1W5",
  "InstitutionName": "IUGM",
  "InstitutionalDepartmentName": "Department",
  "MRAcquisitionType": "2D",
  "MagneticFieldStrength": 3,
  "Manufacturer": "Siemens",
  "ManufacturersModelName": "Prisma_fit",
  "Modality": "MR",
  "MultibandAccelerationFactor": 4,
  "PartialFourier": 1,
  "PatientPosition": "HFS",
  "PercentPhaseFOV": 100,
  "PhaseEncodingDirection": "j",
  "PhaseEncodingSteps": 104,
  "PhaseResolution": 1,
  "PixelBandwidth": 2290,
  "ProcedureStepDescription": "video_friends",
  "ProtocolName": "func_task-s02e01b",
  "PulseSequenceDetails": "%CustomerSeq%_cmrr_mbep2d_bold",
  "ReceiveCoilActiveElements": "HC1-7;NC1,2",
  "ReceiveCoilName": "HeadNeck_64",
  "ReconMatrixPE": 104,
  "RepetitionTime": 1.49,
  "SAR": 0.0350113,
  "ScanOptions": "FS",
  "ScanningSequence": "EP",
  "SequenceName": "epfid2d1_104",
  "SequenceVariant": "SK_SS",
  "SeriesDescription": "func_task-s02e01b",
  "SeriesNumber": 11,
  "ShimSetting": [622, -7194, -8888, 411, -45, -157, 38, -25],
  "SliceThickness": 2,
  "SliceTiming": [0, 0.785, 0.0975, 0.8825, 0.195, 0.98, 0.295, 1.0775, 0.3925, 1.175, 0.49, 1.275, 0.5875, 1.3725, 0.685, 0, 0.785, 0.0975, 0.8825, 0.195, 0.98, 0.295, 1.0775, 0.3925, 1.175, 0.49, 1.275, 0.5875, 1.3725, 0.685, 0, 0.785, 0.0975, 0.8825, 0.195, 0.98, 0.295, 1.0775, 0.3925, 1.175, 0.49, 1.275, 0.5875, 1.3725, 0.685, 0, 0.785, 0.0975, 0.8825, 0.195, 0.98, 0.295, 1.0775, 0.3925, 1.175, 0.49, 1.275, 0.5875, 1.3725, 0.685],
  "SoftwareVersions": "syngo_MR_E11",
  "SpacingBetweenSlices": 2,
  "StationName": "MRC35049",
  "TaskName": "friends",
  "TotalReadoutTime": 0.0576811,
  "TxRefAmp": 246.094,
  "WipMemBlock": "3e083f9a-238a-4646-ae3a-b85396ab0a6a||Sequence: R016 ve11c/master r/e634e98; Dec 19 2017 11:00:25 by eja",
  "dcmmeta_affine": [
    [-1.999991536140442, 0.0038397142197936773, 0.004349876195192337, 102.19485473632812],
    [0.000996288494206965, 1.7044007778167725, -1.0464305877685547, -58.56124496459961],
    [0.005715962965041399, 1.0464240312576294, 1.7043955326080322, -108.69628143310547],
    [0.0, 0.0, 0.0, 1.0]
],
  "dcmmeta_reorient_transform": [
    [0.0, -1.0, 0.0, 103.0],
    [1.0, 0.0, 0.0, 0.0],
    [0.0, 0.0, 1.0, 0.0],
    [0.0, 0.0, 0.0, 1.0]
],
  "dcmmeta_shape": [104, 104, 60, 477],
  "dcmmeta_slice_dim": 2,
  "dcmmeta_version": 0.6,
  "global": {
    "const": {
      "AcquisitionMatrix": [104, 0, 0, 104],
      "AngioFlag": "N",
      "BitsAllocated": 16,
      "BitsStored": 16,
      "BodyPartExamined": "BRAIN",
      "Columns": 832,
      "EchoNumbers": 1,
      "EchoTime": 37.0,
      "EchoTrainLength": 104,
      "FlipAngle": 52.0,
      "HighBit": 15,
      "ImageOrientationPatient": [0.99999579188793, -0.0004981442729, 0.00285798158169, 0.00191985707376, 0.85220040016994, -0.52321199537],
      "ImagePositionPatient": [-831.98493452868, -737.03128163657, 377.90311018106],
      "ImageType": [
        "ORIGINAL",
        "PRIMARY",
        "M",
        "MB",
        "ND",
        "MOSAIC"
],
      "ImagedNucleus": "1H",
      "ImagingFrequency": 123.25913,
      "InPlanePhaseEncodingDirection": "COL",
      "MRAcquisitionType": "2D",
      "MagneticFieldStrength": 3.0,
      "Manufacturer": "SIEMENS",
      "ManufacturerModelName": "Prisma_fit",
      "Modality": "MR",
      "NumberOfAverages": 1.0,
      "NumberOfPhaseEncodingSteps": 104,
      "PercentPhaseFieldOfView": 100.0,
      "PercentSampling": 100.0,
      "PerformedProcedureStepStartTime": "140619.387000",
      "PhotometricInterpretation": "MONOCHROME2",
      "PixelBandwidth": 2290.0,
      "PixelRepresentation": 0,
      "PixelSpacing": [2.0, 2.0],
      "ProtocolName": "func_task-s02e01b",
      "RepetitionTime": 1490.0,
      "Rows": 832,
      "SAR": 0.03501126318308,
      "SamplesPerPixel": 1,
      "ScanOptions": "FS",
      "ScanningSequence": "EP",
      "SequenceName": "epfid2d1_104",
      "SequenceVariant": [
        "SK",
        "SS"
],
      "SeriesDescription": "func_task-s02e01b",
      "SeriesNumber": 11,
      "SeriesTime": "144141.857000",
      "SliceLocation": -61.768325240258,
      "SliceThickness": 2.0,
      "SmallestImagePixelValue": 0,
      "SoftwareVersions": "syngo MR E11",
      "SpacingBetweenSlices": 2.000000007286,
      "SpecificCharacterSet": "ISO_IR 100",
      "StudyID": "1",
      "StudyTime": "140619.328000",
      "TransmitCoilName": "Body",
      "VariableFlipAngleFlag": "N",
      "WindowCenterWidthExplanation": "Algo1",
      "dBdt": 0.0},
    "slices": {}
  },
  "time": {
    "samples": {
      "AcquisitionNumber": [1, 2, 3, 4, 5, 6, 7, 8, 9, 10, 11, 12, 13, 14, 15, 16, 17, 18, 19, 20, 21, 22, 23, 24, 25, 26, 27, 28, 29, 30, 31, 32, 33, 34, 35, 36, 37, 38, 39, 40, 41, 42, 43, 44, 45, 46, 47, 48, 49, 50, 51, 52, 53, 54, 55, 56, 57, 58, 59, 60, 61, 62, 63, 64, 65, 66, 67, 68, 69, 70, 71, 72, 73, 74, 75, 76, 77, 78, 79, 80, 81, 82, 83, 84, 85, 86, 87, 88, 89, 90, 91, 92, 93, 94, 95, 96, 97, 98, 99, 100, 101, 102, 103, 104, 105, 106, 107, 108, 109, 110, 111, 112, 113, 114, 115, 116, 117, 118, 119, 120, 121, 122, 123, 124, 125, 126, 127, 128, 129, 130, 131, 132, 133, 134, 135, 136, 137, 138, 139, 140, 141, 142, 143, 144, 145, 146, 147, 148, 149, 150, 151, 152, 153, 154, 155, 156, 157, 158, 159, 160, 161, 162, 163, 164, 165, 166, 167, 168, 169, 170, 171, 172, 173, 174, 175, 176, 177, 178, 179, 180, 181, 182, 183, 184, 185, 186, 187, 188, 189, 190, 191, 192, 193, 194, 195, 196, 197, 198, 199, 200, 201, 202, 203, 204, 205, 206, 207, 208, 209, 210, 211, 212, 213, 214, 215, 216, 217, 218, 219, 220, 221, 222, 223, 224, 225, 226, 227, 228, 229, 230, 231, 232, 233, 234, 235, 236, 237, 238, 239, 240, 241, 242, 243, 244, 245, 246, 247, 248, 249, 250, 251, 252, 253, 254, 255, 256, 257, 258, 259, 260, 261, 262, 263, 264, 265, 266, 267, 268, 269, 270, 271, 272, 273, 274, 275, 276, 277, 278, 279, 280, 281, 282, 283, 284, 285, 286, 287, 288, 289, 290, 291, 292, 293, 294, 295, 296, 297, 298, 299, 300, 301, 302, 303, 304, 305, 306, 307, 308, 309, 310, 311, 312, 313, 314, 315, 316, 317, 318, 319, 320, 321, 322, 323, 324, 325, 326, 327, 328, 329, 330, 331, 332, 333, 334, 335, 336, 337, 338, 339, 340, 341, 342, 343, 344, 345, 346, 347, 348, 349, 350, 351, 352, 353, 354, 355, 356, 357, 358, 359, 360, 361, 362, 363, 364, 365, 366, 367, 368, 369, 370, 371, 372, 373, 374, 375, 376, 377, 378, 379, 380, 381, 382, 383, 384, 385, 386, 387, 388, 389, 390, 391, 392, 393, 394, 395, 396, 397, 398, 399, 400, 401, 402, 403, 404, 405, 406, 407, 408, 409, 410, 411, 412, 413, 414, 415, 416, 417, 418, 419, 420, 421, 422, 423, 424, 425, 426, 427, 428, 429, 430, 431, 432, 433, 434, 435, 436, 437, 438, 439, 440, 441, 442, 443, 444, 445, 446, 447, 448, 449, 450, 451, 452, 453, 454, 455, 456, 457, 458, 459, 460, 461, 462, 463, 464, 465, 466, 467, 468, 469, 470, 471, 472, 473, 474, 475, 476, 477],
      "AcquisitionTime": ["144033.562500", "144035.052500", "144036.542500", "144038.032500", "144039.522500", "144041.012500", "144042.502500", "144043.992500", "144045.482500", "144046.972500", "144048.462500", "144049.952500", "144051.442500", "144052.932500", "144054.422500", "144055.912500", "144057.402500", "144058.892500", "144100.382500", "144101.872500", "144103.362500", "144104.852500", "144106.342500", "144107.832500", "144109.322500", "144110.812500", "144112.302500", "144113.792500", "144115.282500", "144116.772500", "144118.262500", "144119.752500", "144121.242500", "144122.732500", "144124.222500", "144125.712500", "144127.202500", "144128.692500", "144130.182500", "144131.672500", "144133.162500", "144134.652500", "144136.142500", "144137.632500", "144139.122500", "144140.612500", "144142.102500", "144143.592500", "144145.082500", "144146.572500", "144148.062500", "144149.552500", "144151.042500", "144152.532500", "144154.022500", "144155.512500", "144157.002500", "144158.492500", "144159.982500", "144201.472500", "144202.962500", "144204.452500", "144205.942500", "144207.432500", "144208.922500", "144210.412500", "144211.902500", "144213.392500", "144214.882500", "144216.372500", "144217.862500", "144219.352500", "144220.842500", "144222.332500", "144223.822500", "144225.312500", "144226.802500", "144228.292500", "144229.782500", "144231.272500", "144232.762500", "144234.252500", "144235.742500", "144237.232500", "144238.722500", "144240.212500", "144241.702500", "144243.192500", "144244.682500", "144246.172500", "144247.662500", "144249.152500", "144250.642500", "144252.132500", "144253.622500", "144255.112500", "144256.602500", "144258.092500", "144259.582500", "144301.072500", "144302.562500", "144304.052500", "144305.542500", "144307.032500", "144308.522500", "144310.012500", "144311.502500", "144312.992500", "144314.482500", "144315.972500", "144317.462500", "144318.952500", "144320.442500", "144321.932500", "144323.422500", "144324.912500", "144326.402500", "144327.892500", "144329.382500", "144330.872500", "144332.362500", "144333.852500", "144335.342500", "144336.832500", "144338.322500", "144339.812500", "144341.302500", "144342.792500", "144344.282500", "144345.772500", "144347.262500", "144348.752500", "144350.242500", "144351.732500", "144353.222500", "144354.712500", "144356.202500", "144357.692500", "144359.182500", "144400.672500", "144402.162500", "144403.652500", "144405.142500", "144406.632500", "144408.122500", "144409.612500", "144411.102500", "144412.592500", "144414.082500", "144415.572500", "144417.062500", "144418.552500", "144420.042500", "144421.532500", "144423.022500", "144424.512500", "144426.002500", "144427.492500", "144428.982500", "144430.472500", "144431.962500", "144433.452500", "144434.942500", "144436.432500", "144437.922500", "144439.412500", "144440.902500", "144442.392500", "144443.882500", "144445.372500", "144446.862500", "144448.352500", "144449.842500", "144451.332500", "144452.822500", "144454.312500", "144455.802500", "144457.292500", "144458.782500", "144500.272500", "144501.762500", "144503.252500", "144504.742500", "144506.232500", "144507.722500", "144509.212500", "144510.702500", "144512.192500", "144513.682500", "144515.172500", "144516.662500", "144518.152500", "144519.642500", "144521.132500", "144522.622500", "144524.112500", "144525.602500", "144527.092500", "144528.582500", "144530.072500", "144531.562500", "144533.052500", "144534.542500", "144536.032500", "144537.522500", "144539.012500", "144540.502500", "144541.992500", "144543.482500", "144544.972500", "144546.462500", "144547.952500", "144549.442500", "144550.932500", "144552.422500", "144553.912500", "144555.402500", "144556.892500", "144558.382500", "144559.872500", "144601.362500", "144602.852500", "144604.342500", "144605.832500", "144607.322500", "144608.812500", "144610.302500", "144611.792500", "144613.282500", "144614.772500", "144616.262500", "144617.752500", "144619.242500", "144620.732500", "144622.222500", "144623.712500", "144625.202500", "144626.692500", "144628.182500", "144629.672500", "144631.162500", "144632.652500", "144634.142500", "144635.632500", "144637.122500", "144638.612500", "144640.102500", "144641.592500", "144643.082500", "144644.572500", "144646.062500", "144647.552500", "144649.042500", "144650.532500", "144652.022500", "144653.512500", "144655.002500", "144656.492500", "144657.982500", "144659.472500", "144700.962500", "144702.452500", "144703.942500", "144705.432500", "144706.922500", "144708.412500", "144709.902500", "144711.392500", "144712.882500", "144714.372500", "144715.862500", "144717.352500", "144718.842500", "144720.332500", "144721.822500", "144723.312500", "144724.802500", "144726.292500", "144727.782500", "144729.272500", "144730.762500", "144732.252500", "144733.742500", "144735.232500", "144736.722500", "144738.212500", "144739.702500", "144741.192500", "144742.682500", "144744.172500", "144745.662500", "144747.152500", "144748.642500", "144750.132500", "144751.622500", "144753.112500", "144754.602500", "144756.092500", "144757.582500", "144759.072500", "144800.562500", "144802.052500", "144803.542500", "144805.032500", "144806.522500", "144808.012500", "144809.502500", "144810.992500", "144812.482500", "144813.972500", "144815.462500", "144816.952500", "144818.442500", "144819.932500", "144821.422500", "144822.912500", "144824.402500", "144825.892500", "144827.382500", "144828.872500", "144830.362500", "144831.852500", "144833.342500", "144834.832500", "144836.322500", "144837.812500", "144839.302500", "144840.792500", "144842.282500", "144843.772500", "144845.262500", "144846.752500", "144848.242500", "144849.732500", "144851.222500", "144852.712500", "144854.202500", "144855.692500", "144857.182500", "144858.672500", "144900.162500", "144901.652500", "144903.142500", "144904.632500", "144906.122500", "144907.612500", "144909.102500", "144910.592500", "144912.082500", "144913.572500", "144915.062500", "144916.552500", "144918.042500", "144919.532500", "144921.022500", "144922.512500", "144924.002500", "144925.492500", "144926.982500", "144928.472500", "144929.962500", "144931.452500", "144932.942500", "144934.432500", "144935.922500", "144937.412500", "144938.902500", "144940.392500", "144941.882500", "144943.372500", "144944.862500", "144946.352500", "144947.842500", "144949.332500", "144950.822500", "144952.312500", "144953.802500", "144955.292500", "144956.782500", "144958.272500", "144959.762500", "145001.252500", "145002.742500", "145004.232500", "145005.722500", "145007.212500", "145008.702500", "145010.192500", "145011.682500", "145013.172500", "145014.662500", "145016.152500", "145017.642500", "145019.132500", "145020.622500", "145022.112500", "145023.602500", "145025.092500", "145026.582500", "145028.072500", "145029.562500", "145031.052500", "145032.542500", "145034.032500", "145035.522500", "145037.012500", "145038.502500", "145039.992500", "145041.482500", "145042.972500", "145044.462500", "145045.952500", "145047.442500", "145048.932500", "145050.422500", "145051.912500", "145053.402500", "145054.892500", "145056.382500", "145057.872500", "145059.362500", "145100.852500", "145102.342500", "145103.832500", "145105.322500", "145106.812500", "145108.302500", "145109.792500", "145111.282500", "145112.772500", "145114.262500", "145115.752500", "145117.242500", "145118.732500", "145120.222500", "145121.712500", "145123.202500", "145124.692500", "145126.182500", "145127.672500", "145129.162500", "145130.652500", "145132.142500", "145133.632500", "145135.122500", "145136.612500", "145138.102500", "145139.592500", "145141.082500", "145142.572500", "145144.062500", "145145.552500", "145147.042500", "145148.532500", "145150.022500", "145151.512500", "145153.002500", "145154.492500", "145155.982500", "145157.472500", "145158.962500", "145200.452500", "145201.942500", "145203.432500", "145204.922500", "145206.412500", "145207.902500", "145209.392500", "145210.882500", "145212.372500", "145213.862500", "145215.352500", "145216.842500", "145218.332500", "145219.822500", "145221.312500", "145222.802500"],
      "ContentTime": ["144141.860000", "144141.863000", "144141.873000", "144141.876000", "144141.879000", "144141.882000", "144141.885000", "144141.888000", "144141.891000", "144141.894000", "144141.897000", "144201.824000", "144201.827000", "144201.830000", "144201.833000", "144201.836000", "144201.839000", "144201.842000", "144201.845000", "144201.847000", "144201.850000", "144201.853000", "144201.856000", "144201.859000", "144201.862000", "144201.865000", "144201.868000", "144201.871000", "144201.873000", "144201.876000", "144201.879000", "144221.824000", "144221.827000", "144221.830000", "144221.833000", "144221.835000", "144221.838000", "144221.841000", "144221.844000", "144221.847000", "144221.850000", "144221.853000", "144221.856000", "144221.859000", "144221.862000", "144221.865000", "144221.867000", "144221.870000", "144221.873000", "144221.876000", "144221.879000", "144241.823000", "144241.839000", "144241.843000", "144241.846000", "144241.848000", "144241.851000", "144241.854000", "144241.857000", "144241.860000", "144241.863000", "144241.866000", "144241.869000", "144241.872000", "144241.876000", "144241.879000", "144241.882000", "144241.885000", "144241.888000", "144241.890000", "144241.893000", "144301.824000", "144301.831000", "144301.833000", "144301.836000", "144301.839000", "144301.842000", "144301.845000", "144301.848000", "144301.851000", "144301.854000", "144301.857000", "144301.859000", "144301.862000", "144301.865000", "144301.868000", "144301.871000", "144301.874000", "144301.877000", "144301.880000", "144301.883000", "144301.886000", "144321.824000", "144321.827000", "144321.830000", "144321.833000", "144321.836000", "144321.839000", "144321.842000", "144321.844000", "144321.847000", "144321.855000", "144321.858000", "144321.861000", "144321.863000", "144321.866000", "144321.869000", "144321.872000", "144321.875000", "144321.878000", "144321.881000", "144321.884000", "144401.824000", "144401.827000", "144401.830000", "144401.833000", "144401.836000", "144401.839000", "144401.841000", "144401.844000", "144401.847000", "144401.850000", "144401.853000", "144401.856000", "144401.859000", "144401.862000", "144401.865000", "144401.868000", "144401.871000", "144401.873000", "144401.876000", "144401.879000", "144401.882000", "144401.885000", "144401.888000", "144401.891000", "144401.894000", "144401.897000", "144401.900000", "144441.824000", "144441.827000", "144441.830000", "144441.833000", "144441.836000", "144441.839000", "144441.841000", "144441.844000", "144441.847000", "144441.850000", "144441.853000", "144441.856000", "144441.859000", "144441.862000", "144441.865000", "144441.868000", "144441.870000", "144441.873000", "144441.876000", "144441.879000", "144441.882000", "144441.885000", "144441.888000", "144441.891000", "144441.894000", "144441.897000", "144441.899000", "144521.824000", "144521.827000", "144521.830000", "144521.833000", "144521.836000", "144521.839000", "144521.842000", "144521.845000", "144521.847000", "144521.850000", "144521.853000", "144521.856000", "144521.859000", "144521.862000", "144521.865000", "144521.868000", "144521.871000", "144521.874000", "144521.877000", "144521.879000", "144521.882000", "144521.885000", "144521.888000", "144521.891000", "144521.901000", "144521.903000", "144521.906000", "144601.824000", "144601.827000", "144601.830000", "144601.833000", "144601.836000", "144601.839000", "144601.842000", "144601.845000", "144601.848000", "144601.851000", "144601.853000", "144601.856000", "144601.859000", "144601.862000", "144601.865000", "144601.868000", "144601.871000", "144601.874000", "144601.877000", "144601.880000", "144601.882000", "144601.885000", "144601.891000", "144601.893000", "144601.896000", "144601.899000", "144601.902000", "144641.824000", "144641.827000", "144641.830000", "144641.833000", "144641.836000", "144641.839000", "144641.842000", "144641.845000", "144641.848000", "144641.851000", "144641.854000", "144641.857000", "144641.860000", "144641.863000", "144641.865000", "144641.868000", "144641.871000", "144641.874000", "144641.877000", "144641.880000", "144641.883000", "144641.886000", "144641.889000", "144641.892000", "144641.895000", "144641.897000", "144721.823000", "144721.826000", "144721.829000", "144721.832000", "144721.835000", "144721.838000", "144721.841000", "144721.844000", "144721.855000", "144721.858000", "144721.861000", "144721.864000", "144721.867000", "144721.870000", "144721.873000", "144721.876000", "144721.879000", "144721.881000", "144721.884000", "144721.887000", "144721.890000", "144721.893000", "144721.896000", "144721.899000", "144721.902000", "144721.905000", "144721.908000", "144801.824000", "144801.827000", "144801.830000", "144801.833000", "144801.836000", "144801.839000", "144801.842000", "144801.845000", "144801.848000", "144801.851000", "144801.853000", "144801.856000", "144801.859000", "144801.862000", "144801.865000", "144801.868000", "144801.871000", "144801.874000", "144801.877000", "144801.879000", "144801.882000", "144801.885000", "144801.888000", "144801.891000", "144801.894000", "144801.897000", "144801.900000", "144841.824000", "144841.827000", "144841.830000", "144841.833000", "144841.836000", "144841.839000", "144841.842000", "144841.845000", "144841.848000", "144841.851000", "144841.854000", "144841.857000", "144841.860000", "144841.862000", "144841.865000", "144841.868000", "144841.871000", "144841.874000", "144841.877000", "144841.880000", "144841.883000", "144841.886000", "144841.889000", "144841.891000", "144841.894000", "144841.897000", "144841.900000", "144921.824000", "144921.827000", "144921.830000", "144921.833000", "144921.836000", "144921.839000", "144921.842000", "144921.845000", "144921.848000", "144921.851000", "144921.854000", "144921.857000", "144921.859000", "144921.862000", "144921.865000", "144921.868000", "144921.871000", "144921.874000", "144921.877000", "144921.880000", "144921.883000", "144921.886000", "144921.889000", "144921.891000", "144921.894000", "144921.897000", "144921.900000", "145001.824000", "145001.827000", "145001.830000", "145001.833000", "145001.836000", "145001.839000", "145001.842000", "145001.845000", "145001.848000", "145001.851000", "145001.853000", "145001.856000", "145001.859000", "145001.862000", "145001.865000", "145001.868000", "145001.871000", "145001.874000", "145001.877000", "145001.880000", "145001.883000", "145001.886000", "145001.888000", "145001.891000", "145001.894000", "145001.897000", "145001.900000", "145041.824000", "145041.827000", "145041.830000", "145041.833000", "145041.836000", "145041.839000", "145041.842000", "145041.845000", "145041.848000", "145041.851000", "145041.854000", "145041.856000", "145041.859000", "145041.862000", "145041.865000", "145041.868000", "145041.871000", "145041.878000", "145041.881000", "145041.884000", "145041.886000", "145041.889000", "145041.892000", "145041.895000", "145041.898000", "145041.901000", "145041.904000", "145121.824000", "145121.827000", "145121.830000", "145121.833000", "145121.836000", "145121.839000", "145121.842000", "145121.845000", "145121.848000", "145121.850000", "145121.853000", "145121.856000", "145121.859000", "145121.862000", "145121.865000", "145121.868000", "145121.871000", "145121.874000", "145121.877000", "145121.880000", "145121.883000", "145121.886000", "145121.889000", "145121.891000", "145121.894000", "145121.897000", "145141.824000", "145141.827000", "145141.830000", "145141.833000", "145141.836000", "145141.839000", "145141.842000", "145141.845000", "145141.854000", "145141.857000", "145141.860000", "145141.863000", "145141.866000", "145141.869000", "145221.824000", "145221.827000", "145221.830000", "145221.833000", "145221.836000", "145221.839000", "145221.845000", "145221.848000", "145221.851000", "145221.854000", "145221.857000", "145221.859000", "145221.862000", "145221.865000", "145221.868000", "145221.871000", "145221.874000", "145221.877000", "145221.880000", "145221.883000", "145221.886000", "145221.888000", "145221.891000", "145221.894000", "145221.897000", "145221.900000", "145221.903000", "145224.677000", "145224.680000"],
