{
  "AcquisitionMatrixPE": 104,
  "AcquisitionNumber": 1,
  "AcquisitionTime": "14:13:37.635000",
  "BandwidthPerPixelPhaseEncode": 17.17,
  "BaseResolution": 104,
  "BodyPartExamined": "BRAIN",
  "CoilString": "HC1-7;NC1_2",
  "ConsistencyInfo": "N4_VE11C_LATEST_20160120",
  "ConversionSoftware": "dcm2niix",
  "ConversionSoftwareVersion": "v1.0.20190720  (JP2:OpenJPEG) GCC7.3.0",
  "DerivedVendorReportedEchoSpacing": 0.000560011,
  "DeviceSerialNumber": "167006",
  "DwellTime": 2.1e-06,
  "EchoTime": 0.037,
  "EchoTrainLength": 104,
  "EffectiveEchoSpacing": 0.000560011,
  "FlipAngle": 52,
  "ImageComments": "Unaliased_MB4_PE3_LB",
  "ImageOrientationPatientDICOM": [0.998477, -0.0549167, 0.00524916, 0.053027, 0.929144, -0.365896],
  "ImageType": [
    "ORIGINAL",
    "PRIMARY",
    "M",
    "MB",
    "ND",
    "MOSAIC"
],
  "ImagingFrequency": 123.259,
  "InPlanePhaseEncodingDirectionDICOM": "COL",
  "InstitutionAddress": "Chemin_Queen-Mary_4565_Montreal_District_CA_H3W_1W5",
  "InstitutionName": "IUGM",
  "InstitutionalDepartmentName": "Department",
  "MRAcquisitionType": "2D",
  "MagneticFieldStrength": 3,
  "Manufacturer": "Siemens",
  "ManufacturersModelName": "Prisma_fit",
  "Modality": "MR",
  "MultibandAccelerationFactor": 4,
  "PartialFourier": 1,
  "PatientPosition": "HFS",
  "PercentPhaseFOV": 100,
  "PhaseEncodingDirection": "j",
  "PhaseEncodingSteps": 104,
  "PhaseResolution": 1,
  "PixelBandwidth": 2290,
  "ProcedureStepDescription": "video_friends",
  "ProtocolName": "func_task-friends-s01e21b",
  "PulseSequenceDetails": "%CustomerSeq%_cmrr_mbep2d_bold",
  "ReceiveCoilActiveElements": "HC1-7;NC1,2",
  "ReceiveCoilName": "HeadNeck_64",
  "ReconMatrixPE": 104,
  "RepetitionTime": 1.49,
  "SAR": 0.0278155,
  "ScanOptions": "FS",
  "ScanningSequence": "EP",
  "SequenceName": "epfid2d1_104",
  "SequenceVariant": "SK_SS",
  "SeriesDescription": "func_task-friends-s01e21b",
  "SeriesNumber": 19,
  "ShimSetting": [638, -7269, -8838, 566, 36, -264, -92, -8],
  "SliceThickness": 2,
  "SliceTiming": [0, 0.785, 0.0975, 0.8825, 0.195, 0.98, 0.295, 1.0775, 0.3925, 1.175, 0.49, 1.2725, 0.5875, 1.3725, 0.685, 0, 0.785, 0.0975, 0.8825, 0.195, 0.98, 0.295, 1.0775, 0.3925, 1.175, 0.49, 1.2725, 0.5875, 1.3725, 0.685, 0, 0.785, 0.0975, 0.8825, 0.195, 0.98, 0.295, 1.0775, 0.3925, 1.175, 0.49, 1.2725, 0.5875, 1.3725, 0.685, 0, 0.785, 0.0975, 0.8825, 0.195, 0.98, 0.295, 1.0775, 0.3925, 1.175, 0.49, 1.2725, 0.5875, 1.3725, 0.685],
  "SoftwareVersions": "syngo_MR_E11",
  "SpacingBetweenSlices": 2,
  "StationName": "MRC35049",
  "TaskName": "friends",
  "TotalReadoutTime": 0.0576811,
  "TxRefAmp": 220.47,
  "WipMemBlock": "89fb1009-7036-4696-baf2-2158723ea32b||Sequence: R016 ve11c/master r/e634e98; Dec 19 2017 11:00:25 by eja",
  "dcmmeta_affine": [
    [-1.996954321861267, 0.1060539036989212, -0.030433136969804764, 96.9482192993164],
    [0.10983347147703171, 1.8582879304885864, -0.7312336564064026, -76.0931167602539],
    [0.010498329065740108, 0.7317913770675659, 1.8612821102142334, -69.58161163330078],
    [0.0, 0.0, 0.0, 1.0]
],
  "dcmmeta_reorient_transform": [
    [0.0, -1.0, 0.0, 103.0],
    [1.0, 0.0, 0.0, 0.0],
    [0.0, 0.0, 1.0, 0.0],
    [0.0, 0.0, 0.0, 1.0]
],
  "dcmmeta_shape": [104, 104, 60, 477],
  "dcmmeta_slice_dim": 2,
  "dcmmeta_version": 0.6,
  "global": {
    "const": {
      "AcquisitionMatrix": [104, 0, 0, 104],
      "AngioFlag": "N",
      "BitsAllocated": 16,
      "BitsStored": 16,
      "BodyPartExamined": "BRAIN",
      "Columns": 832,
      "EchoNumbers": 1,
      "EchoTime": 37.0,
      "EchoTrainLength": 104,
      "FlipAngle": 52.0,
      "HighBit": 15,
      "ImageOrientationPatient": [0.99847713956567, -0.0549167373099, 0.00524916450398, 0.05302695367972, 0.9291439521815, -0.3658956932078],
      "ImagePositionPatient": [-873.36675151122, -751.74795006074, 268.34357739363],
      "ImageType": [
        "ORIGINAL",
        "PRIMARY",
        "M",
        "MB",
        "ND",
        "MOSAIC"
],
      "ImagedNucleus": "1H",
      "ImagingFrequency": 123.259133,
      "InPlanePhaseEncodingDirection": "COL",
      "MRAcquisitionType": "2D",
      "MagneticFieldStrength": 3.0,
      "Manufacturer": "SIEMENS",
      "ManufacturerModelName": "Prisma_fit",
      "Modality": "MR",
      "NumberOfAverages": 1.0,
      "NumberOfPhaseEncodingSteps": 104,
      "PercentPhaseFieldOfView": 100.0,
      "PercentSampling": 100.0,
      "PerformedProcedureStepStartTime": "131024.208000",
      "PhotometricInterpretation": "MONOCHROME2",
      "PixelBandwidth": 2290.0,
      "PixelRepresentation": 0,
      "PixelSpacing": [2.0, 2.0],
      "ProtocolName": "func_task-friends-s01e21b",
      "RepetitionTime": 1490.0,
      "Rows": 832,
      "SAR": 0.0278154754499,
      "SamplesPerPixel": 1,
      "ScanOptions": "FS",
      "ScanningSequence": "EP",
      "SequenceName": "epfid2d1_104",
      "SequenceVariant": [
        "SK",
        "SS"
],
      "SeriesDescription": "func_task-friends-s01e21b",
      "SeriesNumber": 19,
      "SeriesTime": "141505.588000",
      "SliceLocation": -38.409796877533,
      "SliceThickness": 2.0,
      "SmallestImagePixelValue": 0,
      "SoftwareVersions": "syngo MR E11",
      "SpacingBetweenSlices": 1.9999999835755,
      "SpecificCharacterSet": "ISO_IR 100",
      "StudyID": "1",
      "StudyTime": "131024.118000",
      "TransmitCoilName": "Body",
      "VariableFlipAngleFlag": "N",
      "WindowCenterWidthExplanation": "Algo1",
      "dBdt": 0.0},
    "slices": {}
  },
  "time": {
    "samples": {
      "AcquisitionNumber": [1, 2, 3, 4, 5, 6, 7, 8, 9, 10, 11, 12, 13, 14, 15, 16, 17, 18, 19, 20, 21, 22, 23, 24, 25, 26, 27, 28, 29, 30, 31, 32, 33, 34, 35, 36, 37, 38, 39, 40, 41, 42, 43, 44, 45, 46, 47, 48, 49, 50, 51, 52, 53, 54, 55, 56, 57, 58, 59, 60, 61, 62, 63, 64, 65, 66, 67, 68, 69, 70, 71, 72, 73, 74, 75, 76, 77, 78, 79, 80, 81, 82, 83, 84, 85, 86, 87, 88, 89, 90, 91, 92, 93, 94, 95, 96, 97, 98, 99, 100, 101, 102, 103, 104, 105, 106, 107, 108, 109, 110, 111, 112, 113, 114, 115, 116, 117, 118, 119, 120, 121, 122, 123, 124, 125, 126, 127, 128, 129, 130, 131, 132, 133, 134, 135, 136, 137, 138, 139, 140, 141, 142, 143, 144, 145, 146, 147, 148, 149, 150, 151, 152, 153, 154, 155, 156, 157, 158, 159, 160, 161, 162, 163, 164, 165, 166, 167, 168, 169, 170, 171, 172, 173, 174, 175, 176, 177, 178, 179, 180, 181, 182, 183, 184, 185, 186, 187, 188, 189, 190, 191, 192, 193, 194, 195, 196, 197, 198, 199, 200, 201, 202, 203, 204, 205, 206, 207, 208, 209, 210, 211, 212, 213, 214, 215, 216, 217, 218, 219, 220, 221, 222, 223, 224, 225, 226, 227, 228, 229, 230, 231, 232, 233, 234, 235, 236, 237, 238, 239, 240, 241, 242, 243, 244, 245, 246, 247, 248, 249, 250, 251, 252, 253, 254, 255, 256, 257, 258, 259, 260, 261, 262, 263, 264, 265, 266, 267, 268, 269, 270, 271, 272, 273, 274, 275, 276, 277, 278, 279, 280, 281, 282, 283, 284, 285, 286, 287, 288, 289, 290, 291, 292, 293, 294, 295, 296, 297, 298, 299, 300, 301, 302, 303, 304, 305, 306, 307, 308, 309, 310, 311, 312, 313, 314, 315, 316, 317, 318, 319, 320, 321, 322, 323, 324, 325, 326, 327, 328, 329, 330, 331, 332, 333, 334, 335, 336, 337, 338, 339, 340, 341, 342, 343, 344, 345, 346, 347, 348, 349, 350, 351, 352, 353, 354, 355, 356, 357, 358, 359, 360, 361, 362, 363, 364, 365, 366, 367, 368, 369, 370, 371, 372, 373, 374, 375, 376, 377, 378, 379, 380, 381, 382, 383, 384, 385, 386, 387, 388, 389, 390, 391, 392, 393, 394, 395, 396, 397, 398, 399, 400, 401, 402, 403, 404, 405, 406, 407, 408, 409, 410, 411, 412, 413, 414, 415, 416, 417, 418, 419, 420, 421, 422, 423, 424, 425, 426, 427, 428, 429, 430, 431, 432, 433, 434, 435, 436, 437, 438, 439, 440, 441, 442, 443, 444, 445, 446, 447, 448, 449, 450, 451, 452, 453, 454, 455, 456, 457, 458, 459, 460, 461, 462, 463, 464, 465, 466, 467, 468, 469, 470, 471, 472, 473, 474, 475, 476, 477],
      "AcquisitionTime": ["141337.635000", "141339.125000", "141340.615000", "141342.105000", "141343.595000", "141345.085000", "141346.575000", "141348.065000", "141349.555000", "141351.045000", "141352.535000", "141354.025000", "141355.515000", "141357.005000", "141358.495000", "141359.985000", "141401.475000", "141402.965000", "141404.455000", "141405.945000", "141407.435000", "141408.925000", "141410.415000", "141411.905000", "141413.395000", "141414.885000", "141416.375000", "141417.865000", "141419.355000", "141420.845000", "141422.335000", "141423.825000", "141425.315000", "141426.805000", "141428.295000", "141429.785000", "141431.275000", "141432.765000", "141434.255000", "141435.745000", "141437.235000", "141438.725000", "141440.215000", "141441.705000", "141443.195000", "141444.685000", "141446.175000", "141447.665000", "141449.155000", "141450.645000", "141452.135000", "141453.625000", "141455.115000", "141456.605000", "141458.095000", "141459.585000", "141501.075000", "141502.565000", "141504.055000", "141505.545000", "141507.035000", "141508.525000", "141510.015000", "141511.505000", "141512.995000", "141514.485000", "141515.975000", "141517.465000", "141518.955000", "141520.445000", "141521.935000", "141523.425000", "141524.915000", "141526.405000", "141527.895000", "141529.385000", "141530.875000", "141532.365000", "141533.855000", "141535.345000", "141536.835000", "141538.325000", "141539.815000", "141541.305000", "141542.795000", "141544.285000", "141545.775000", "141547.265000", "141548.755000", "141550.245000", "141551.735000", "141553.225000", "141554.715000", "141556.205000", "141557.695000", "141559.185000", "141600.675000", "141602.165000", "141603.655000", "141605.145000", "141606.635000", "141608.125000", "141609.615000", "141611.105000", "141612.595000", "141614.085000", "141615.575000", "141617.065000", "141618.555000", "141620.045000", "141621.535000", "141623.025000", "141624.515000", "141626.005000", "141627.495000", "141628.985000", "141630.475000", "141631.965000", "141633.455000", "141634.945000", "141636.435000", "141637.925000", "141639.415000", "141640.905000", "141642.395000", "141643.885000", "141645.375000", "141646.865000", "141648.355000", "141649.845000", "141651.335000", "141652.825000", "141654.315000", "141655.805000", "141657.295000", "141658.785000", "141700.275000", "141701.765000", "141703.255000", "141704.745000", "141706.235000", "141707.725000", "141709.215000", "141710.705000", "141712.195000", "141713.685000", "141715.175000", "141716.665000", "141718.155000", "141719.645000", "141721.135000", "141722.625000", "141724.115000", "141725.605000", "141727.095000", "141728.585000", "141730.075000", "141731.565000", "141733.055000", "141734.545000", "141736.035000", "141737.525000", "141739.015000", "141740.505000", "141741.995000", "141743.485000", "141744.975000", "141746.465000", "141747.955000", "141749.445000", "141750.935000", "141752.425000", "141753.915000", "141755.405000", "141756.895000", "141758.385000", "141759.875000", "141801.365000", "141802.855000", "141804.345000", "141805.835000", "141807.325000", "141808.815000", "141810.305000", "141811.795000", "141813.285000", "141814.775000", "141816.265000", "141817.755000", "141819.245000", "141820.735000", "141822.225000", "141823.715000", "141825.205000", "141826.695000", "141828.185000", "141829.675000", "141831.165000", "141832.655000", "141834.145000", "141835.635000", "141837.125000", "141838.615000", "141840.105000", "141841.595000", "141843.085000", "141844.575000", "141846.065000", "141847.555000", "141849.045000", "141850.535000", "141852.025000", "141853.515000", "141855.005000", "141856.495000", "141857.985000", "141859.475000", "141900.965000", "141902.455000", "141903.945000", "141905.435000", "141906.925000", "141908.415000", "141909.905000", "141911.395000", "141912.885000", "141914.375000", "141915.865000", "141917.355000", "141918.845000", "141920.335000", "141921.825000", "141923.315000", "141924.805000", "141926.295000", "141927.785000", "141929.275000", "141930.765000", "141932.255000", "141933.745000", "141935.235000", "141936.725000", "141938.215000", "141939.705000", "141941.195000", "141942.685000", "141944.175000", "141945.665000", "141947.155000", "141948.645000", "141950.135000", "141951.625000", "141953.115000", "141954.605000", "141956.095000", "141957.585000", "141959.075000", "142000.565000", "142002.055000", "142003.545000", "142005.035000", "142006.525000", "142008.015000", "142009.505000", "142010.995000", "142012.485000", "142013.975000", "142015.465000", "142016.955000", "142018.445000", "142019.935000", "142021.425000", "142022.915000", "142024.405000", "142025.895000", "142027.385000", "142028.875000", "142030.365000", "142031.855000", "142033.345000", "142034.835000", "142036.325000", "142037.815000", "142039.305000", "142040.795000", "142042.285000", "142043.775000", "142045.265000", "142046.755000", "142048.245000", "142049.735000", "142051.225000", "142052.715000", "142054.205000", "142055.695000", "142057.185000", "142058.675000", "142100.165000", "142101.655000", "142103.145000", "142104.635000", "142106.125000", "142107.615000", "142109.105000", "142110.595000", "142112.085000", "142113.575000", "142115.065000", "142116.555000", "142118.045000", "142119.535000", "142121.025000", "142122.515000", "142124.005000", "142125.495000", "142126.985000", "142128.475000", "142129.965000", "142131.455000", "142132.945000", "142134.435000", "142135.925000", "142137.415000", "142138.905000", "142140.395000", "142141.885000", "142143.375000", "142144.865000", "142146.355000", "142147.845000", "142149.335000", "142150.825000", "142152.315000", "142153.805000", "142155.295000", "142156.785000", "142158.275000", "142159.765000", "142201.255000", "142202.745000", "142204.235000", "142205.725000", "142207.215000", "142208.705000", "142210.195000", "142211.685000", "142213.175000", "142214.665000", "142216.155000", "142217.645000", "142219.135000", "142220.625000", "142222.115000", "142223.605000", "142225.095000", "142226.585000", "142228.075000", "142229.565000", "142231.055000", "142232.545000", "142234.035000", "142235.525000", "142237.015000", "142238.505000", "142239.995000", "142241.485000", "142242.975000", "142244.465000", "142245.955000", "142247.445000", "142248.935000", "142250.425000", "142251.915000", "142253.405000", "142254.895000", "142256.385000", "142257.875000", "142259.365000", "142300.855000", "142302.345000", "142303.835000", "142305.325000", "142306.815000", "142308.305000", "142309.795000", "142311.285000", "142312.775000", "142314.265000", "142315.755000", "142317.245000", "142318.735000", "142320.225000", "142321.715000", "142323.205000", "142324.695000", "142326.185000", "142327.675000", "142329.165000", "142330.655000", "142332.145000", "142333.635000", "142335.125000", "142336.615000", "142338.105000", "142339.595000", "142341.085000", "142342.575000", "142344.065000", "142345.555000", "142347.045000", "142348.535000", "142350.025000", "142351.515000", "142353.005000", "142354.495000", "142355.985000", "142357.475000", "142358.965000", "142400.455000", "142401.945000", "142403.435000", "142404.925000", "142406.415000", "142407.905000", "142409.395000", "142410.885000", "142412.375000", "142413.865000", "142415.355000", "142416.845000", "142418.335000", "142419.825000", "142421.315000", "142422.805000", "142424.295000", "142425.785000", "142427.275000", "142428.765000", "142430.255000", "142431.745000", "142433.235000", "142434.725000", "142436.215000", "142437.705000", "142439.195000", "142440.685000", "142442.175000", "142443.665000", "142445.155000", "142446.645000", "142448.135000", "142449.625000", "142451.115000", "142452.605000", "142454.095000", "142455.585000", "142457.075000", "142458.565000", "142500.055000", "142501.545000", "142503.035000", "142504.525000", "142506.015000", "142507.505000", "142508.995000", "142510.485000", "142511.975000", "142513.465000", "142514.955000", "142516.445000", "142517.935000", "142519.425000", "142520.915000", "142522.405000", "142523.895000", "142525.385000", "142526.875000"],
      "ContentTime": ["141505.591000", "141505.594000", "141505.597000", "141505.600000", "141505.603000", "141505.606000", "141505.609000", "141505.612000", "141505.614000", "141505.617000", "141505.620000", "141505.623000", "141505.626000", "141505.629000", "141505.632000", "141505.638000", "141505.641000", "141505.644000", "141505.647000", "141505.649000", "141505.652000", "141505.655000", "141505.658000", "141505.661000", "141505.664000", "141505.667000", "141505.670000", "141505.672000", "141505.675000", "141505.678000", "141505.681000", "141505.684000", "141505.687000", "141525.555000", "141525.558000", "141525.561000", "141525.564000", "141525.569000", "141525.572000", "141525.586000", "141525.589000", "141525.591000", "141525.594000", "141525.597000", "141525.600000", "141525.603000", "141525.606000", "141525.609000", "141525.611000", "141525.614000", "141525.617000", "141525.620000", "141525.623000", "141545.555000", "141545.558000", "141545.561000", "141545.564000", "141545.567000", "141545.570000", "141545.573000", "141545.575000", "141545.578000", "141545.581000", "141545.584000", "141545.587000", "141545.590000", "141545.593000", "141545.596000", "141545.598000", "141545.601000", "141545.604000", "141545.607000", "141545.610000", "141605.555000", "141605.558000", "141605.567000", "141605.570000", "141605.573000", "141605.576000", "141605.579000", "141605.582000", "141605.584000", "141605.587000", "141605.590000", "141605.593000", "141605.596000", "141605.599000", "141605.602000", "141605.605000", "141605.608000", "141605.611000", "141605.614000", "141605.617000", "141605.620000", "141645.554000", "141645.557000", "141645.560000", "141645.563000", "141645.566000", "141645.569000", "141645.572000", "141645.574000", "141645.577000", "141645.580000", "141645.583000", "141645.586000", "141645.589000", "141645.592000", "141645.595000", "141645.598000", "141645.600000", "141645.603000", "141645.606000", "141645.609000", "141645.612000", "141645.615000", "141645.618000", "141645.621000", "141645.624000", "141645.627000", "141645.629000", "141645.632000", "141645.635000", "141645.638000", "141645.641000", "141725.554000", "141725.557000", "141725.563000", "141725.565000", "141725.568000", "141725.571000", "141725.574000", "141725.577000", "141725.580000", "141725.583000", "141725.586000", "141725.589000", "141725.591000", "141725.594000", "141725.597000", "141725.600000", "141725.603000", "141725.606000", "141725.609000", "141725.612000", "141725.614000", "141725.617000", "141725.620000", "141725.623000", "141725.626000", "141725.629000", "141725.632000", "141805.555000", "141805.558000", "141805.561000", "141805.564000", "141805.567000", "141805.570000", "141805.578000", "141805.580000", "141805.583000", "141805.586000", "141805.589000", "141805.592000", "141805.595000", "141805.598000", "141805.601000", "141805.604000", "141805.607000", "141805.609000", "141805.612000", "141805.615000", "141805.618000", "141805.621000", "141805.624000", "141805.627000", "141805.630000", "141805.632000", "141805.635000", "141845.555000", "141845.558000", "141845.561000", "141845.564000", "141845.567000", "141845.570000", "141845.573000", "141845.575000", "141845.578000", "141845.581000", "141845.584000", "141845.588000", "141845.591000", "141845.595000", "141845.598000", "141845.601000", "141845.604000", "141845.607000", "141845.610000", "141845.613000", "141845.615000", "141845.618000", "141845.621000", "141845.624000", "141845.627000", "141845.630000", "141925.554000", "141925.557000", "141925.560000", "141925.563000", "141925.566000", "141925.569000", "141925.572000", "141925.575000", "141925.578000", "141925.580000", "141925.583000", "141925.586000", "141925.589000", "141925.592000", "141925.595000", "141925.598000", "141925.601000", "141925.604000", "141925.607000", "141925.609000", "141925.612000", "141925.615000", "141925.618000", "141925.621000", "141925.624000", "141925.627000", "141925.630000", "142005.555000", "142005.558000", "142005.561000", "142005.564000", "142005.567000", "142005.570000", "142005.573000", "142005.576000", "142005.589000", "142005.592000", "142005.595000", "142005.597000", "142005.600000", "142005.603000", "142005.606000", "142005.609000", "142005.612000", "142005.615000", "142005.618000", "142005.621000", "142005.623000", "142005.626000", "142005.629000", "142005.632000", "142005.635000", "142005.638000", "142005.651000", "142045.555000", "142045.558000", "142045.561000", "142045.564000", "142045.567000", "142045.570000", "142045.573000", "142045.575000", "142045.578000", "142045.581000", "142045.584000", "142045.587000", "142045.590000", "142045.593000", "142045.596000", "142045.599000", "142045.601000", "142045.604000", "142045.607000", "142045.610000", "142045.613000", "142045.616000", "142045.619000", "142045.622000", "142045.625000", "142045.627000", "142045.630000", "142125.554000", "142125.557000", "142125.560000", "142125.563000", "142125.566000", "142125.569000", "142125.571000", "142125.574000", "142125.577000", "142125.580000", "142125.583000", "142125.586000", "142125.589000", "142125.593000", "142125.596000", "142125.599000", "142125.602000", "142125.604000", "142125.607000", "142125.610000", "142125.613000", "142125.616000", "142125.619000", "142125.622000", "142125.625000", "142125.628000", "142125.630000", "142205.554000", "142205.557000", "142205.560000", "142205.563000", "142205.566000", "142205.569000", "142205.572000", "142205.574000", "142205.577000", "142205.580000", "142205.583000", "142205.586000", "142205.589000", "142205.592000", "142205.595000", "142205.598000", "142205.601000", "142205.604000", "142205.606000", "142205.609000", "142205.617000", "142205.620000", "142205.623000", "142205.626000", "142205.629000", "142205.631000", "142205.634000", "142245.555000", "142245.558000", "142245.561000", "142245.564000", "142245.567000", "142245.570000", "142245.573000", "142245.575000", "142245.578000", "142245.581000", "142245.584000", "142245.587000", "142245.590000", "142245.593000", "142245.596000", "142245.599000", "142245.601000", "142245.604000", "142245.607000", "142245.610000", "142245.613000", "142245.616000", "142245.619000", "142245.622000", "142245.625000", "142245.627000", "142245.630000", "142325.554000", "142325.557000", "142325.560000", "142325.563000", "142325.566000", "142325.569000", "142325.572000", "142325.574000", "142325.578000", "142325.590000", "142325.593000", "142325.596000", "142325.599000", "142325.602000", "142325.605000", "142325.608000", "142325.611000", "142325.614000", "142325.616000", "142325.619000", "142325.622000", "142325.625000", "142325.628000", "142325.631000", "142325.634000", "142325.637000", "142405.554000", "142405.557000", "142405.560000", "142405.563000", "142405.566000", "142405.569000", "142405.572000", "142405.575000", "142405.578000", "142405.581000", "142405.583000", "142405.586000", "142405.589000", "142405.592000", "142405.595000", "142405.598000", "142405.601000", "142405.604000", "142405.606000", "142405.609000", "142405.612000", "142405.615000", "142405.618000", "142405.621000", "142405.624000", "142405.627000", "142405.630000", "142445.555000", "142445.558000", "142445.561000", "142445.564000", "142445.567000", "142445.570000", "142445.573000", "142445.576000", "142445.578000", "142445.595000", "142445.598000", "142445.601000", "142445.604000", "142445.607000", "142445.610000", "142445.613000", "142445.616000", "142445.619000", "142445.622000", "142445.624000", "142445.627000", "142445.630000", "142445.633000", "142445.636000", "142445.639000", "142445.642000", "142445.645000", "142525.555000", "142525.558000", "142525.561000", "142525.564000", "142525.567000", "142525.570000", "142525.573000", "142525.576000", "142525.578000", "142525.581000", "142525.584000", "142525.587000", "142525.590000", "142525.593000", "142525.596000", "142525.599000", "142525.602000", "142525.605000", "142525.607000", "142525.626000", "142525.629000", "142525.631000", "142525.634000", "142525.637000", "142525.640000", "142525.643000", "142525.646000", "142529.455000", "142529.459000", "142529.462000"],
