{
  "AcquisitionMatrixPE": 104,
  "AcquisitionNumber": 1,
  "AcquisitionTime": "14:44:41.300000",
  "BandwidthPerPixelPhaseEncode": 17.17,
  "BaseResolution": 104,
  "BodyPartExamined": "BRAIN",
  "CoilString": "HC1-7;NC1_2",
  "ConsistencyInfo": "N4_VE11C_LATEST_20160120",
  "ConversionSoftware": "dcm2niix",
  "ConversionSoftwareVersion": "v1.0.20190720  (JP2:OpenJPEG) GCC7.3.0",
  "DerivedVendorReportedEchoSpacing": 0.000560011,
  "DeviceSerialNumber": "167006",
  "DwellTime": 2.1e-06,
  "EchoTime": 0.037,
  "EchoTrainLength": 104,
  "EffectiveEchoSpacing": 0.000560011,
  "FlipAngle": 52,
  "ImageComments": "Unaliased_MB4_PE3_LB",
  "ImageOrientationPatientDICOM": [0.99858, -0.0515924, 0.0132732, 0.0530324, 0.939106, -0.33951],
  "ImageType": [
    "ORIGINAL",
    "PRIMARY",
    "M",
    "MB",
    "ND",
    "MOSAIC"
],
  "ImagingFrequency": 123.259,
  "InPlanePhaseEncodingDirectionDICOM": "COL",
  "InstitutionAddress": "Chemin_Queen-Mary_4565_Montreal_District_CA_H3W_1W5",
  "InstitutionName": "IUGM",
  "InstitutionalDepartmentName": "Department",
  "MRAcquisitionType": "2D",
  "MagneticFieldStrength": 3,
  "Manufacturer": "Siemens",
  "ManufacturersModelName": "Prisma_fit",
  "Modality": "MR",
  "MultibandAccelerationFactor": 4,
  "PartialFourier": 1,
  "PatientPosition": "HFS",
  "PercentPhaseFOV": 100,
  "PhaseEncodingDirection": "j",
  "PhaseEncodingSteps": 104,
  "PhaseResolution": 1,
  "PixelBandwidth": 2290,
  "ProcedureStepDescription": "video_friends",
  "ProtocolName": "func_task-friends-s01e22a",
  "PulseSequenceDetails": "%CustomerSeq%_cmrr_mbep2d_bold",
  "ReceiveCoilActiveElements": "HC1-7;NC1,2",
  "ReceiveCoilName": "HeadNeck_64",
  "ReconMatrixPE": 104,
  "RepetitionTime": 1.49,
  "SAR": 0.0272153,
  "ScanOptions": "FS",
  "ScanningSequence": "EP",
  "SequenceName": "epfid2d1_104",
  "SequenceVariant": "SK_SS",
  "SeriesDescription": "func_task-friends-s01e22a",
  "SeriesNumber": 28,
  "ShimSetting": [635, -7274, -8831, 602, 28, -223, -67, -14],
  "SliceThickness": 2,
  "SliceTiming": [0, 0.7825, 0.0975, 0.88, 0.195, 0.98, 0.2925, 1.0775, 0.3925, 1.175, 0.49, 1.2725, 0.5875, 1.37, 0.685, 0, 0.7825, 0.0975, 0.88, 0.195, 0.98, 0.2925, 1.0775, 0.3925, 1.175, 0.49, 1.2725, 0.5875, 1.37, 0.685, 0, 0.7825, 0.0975, 0.88, 0.195, 0.98, 0.2925, 1.0775, 0.3925, 1.175, 0.49, 1.2725, 0.5875, 1.37, 0.685, 0, 0.7825, 0.0975, 0.88, 0.195, 0.98, 0.2925, 1.0775, 0.3925, 1.175, 0.49, 1.2725, 0.5875, 1.37, 0.685],
  "SoftwareVersions": "syngo_MR_E11",
  "SpacingBetweenSlices": 2,
  "StationName": "MRC35049",
  "TaskName": "friends",
  "TotalReadoutTime": 0.0576811,
  "TxRefAmp": 219.788,
  "WipMemBlock": "9b87c735-1c44-4090-98ea-1e4270e35a74||Sequence: R016 ve11c/master r/e634e98; Dec 19 2017 11:00:25 by eja",
  "dcmmeta_affine": [
    [-1.9971600770950317, 0.1060648187994957, -0.010102233849465847, 96.44245910644531],
    [0.10318471491336823, 1.878212809562683, -0.679462730884552, -78.73883056640625],
    [0.026546472683548927, 0.6790190935134888, 1.8810179233551025, -66.85269927978516],
    [0.0, 0.0, 0.0, 1.0]
],
  "dcmmeta_reorient_transform": [
    [0.0, -1.0, 0.0, 103.0],
    [1.0, 0.0, 0.0, 0.0],
    [0.0, 0.0, 1.0, 0.0],
    [0.0, 0.0, 0.0, 1.0]
],
  "dcmmeta_shape": [104, 104, 60, 474],
  "dcmmeta_slice_dim": 2,
  "dcmmeta_version": 0.6,
  "global": {
    "const": {
      "AcquisitionMatrix": [104, 0, 0, 104],
      "AngioFlag": "N",
      "BitsAllocated": 16,
      "BitsStored": 16,
      "BodyPartExamined": "BRAIN",
      "Columns": 832,
      "EchoNumbers": 1,
      "EchoTime": 37.0,
      "EchoTrainLength": 104,
      "FlipAngle": 52.0,
      "HighBit": 15,
      "ImageOrientationPatient": [0.99858001668393, -0.0515923588099, 0.01327323592595, 0.05303240986252, 0.93910640336204, -0.3395095384059],
      "ImagePositionPatient": [-872.94098098717, -760.82730968591, 240.58629371154],
      "ImageType": [
        "ORIGINAL",
        "PRIMARY",
        "M",
        "MB",
        "ND",
        "MOSAIC"
],
      "ImagedNucleus": "1H",
      "ImagingFrequency": 123.259127,
      "InPlanePhaseEncodingDirection": "COL",
      "MRAcquisitionType": "2D",
      "MagneticFieldStrength": 3.0,
      "Manufacturer": "SIEMENS",
      "ManufacturerModelName": "Prisma_fit",
      "Modality": "MR",
      "NumberOfAverages": 1.0,
      "NumberOfPhaseEncodingSteps": 104,
      "PercentPhaseFieldOfView": 100.0,
      "PercentSampling": 100.0,
      "PerformedProcedureStepStartTime": "131024.208000",
      "PhotometricInterpretation": "MONOCHROME2",
      "PixelBandwidth": 2290.0,
      "PixelRepresentation": 0,
      "PixelSpacing": [2.0, 2.0],
      "ProtocolName": "func_task-friends-s01e22a",
      "RepetitionTime": 1490.0,
      "Rows": 832,
      "SAR": 0.02721526200528,
      "SamplesPerPixel": 1,
      "ScanOptions": "FS",
      "ScanningSequence": "EP",
      "SequenceName": "epfid2d1_104",
      "SequenceVariant": [
        "SK",
        "SS"
],
      "SeriesDescription": "func_task-friends-s01e22a",
      "SeriesNumber": 28,
      "SeriesTime": "144621.805000",
      "SliceLocation": -36.612654114449,
      "SliceThickness": 2.0,
      "SmallestImagePixelValue": 0,
      "SoftwareVersions": "syngo MR E11",
      "SpacingBetweenSlices": 2.0000000271517,
      "SpecificCharacterSet": "ISO_IR 100",
      "StudyID": "1",
      "StudyTime": "131024.118000",
      "TransmitCoilName": "Body",
      "VariableFlipAngleFlag": "N",
      "WindowCenterWidthExplanation": "Algo1",
      "dBdt": 0.0},
    "slices": {}
  },
  "time": {
    "samples": {
      "AcquisitionNumber": [1, 2, 3, 4, 5, 6, 7, 8, 9, 10, 11, 12, 13, 14, 15, 16, 17, 18, 19, 20, 21, 22, 23, 24, 25, 26, 27, 28, 29, 30, 31, 32, 33, 34, 35, 36, 37, 38, 39, 40, 41, 42, 43, 44, 45, 46, 47, 48, 49, 50, 51, 52, 53, 54, 55, 56, 57, 58, 59, 60, 61, 62, 63, 64, 65, 66, 67, 68, 69, 70, 71, 72, 73, 74, 75, 76, 77, 78, 79, 80, 81, 82, 83, 84, 85, 86, 87, 88, 89, 90, 91, 92, 93, 94, 95, 96, 97, 98, 99, 100, 101, 102, 103, 104, 105, 106, 107, 108, 109, 110, 111, 112, 113, 114, 115, 116, 117, 118, 119, 120, 121, 122, 123, 124, 125, 126, 127, 128, 129, 130, 131, 132, 133, 134, 135, 136, 137, 138, 139, 140, 141, 142, 143, 144, 145, 146, 147, 148, 149, 150, 151, 152, 153, 154, 155, 156, 157, 158, 159, 160, 161, 162, 163, 164, 165, 166, 167, 168, 169, 170, 171, 172, 173, 174, 175, 176, 177, 178, 179, 180, 181, 182, 183, 184, 185, 186, 187, 188, 189, 190, 191, 192, 193, 194, 195, 196, 197, 198, 199, 200, 201, 202, 203, 204, 205, 206, 207, 208, 209, 210, 211, 212, 213, 214, 215, 216, 217, 218, 219, 220, 221, 222, 223, 224, 225, 226, 227, 228, 229, 230, 231, 232, 233, 234, 235, 236, 237, 238, 239, 240, 241, 242, 243, 244, 245, 246, 247, 248, 249, 250, 251, 252, 253, 254, 255, 256, 257, 258, 259, 260, 261, 262, 263, 264, 265, 266, 267, 268, 269, 270, 271, 272, 273, 274, 275, 276, 277, 278, 279, 280, 281, 282, 283, 284, 285, 286, 287, 288, 289, 290, 291, 292, 293, 294, 295, 296, 297, 298, 299, 300, 301, 302, 303, 304, 305, 306, 307, 308, 309, 310, 311, 312, 313, 314, 315, 316, 317, 318, 319, 320, 321, 322, 323, 324, 325, 326, 327, 328, 329, 330, 331, 332, 333, 334, 335, 336, 337, 338, 339, 340, 341, 342, 343, 344, 345, 346, 347, 348, 349, 350, 351, 352, 353, 354, 355, 356, 357, 358, 359, 360, 361, 362, 363, 364, 365, 366, 367, 368, 369, 370, 371, 372, 373, 374, 375, 376, 377, 378, 379, 380, 381, 382, 383, 384, 385, 386, 387, 388, 389, 390, 391, 392, 393, 394, 395, 396, 397, 398, 399, 400, 401, 402, 403, 404, 405, 406, 407, 408, 409, 410, 411, 412, 413, 414, 415, 416, 417, 418, 419, 420, 421, 422, 423, 424, 425, 426, 427, 428, 429, 430, 431, 432, 433, 434, 435, 436, 437, 438, 439, 440, 441, 442, 443, 444, 445, 446, 447, 448, 449, 450, 451, 452, 453, 454, 455, 456, 457, 458, 459, 460, 461, 462, 463, 464, 465, 466, 467, 468, 469, 470, 471, 472, 473, 474],
      "AcquisitionTime": ["144441.300000", "144442.790000", "144444.280000", "144445.770000", "144447.260000", "144448.750000", "144450.240000", "144451.730000", "144453.220000", "144454.710000", "144456.200000", "144457.690000", "144459.180000", "144500.670000", "144502.160000", "144503.650000", "144505.140000", "144506.630000", "144508.120000", "144509.610000", "144511.100000", "144512.590000", "144514.080000", "144515.570000", "144517.060000", "144518.550000", "144520.040000", "144521.530000", "144523.020000", "144524.510000", "144526.000000", "144527.490000", "144528.980000", "144530.470000", "144531.960000", "144533.450000", "144534.940000", "144536.430000", "144537.920000", "144539.410000", "144540.900000", "144542.390000", "144543.880000", "144545.370000", "144546.860000", "144548.350000", "144549.840000", "144551.330000", "144552.820000", "144554.310000", "144555.800000", "144557.290000", "144558.780000", "144600.270000", "144601.760000", "144603.250000", "144604.740000", "144606.230000", "144607.720000", "144609.210000", "144610.700000", "144612.190000", "144613.680000", "144615.170000", "144616.660000", "144618.150000", "144619.640000", "144621.130000", "144622.620000", "144624.110000", "144625.600000", "144627.090000", "144628.580000", "144630.070000", "144631.560000", "144633.050000", "144634.540000", "144636.030000", "144637.520000", "144639.010000", "144640.500000", "144641.990000", "144643.480000", "144644.970000", "144646.460000", "144647.950000", "144649.440000", "144650.930000", "144652.420000", "144653.910000", "144655.400000", "144656.890000", "144658.380000", "144659.870000", "144701.360000", "144702.850000", "144704.340000", "144705.830000", "144707.320000", "144708.810000", "144710.300000", "144711.790000", "144713.280000", "144714.770000", "144716.260000", "144717.750000", "144719.240000", "144720.730000", "144722.220000", "144723.710000", "144725.200000", "144726.690000", "144728.180000", "144729.670000", "144731.160000", "144732.650000", "144734.140000", "144735.630000", "144737.120000", "144738.610000", "144740.100000", "144741.590000", "144743.080000", "144744.570000", "144746.060000", "144747.550000", "144749.040000", "144750.530000", "144752.020000", "144753.510000", "144755.000000", "144756.490000", "144757.980000", "144759.470000", "144800.960000", "144802.450000", "144803.940000", "144805.430000", "144806.920000", "144808.410000", "144809.900000", "144811.390000", "144812.880000", "144814.370000", "144815.860000", "144817.350000", "144818.840000", "144820.330000", "144821.820000", "144823.310000", "144824.800000", "144826.290000", "144827.780000", "144829.270000", "144830.760000", "144832.250000", "144833.740000", "144835.230000", "144836.720000", "144838.210000", "144839.700000", "144841.190000", "144842.680000", "144844.170000", "144845.660000", "144847.150000", "144848.640000", "144850.130000", "144851.620000", "144853.110000", "144854.600000", "144856.090000", "144857.580000", "144859.070000", "144900.560000", "144902.050000", "144903.540000", "144905.030000", "144906.520000", "144908.010000", "144909.500000", "144910.990000", "144912.480000", "144913.970000", "144915.460000", "144916.950000", "144918.440000", "144919.930000", "144921.420000", "144922.910000", "144924.400000", "144925.890000", "144927.380000", "144928.870000", "144930.360000", "144931.850000", "144933.340000", "144934.830000", "144936.320000", "144937.810000", "144939.300000", "144940.790000", "144942.280000", "144943.770000", "144945.260000", "144946.750000", "144948.240000", "144949.730000", "144951.220000", "144952.710000", "144954.200000", "144955.690000", "144957.180000", "144958.670000", "145000.160000", "145001.650000", "145003.140000", "145004.630000", "145006.120000", "145007.610000", "145009.100000", "145010.590000", "145012.080000", "145013.570000", "145015.060000", "145016.550000", "145018.040000", "145019.530000", "145021.020000", "145022.510000", "145024.000000", "145025.490000", "145026.980000", "145028.470000", "145029.960000", "145031.450000", "145032.940000", "145034.430000", "145035.920000", "145037.410000", "145038.900000", "145040.390000", "145041.880000", "145043.370000", "145044.860000", "145046.350000", "145047.840000", "145049.330000", "145050.820000", "145052.310000", "145053.800000", "145055.290000", "145056.780000", "145058.270000", "145059.760000", "145101.250000", "145102.740000", "145104.230000", "145105.720000", "145107.210000", "145108.700000", "145110.190000", "145111.680000", "145113.170000", "145114.660000", "145116.150000", "145117.640000", "145119.130000", "145120.620000", "145122.110000", "145123.600000", "145125.090000", "145126.580000", "145128.070000", "145129.560000", "145131.050000", "145132.540000", "145134.030000", "145135.520000", "145137.010000", "145138.500000", "145139.990000", "145141.480000", "145142.970000", "145144.460000", "145145.950000", "145147.440000", "145148.930000", "145150.420000", "145151.910000", "145153.400000", "145154.890000", "145156.380000", "145157.870000", "145159.360000", "145200.850000", "145202.340000", "145203.830000", "145205.320000", "145206.810000", "145208.300000", "145209.790000", "145211.280000", "145212.770000", "145214.260000", "145215.750000", "145217.240000", "145218.730000", "145220.220000", "145221.710000", "145223.200000", "145224.690000", "145226.180000", "145227.670000", "145229.160000", "145230.650000", "145232.140000", "145233.630000", "145235.120000", "145236.610000", "145238.100000", "145239.590000", "145241.080000", "145242.570000", "145244.060000", "145245.550000", "145247.040000", "145248.530000", "145250.020000", "145251.510000", "145253.000000", "145254.490000", "145255.980000", "145257.470000", "145258.960000", "145300.450000", "145301.940000", "145303.430000", "145304.920000", "145306.410000", "145307.900000", "145309.390000", "145310.880000", "145312.370000", "145313.860000", "145315.350000", "145316.840000", "145318.330000", "145319.820000", "145321.310000", "145322.800000", "145324.290000", "145325.780000", "145327.270000", "145328.760000", "145330.250000", "145331.740000", "145333.230000", "145334.720000", "145336.210000", "145337.700000", "145339.190000", "145340.680000", "145342.170000", "145343.660000", "145345.150000", "145346.640000", "145348.130000", "145349.620000", "145351.110000", "145352.600000", "145354.090000", "145355.580000", "145357.070000", "145358.560000", "145400.050000", "145401.540000", "145403.030000", "145404.520000", "145406.010000", "145407.500000", "145408.990000", "145410.480000", "145411.970000", "145413.460000", "145414.950000", "145416.440000", "145417.930000", "145419.420000", "145420.910000", "145422.400000", "145423.890000", "145425.380000", "145426.870000", "145428.360000", "145429.850000", "145431.340000", "145432.830000", "145434.320000", "145435.810000", "145437.300000", "145438.790000", "145440.280000", "145441.770000", "145443.260000", "145444.750000", "145446.240000", "145447.730000", "145449.220000", "145450.710000", "145452.200000", "145453.690000", "145455.180000", "145456.670000", "145458.160000", "145459.650000", "145501.140000", "145502.630000", "145504.120000", "145505.610000", "145507.100000", "145508.590000", "145510.080000", "145511.570000", "145513.060000", "145514.550000", "145516.040000", "145517.530000", "145519.020000", "145520.510000", "145522.000000", "145523.490000", "145524.980000", "145526.470000", "145527.960000", "145529.450000", "145530.940000", "145532.430000", "145533.920000", "145535.410000", "145536.900000", "145538.390000", "145539.880000", "145541.370000", "145542.860000", "145544.350000", "145545.840000", "145547.330000", "145548.820000", "145550.310000", "145551.800000", "145553.290000", "145554.780000", "145556.270000", "145557.760000", "145559.250000", "145600.740000", "145602.230000", "145603.720000", "145605.210000", "145606.700000", "145608.190000", "145609.680000", "145611.170000", "145612.660000", "145614.150000", "145615.640000", "145617.130000", "145618.620000", "145620.110000", "145621.600000", "145623.090000", "145624.580000", "145626.070000"],
      "ContentTime": ["144621.808000", "144621.812000", "144621.815000", "144621.818000", "144621.821000", "144621.824000", "144621.827000", "144621.830000", "144621.833000", "144621.836000", "144621.839000", "144621.842000", "144621.845000", "144621.848000", "144621.851000", "144621.862000", "144621.865000", "144621.868000", "144621.871000", "144621.874000", "144621.877000", "144621.881000", "144641.767000", "144641.770000", "144641.773000", "144641.777000", "144641.780000", "144641.783000", "144641.786000", "144641.789000", "144641.793000", "144641.796000", "144641.800000", "144641.803000", "144641.806000", "144641.809000", "144641.813000", "144641.816000", "144641.819000", "144641.823000", "144641.826000", "144641.830000", "144701.767000", "144701.771000", "144701.773000", "144701.776000", "144701.779000", "144701.782000", "144701.798000", "144701.801000", "144701.804000", "144701.807000", "144701.835000", "144701.838000", "144701.841000", "144701.844000", "144701.847000", "144701.850000", "144701.853000", "144701.856000", "144701.858000", "144701.861000", "144721.767000", "144721.770000", "144721.773000", "144721.776000", "144721.779000", "144721.782000", "144721.784000", "144721.787000", "144721.790000", "144721.793000", "144721.796000", "144721.799000", "144721.801000", "144721.804000", "144721.807000", "144721.810000", "144721.813000", "144721.816000", "144721.819000", "144721.822000", "144741.767000", "144741.770000", "144741.773000", "144741.776000", "144741.779000", "144741.781000", "144741.784000", "144741.787000", "144741.790000", "144741.793000", "144741.796000", "144741.799000", "144741.801000", "144741.804000", "144741.807000", "144741.810000", "144741.813000", "144741.816000", "144741.819000", "144741.821000", "144801.767000", "144801.770000", "144801.773000", "144801.776000", "144801.779000", "144801.781000", "144801.784000", "144801.787000", "144801.790000", "144801.793000", "144801.796000", "144801.799000", "144801.802000", "144801.804000", "144801.807000", "144801.810000", "144801.813000", "144801.816000", "144801.819000", "144801.822000", "144801.824000", "144821.768000", "144821.771000", "144821.774000", "144821.777000", "144821.780000", "144821.782000", "144821.785000", "144821.789000", "144821.792000", "144821.794000", "144821.797000", "144821.800000", "144821.803000", "144821.806000", "144821.809000", "144821.812000", "144821.815000", "144821.818000", "144821.820000", "144821.823000", "144901.767000", "144901.770000", "144901.773000", "144901.776000", "144901.779000", "144901.782000", "144901.785000", "144901.787000", "144901.790000", "144901.793000", "144901.796000", "144901.799000", "144901.802000", "144901.805000", "144901.808000", "144901.810000", "144901.813000", "144901.816000", "144901.819000", "144901.822000", "144901.825000", "144901.828000", "144901.831000", "144901.833000", "144901.836000", "144901.839000", "144901.842000", "144901.845000", "144901.848000", "144901.851000", "144901.854000", "144921.767000", "144921.770000", "144921.773000", "144921.776000", "144921.779000", "144921.782000", "144921.785000", "144921.788000", "144921.791000", "144921.793000", "144921.796000", "144921.799000", "144921.802000", "145001.767000", "145001.770000", "145001.773000", "145001.776000", "145001.779000", "145001.782000", "145001.784000", "145001.787000", "145001.790000", "145001.793000", "145001.796000", "145001.799000", "145001.802000", "145001.805000", "145001.808000", "145001.811000", "145001.813000", "145001.816000", "145001.819000", "145001.822000", "145001.825000", "145001.828000", "145001.831000", "145001.834000", "145001.837000", "145001.839000", "145001.842000", "145041.768000", "145041.771000", "145041.774000", "145041.777000", "145041.780000", "145041.783000", "145041.785000", "145041.788000", "145041.791000", "145041.794000", "145041.797000", "145041.800000", "145041.803000", "145041.806000", "145041.809000", "145041.811000", "145041.814000", "145041.817000", "145041.820000", "145041.823000", "145041.826000", "145041.829000", "145041.832000", "145041.834000", "145041.837000", "145041.840000", "145041.844000", "145121.767000", "145121.770000", "145121.773000", "145121.776000", "145121.779000", "145121.782000", "145121.785000", "145121.787000", "145121.790000", "145121.793000", "145121.796000", "145121.799000", "145121.802000", "145121.805000", "145121.808000", "145121.811000", "145121.813000", "145121.816000", "145121.819000", "145121.822000", "145121.825000", "145121.828000", "145121.831000", "145121.833000", "145121.836000", "145121.839000", "145121.842000", "145201.767000", "145201.770000", "145201.773000", "145201.776000", "145201.779000", "145201.782000", "145201.784000", "145201.787000", "145201.790000", "145201.793000", "145201.796000", "145201.799000", "145201.802000", "145201.805000", "145201.808000", "145201.810000", "145201.813000", "145201.816000", "145201.819000", "145201.822000", "145201.825000", "145201.828000", "145201.831000", "145201.834000", "145201.836000", "145201.839000", "145201.842000", "145241.767000", "145241.770000", "145241.773000", "145241.776000", "145241.779000", "145241.782000", "145241.784000", "145241.787000", "145241.790000", "145241.793000", "145241.796000", "145241.799000", "145241.802000", "145241.805000", "145241.808000", "145241.811000", "145241.813000", "145241.816000", "145241.819000", "145241.822000", "145241.825000", "145241.828000", "145241.831000", "145241.834000", "145241.836000", "145241.839000", "145241.842000", "145321.768000", "145321.771000", "145321.774000", "145321.777000", "145321.780000", "145321.783000", "145321.786000", "145321.788000", "145321.791000", "145321.794000", "145321.797000", "145321.800000", "145321.803000", "145321.806000", "145321.809000", "145321.812000", "145321.814000", "145321.817000", "145321.820000", "145321.823000", "145321.826000", "145321.829000", "145321.832000", "145321.835000", "145321.838000", "145321.841000", "145401.767000", "145401.770000", "145401.773000", "145401.776000", "145401.779000", "145401.782000", "145401.784000", "145401.787000", "145401.790000", "145401.793000", "145401.796000", "145401.799000", "145401.802000", "145401.805000", "145401.808000", "145401.811000", "145401.813000", "145401.816000", "145401.819000", "145401.822000", "145401.825000", "145401.828000", "145401.831000", "145401.834000", "145401.836000", "145401.839000", "145401.842000", "145441.767000", "145441.770000", "145441.773000", "145441.776000", "145441.779000", "145441.782000", "145441.785000", "145441.788000", "145441.791000", "145441.794000", "145441.797000", "145441.799000", "145441.802000", "145441.805000", "145441.808000", "145441.811000", "145441.814000", "145441.817000", "145441.820000", "145441.823000", "145441.826000", "145441.829000", "145441.831000", "145441.834000", "145441.837000", "145441.840000", "145441.843000", "145521.768000", "145521.771000", "145521.774000", "145521.777000", "145521.780000", "145521.783000", "145521.786000", "145521.789000", "145521.791000", "145521.794000", "145521.797000", "145521.800000", "145521.803000", "145521.806000", "145521.809000", "145521.812000", "145521.815000", "145521.817000", "145521.820000", "145521.823000", "145521.826000", "145521.829000", "145521.832000", "145521.835000", "145521.838000", "145521.841000", "145521.844000", "145601.781000", "145601.785000", "145601.787000", "145601.790000", "145601.793000", "145601.796000", "145601.799000", "145601.802000", "145601.805000", "145601.808000", "145601.811000", "145601.813000", "145601.816000", "145601.819000", "145601.822000", "145601.825000", "145601.828000", "145601.831000", "145601.834000", "145601.837000", "145601.840000", "145601.842000", "145601.845000", "145601.848000", "145601.851000", "145601.854000", "145601.857000", "145628.129000", "145628.133000", "145628.136000", "145628.139000", "145628.141000", "145628.144000", "145628.147000", "145628.150000", "145628.153000", "145628.156000", "145628.160000", "145628.163000", "145628.166000", "145628.169000", "145628.172000", "145628.175000", "145628.178000", "145628.181000"],
