{
  "AcquisitionMatrixPE": 104,
  "AcquisitionNumber": 1,
  "AcquisitionTime": "14:29:34.925000",
  "BandwidthPerPixelPhaseEncode": 17.17,
  "BaseResolution": 104,
  "BodyPartExamined": "BRAIN",
  "CoilCombinationMethod": "Sum of Squares",
  "ConsistencyInfo": "N4_VE11C_LATEST_20160120",
  "ConversionSoftware": "dcm2niix",
  "ConversionSoftwareVersion": "v1.0.20230411",
  "DerivedVendorReportedEchoSpacing": 0.000560011,
  "DeviceSerialNumber": "167006",
  "DwellTime": 2.1e-06,
  "EchoTime": 0.037,
  "EchoTrainLength": 104,
  "EffectiveEchoSpacing": 0.000560011,
  "FlipAngle": 52,
  "HeudiconvVersion": "0.5.3.post861+ge7d3c7f",
  "ImageComments": "Unaliased MB4/PE3/LB",
  "ImageOrientationPatientDICOM": [0.999765, 0.0110054, -0.0186748, -0.0151819, 0.970437, -0.240875],
  "ImageOrientationText": "Tra>Cor(-14.0)>Sag(-0.9)",
  "ImageType": [
    "ORIGINAL",
    "PRIMARY",
    "M",
    "MB",
    "ND",
    "MOSAIC"
],
  "ImagingFrequency": 123.249791,
  "InPlanePhaseEncodingDirectionDICOM": "COL",
  "InstitutionAddress": "Chemin Queen-Mary 4565,Montreal,District,CA,H3W 1W5",
  "InstitutionName": "IUGM",
  "InstitutionalDepartmentName": "Department",
  "MRAcquisitionType": "2D",
  "MagneticFieldStrength": 3,
  "Manufacturer": "Siemens",
  "ManufacturersModelName": "Prisma_fit",
  "MatrixCoilMode": "SENSE",
  "Modality": "MR",
  "MultibandAccelerationFactor": 4,
  "NonlinearGradientCorrection": false,
  "PartialFourier": 1,
  "PatientPosition": "HFS",
  "PercentPhaseFOV": 100,
  "PercentSampling": 100,
  "PhaseEncodingDirection": "j",
  "PhaseEncodingSteps": 104,
  "PhaseResolution": 1,
  "PixelBandwidth": 2290,
  "ProcedureStepDescription": "video^friends",
  "ProtocolName": "func_task-friends-s07e02a",
  "PulseSequenceDetails": "%CustomerSeq%\\cmrr_mbep2d_bold",
  "ReceiveCoilActiveElements": "HC1-7;NC1,2",
  "ReceiveCoilName": "HeadNeck_64",
  "ReconMatrixPE": 104,
  "RepetitionTime": 1.49,
  "SAR": 0.05285,
  "ScanOptions": "FS",
  "ScanningSequence": "EP",
  "SequenceName": "epfid2d1_104",
  "SequenceVariant": "SK\\SS",
  "SeriesDescription": "func_task-friends-s07e02a",
  "SeriesNumber": 14,
  "ShimSetting": [605, -7248, -8746, 673, 76, -23, 26, 25],
  "SliceThickness": 2,
  "SliceTiming": [0, 0.7825, 0.0975, 0.88, 0.195, 0.98, 0.2925, 1.0775, 0.39, 1.175, 0.49, 1.2725, 0.5875, 1.37, 0.685, 0, 0.7825, 0.0975, 0.88, 0.195, 0.98, 0.2925, 1.0775, 0.39, 1.175, 0.49, 1.2725, 0.5875, 1.37, 0.685, 0, 0.7825, 0.0975, 0.88, 0.195, 0.98, 0.2925, 1.0775, 0.39, 1.175, 0.49, 1.2725, 0.5875, 1.37, 0.685, 0, 0.7825, 0.0975, 0.88, 0.195, 0.98, 0.2925, 1.0775, 0.39, 1.175, 0.49, 1.2725, 0.5875, 1.37, 0.685],
  "SoftwareVersions": "syngo MR E11",
  "SpacingBetweenSlices": 2,
  "StationName": "MRC35049",
  "TaskName": "s07e02a",
  "TotalReadoutTime": 0.0576811,
  "TxRefAmp": 220.86,
  "WipMemBlock": "01ef6cb4-a9fc-4c62-a3b5-ea14fb20d03c||Sequence: R017 ve11c/master r/75a17815+; Jun 28 2022 16:32:11 by eja",
  "dcmmeta_affine": [
    [-1.9995300769805908, -0.030363894999027252, -0.03094353899359703, 107.43695831298828],
    [-0.022010885179042816, 1.9408748149871826, -0.48220381140708923, -75.61503601074219],
    [-0.03734955936670303, 0.4817499816417694, 1.9407529830932617, -43.8792839050293],
    [0.0, 0.0, 0.0, 1.0]
],
  "dcmmeta_reorient_transform": [
    [0.0, -1.0, 0.0, 103.0],
    [1.0, 0.0, 0.0, 0.0],
    [0.0, 0.0, 1.0, 0.0],
    [0.0, 0.0, 0.0, 1.0]
],
  "dcmmeta_shape": [104, 104, 60, 492],
  "dcmmeta_slice_dim": 2,
  "dcmmeta_version": 0.6,
  "global": {
    "const": {
      "AcquisitionMatrix": [104, 0, 0, 104],
      "AngioFlag": "N",
      "BitsAllocated": 16,
      "BitsStored": 16,
      "BodyPartExamined": "BRAIN",
      "Columns": 832,
      "EchoNumbers": 1,
      "EchoTime": 37.0,
      "EchoTrainLength": 104,
      "FlipAngle": 52.0,
      "HighBit": 15,
      "ImageOrientationPatient": [0.99976503880194, 0.01100544280772, -0.0186747802652, -0.0151819478943, 0.9704374015731, -0.2408749843512],
      "ImagePositionPatient": [-821.08596627947, -838.7854583504, 194.69319163645],
      "ImageType": [
        "ORIGINAL",
        "PRIMARY",
        "M",
        "MB",
        "ND",
        "MOSAIC"
],
      "ImagedNucleus": "1H",
      "ImagingFrequency": 123.249791,
      "InPlanePhaseEncodingDirection": "COL",
      "MRAcquisitionType": "2D",
      "MagneticFieldStrength": 3.0,
      "Manufacturer": "SIEMENS",
      "ManufacturerModelName": "Prisma_fit",
      "Modality": "MR",
      "NumberOfAverages": 1.0,
      "NumberOfPhaseEncodingSteps": 104,
      "PercentPhaseFieldOfView": 100.0,
      "PercentSampling": 100.0,
      "PerformedProcedureStepStartTime": "133652.447000",
      "PhotometricInterpretation": "MONOCHROME2",
      "PixelBandwidth": 2290.0,
      "PixelRepresentation": 0,
      "PixelSpacing": [2.0, 2.0],
      "ProtocolName": "func_task-friends-s07e02a",
      "RepetitionTime": 1490.0,
      "Rows": 832,
      "SAR": 0.05284996110134,
      "SamplesPerPixel": 1,
      "ScanOptions": "FS",
      "ScanningSequence": "EP",
      "SequenceName": "epfid2d1_104",
      "SequenceVariant": [
        "SK",
        "SS"
],
      "SeriesDescription": "func_task-friends-s07e02a",
      "SeriesNumber": 14,
      "SeriesTime": "143059.166000",
      "SliceLocation": -26.010734664131,
      "SliceThickness": 2.0,
      "SmallestImagePixelValue": 0,
      "SoftwareVersions": "syngo MR E11",
      "SpacingBetweenSlices": 2.0000000232783,
      "SpecificCharacterSet": "ISO_IR 100",
      "StudyID": "1",
      "StudyTime": "133652.280000",
      "TransmitCoilName": "Body",
      "VariableFlipAngleFlag": "N",
      "WindowCenterWidthExplanation": "Algo1",
      "dBdt": 0.0},
    "slices": {}
  },
  "time": {
    "samples": {
      "AcquisitionNumber": [1, 2, 3, 4, 5, 6, 7, 8, 9, 10, 11, 12, 13, 14, 15, 16, 17, 18, 19, 20, 21, 22, 23, 24, 25, 26, 27, 28, 29, 30, 31, 32, 33, 34, 35, 36, 37, 38, 39, 40, 41, 42, 43, 44, 45, 46, 47, 48, 49, 50, 51, 52, 53, 54, 55, 56, 57, 58, 59, 60, 61, 62, 63, 64, 65, 66, 67, 68, 69, 70, 71, 72, 73, 74, 75, 76, 77, 78, 79, 80, 81, 82, 83, 84, 85, 86, 87, 88, 89, 90, 91, 92, 93, 94, 95, 96, 97, 98, 99, 100, 101, 102, 103, 104, 105, 106, 107, 108, 109, 110, 111, 112, 113, 114, 115, 116, 117, 118, 119, 120, 121, 122, 123, 124, 125, 126, 127, 128, 129, 130, 131, 132, 133, 134, 135, 136, 137, 138, 139, 140, 141, 142, 143, 144, 145, 146, 147, 148, 149, 150, 151, 152, 153, 154, 155, 156, 157, 158, 159, 160, 161, 162, 163, 164, 165, 166, 167, 168, 169, 170, 171, 172, 173, 174, 175, 176, 177, 178, 179, 180, 181, 182, 183, 184, 185, 186, 187, 188, 189, 190, 191, 192, 193, 194, 195, 196, 197, 198, 199, 200, 201, 202, 203, 204, 205, 206, 207, 208, 209, 210, 211, 212, 213, 214, 215, 216, 217, 218, 219, 220, 221, 222, 223, 224, 225, 226, 227, 228, 229, 230, 231, 232, 233, 234, 235, 236, 237, 238, 239, 240, 241, 242, 243, 244, 245, 246, 247, 248, 249, 250, 251, 252, 253, 254, 255, 256, 257, 258, 259, 260, 261, 262, 263, 264, 265, 266, 267, 268, 269, 270, 271, 272, 273, 274, 275, 276, 277, 278, 279, 280, 281, 282, 283, 284, 285, 286, 287, 288, 289, 290, 291, 292, 293, 294, 295, 296, 297, 298, 299, 300, 301, 302, 303, 304, 305, 306, 307, 308, 309, 310, 311, 312, 313, 314, 315, 316, 317, 318, 319, 320, 321, 322, 323, 324, 325, 326, 327, 328, 329, 330, 331, 332, 333, 334, 335, 336, 337, 338, 339, 340, 341, 342, 343, 344, 345, 346, 347, 348, 349, 350, 351, 352, 353, 354, 355, 356, 357, 358, 359, 360, 361, 362, 363, 364, 365, 366, 367, 368, 369, 370, 371, 372, 373, 374, 375, 376, 377, 378, 379, 380, 381, 382, 383, 384, 385, 386, 387, 388, 389, 390, 391, 392, 393, 394, 395, 396, 397, 398, 399, 400, 401, 402, 403, 404, 405, 406, 407, 408, 409, 410, 411, 412, 413, 414, 415, 416, 417, 418, 419, 420, 421, 422, 423, 424, 425, 426, 427, 428, 429, 430, 431, 432, 433, 434, 435, 436, 437, 438, 439, 440, 441, 442, 443, 444, 445, 446, 447, 448, 449, 450, 451, 452, 453, 454, 455, 456, 457, 458, 459, 460, 461, 462, 463, 464, 465, 466, 467, 468, 469, 470, 471, 472, 473, 474, 475, 476, 477, 478, 479, 480, 481, 482, 483, 484, 485, 486, 487, 488, 489, 490, 491, 492],
      "AcquisitionTime": ["142934.925000", "142936.415000", "142937.905000", "142939.395000", "142940.885000", "142942.375000", "142943.865000", "142945.355000", "142946.845000", "142948.335000", "142949.825000", "142951.315000", "142952.805000", "142954.295000", "142955.785000", "142957.275000", "142958.765000", "143000.255000", "143001.745000", "143003.235000", "143004.725000", "143006.215000", "143007.705000", "143009.195000", "143010.685000", "143012.175000", "143013.665000", "143015.155000", "143016.645000", "143018.135000", "143019.625000", "143021.115000", "143022.605000", "143024.095000", "143025.585000", "143027.075000", "143028.565000", "143030.055000", "143031.545000", "143033.035000", "143034.525000", "143036.015000", "143037.505000", "143038.995000", "143040.485000", "143041.975000", "143043.465000", "143044.955000", "143046.445000", "143047.935000", "143049.425000", "143050.915000", "143052.405000", "143053.895000", "143055.385000", "143056.875000", "143058.365000", "143059.855000", "143101.345000", "143102.835000", "143104.325000", "143105.815000", "143107.305000", "143108.795000", "143110.285000", "143111.775000", "143113.265000", "143114.755000", "143116.245000", "143117.735000", "143119.225000", "143120.715000", "143122.205000", "143123.695000", "143125.185000", "143126.675000", "143128.165000", "143129.655000", "143131.145000", "143132.635000", "143134.125000", "143135.615000", "143137.105000", "143138.595000", "143140.085000", "143141.575000", "143143.065000", "143144.555000", "143146.045000", "143147.535000", "143149.025000", "143150.515000", "143152.005000", "143153.495000", "143154.985000", "143156.475000", "143157.965000", "143159.455000", "143200.945000", "143202.435000", "143203.925000", "143205.415000", "143206.905000", "143208.395000", "143209.885000", "143211.375000", "143212.865000", "143214.355000", "143215.845000", "143217.335000", "143218.825000", "143220.315000", "143221.805000", "143223.295000", "143224.785000", "143226.275000", "143227.765000", "143229.255000", "143230.745000", "143232.235000", "143233.725000", "143235.215000", "143236.705000", "143238.195000", "143239.685000", "143241.175000", "143242.665000", "143244.155000", "143245.645000", "143247.135000", "143248.625000", "143250.115000", "143251.605000", "143253.095000", "143254.585000", "143256.075000", "143257.565000", "143259.055000", "143300.545000", "143302.035000", "143303.525000", "143305.015000", "143306.505000", "143307.995000", "143309.485000", "143310.975000", "143312.465000", "143313.955000", "143315.445000", "143316.935000", "143318.425000", "143319.915000", "143321.405000", "143322.895000", "143324.385000", "143325.875000", "143327.365000", "143328.855000", "143330.345000", "143331.835000", "143333.325000", "143334.815000", "143336.305000", "143337.795000", "143339.285000", "143340.775000", "143342.265000", "143343.755000", "143345.245000", "143346.735000", "143348.225000", "143349.715000", "143351.205000", "143352.695000", "143354.185000", "143355.675000", "143357.165000", "143358.655000", "143400.145000", "143401.635000", "143403.125000", "143404.615000", "143406.105000", "143407.595000", "143409.085000", "143410.575000", "143412.065000", "143413.555000", "143415.045000", "143416.535000", "143418.025000", "143419.515000", "143421.005000", "143422.495000", "143423.985000", "143425.475000", "143426.965000", "143428.455000", "143429.945000", "143431.435000", "143432.925000", "143434.415000", "143435.905000", "143437.395000", "143438.885000", "143440.375000", "143441.865000", "143443.355000", "143444.845000", "143446.335000", "143447.825000", "143449.315000", "143450.805000", "143452.295000", "143453.785000", "143455.275000", "143456.765000", "143458.255000", "143459.745000", "143501.235000", "143502.725000", "143504.215000", "143505.705000", "143507.195000", "143508.685000", "143510.175000", "143511.665000", "143513.155000", "143514.645000", "143516.135000", "143517.625000", "143519.115000", "143520.605000", "143522.095000", "143523.585000", "143525.075000", "143526.565000", "143528.055000", "143529.545000", "143531.035000", "143532.525000", "143534.015000", "143535.505000", "143536.995000", "143538.485000", "143539.975000", "143541.465000", "143542.955000", "143544.445000", "143545.935000", "143547.425000", "143548.915000", "143550.405000", "143551.895000", "143553.385000", "143554.875000", "143556.365000", "143557.855000", "143559.345000", "143600.835000", "143602.325000", "143603.815000", "143605.305000", "143606.795000", "143608.285000", "143609.775000", "143611.265000", "143612.755000", "143614.245000", "143615.735000", "143617.225000", "143618.715000", "143620.205000", "143621.695000", "143623.185000", "143624.675000", "143626.165000", "143627.655000", "143629.145000", "143630.635000", "143632.125000", "143633.615000", "143635.105000", "143636.595000", "143638.085000", "143639.575000", "143641.065000", "143642.555000", "143644.045000", "143645.535000", "143647.025000", "143648.515000", "143650.005000", "143651.495000", "143652.985000", "143654.475000", "143655.965000", "143657.455000", "143658.945000", "143700.435000", "143701.925000", "143703.415000", "143704.905000", "143706.395000", "143707.885000", "143709.375000", "143710.865000", "143712.355000", "143713.845000", "143715.335000", "143716.825000", "143718.315000", "143719.805000", "143721.295000", "143722.785000", "143724.275000", "143725.765000", "143727.255000", "143728.745000", "143730.235000", "143731.725000", "143733.215000", "143734.705000", "143736.195000", "143737.685000", "143739.175000", "143740.665000", "143742.155000", "143743.645000", "143745.135000", "143746.625000", "143748.115000", "143749.605000", "143751.095000", "143752.585000", "143754.075000", "143755.565000", "143757.055000", "143758.545000", "143800.035000", "143801.525000", "143803.015000", "143804.505000", "143805.995000", "143807.485000", "143808.975000", "143810.465000", "143811.955000", "143813.445000", "143814.935000", "143816.425000", "143817.915000", "143819.405000", "143820.895000", "143822.385000", "143823.875000", "143825.365000", "143826.855000", "143828.345000", "143829.835000", "143831.325000", "143832.815000", "143834.305000", "143835.795000", "143837.285000", "143838.775000", "143840.265000", "143841.755000", "143843.245000", "143844.735000", "143846.225000", "143847.715000", "143849.205000", "143850.695000", "143852.185000", "143853.675000", "143855.165000", "143856.655000", "143858.145000", "143859.635000", "143901.125000", "143902.615000", "143904.105000", "143905.595000", "143907.085000", "143908.575000", "143910.065000", "143911.555000", "143913.045000", "143914.535000", "143916.025000", "143917.515000", "143919.005000", "143920.495000", "143921.985000", "143923.475000", "143924.965000", "143926.455000", "143927.945000", "143929.435000", "143930.925000", "143932.415000", "143933.905000", "143935.395000", "143936.885000", "143938.375000", "143939.865000", "143941.355000", "143942.845000", "143944.335000", "143945.825000", "143947.315000", "143948.805000", "143950.295000", "143951.785000", "143953.275000", "143954.765000", "143956.255000", "143957.745000", "143959.235000", "144000.725000", "144002.215000", "144003.705000", "144005.195000", "144006.685000", "144008.175000", "144009.665000", "144011.155000", "144012.645000", "144014.135000", "144015.625000", "144017.115000", "144018.605000", "144020.095000", "144021.585000", "144023.075000", "144024.565000", "144026.055000", "144027.545000", "144029.035000", "144030.525000", "144032.015000", "144033.505000", "144034.995000", "144036.485000", "144037.975000", "144039.465000", "144040.955000", "144042.445000", "144043.935000", "144045.425000", "144046.915000", "144048.405000", "144049.895000", "144051.385000", "144052.875000", "144054.365000", "144055.855000", "144057.345000", "144058.835000", "144100.325000", "144101.815000", "144103.305000", "144104.795000", "144106.285000", "144107.775000", "144109.265000", "144110.755000", "144112.245000", "144113.735000", "144115.225000", "144116.715000", "144118.205000", "144119.695000", "144121.185000", "144122.675000", "144124.165000", "144125.655000", "144127.145000", "144128.635000", "144130.125000", "144131.615000", "144133.105000", "144134.595000", "144136.085000", "144137.575000", "144139.065000", "144140.555000", "144142.045000", "144143.535000", "144145.025000", "144146.515000"],
      "ContentTime": ["143059.169000", "143059.187000", "143059.190000", "143059.192000", "143059.195000", "143059.198000", "143059.201000", "143059.204000", "143059.207000", "143059.209000", "143059.212000", "143059.228000", "143059.231000", "143059.234000", "143059.237000", "143059.240000", "143059.242000", "143059.245000", "143059.257000", "143059.260000", "143059.263000", "143059.266000", "143059.269000", "143059.272000", "143059.274000", "143059.277000", "143059.280000", "143059.283000", "143059.286000", "143059.289000", "143059.291000", "143059.294000", "143059.297000", "143059.300000", "143059.303000", "143059.305000", "143119.139000", "143119.142000", "143119.145000", "143119.148000", "143119.150000", "143119.159000", "143119.162000", "143119.164000", "143119.167000", "143119.170000", "143119.173000", "143119.176000", "143119.178000", "143119.181000", "143119.184000", "143119.187000", "143119.191000", "143119.193000", "143119.196000", "143119.199000", "143119.202000", "143139.159000", "143139.162000", "143139.165000", "143139.168000", "143139.170000", "143139.173000", "143139.176000", "143139.179000", "143139.182000", "143139.184000", "143139.187000", "143139.190000", "143139.193000", "143139.196000", "143139.199000", "143139.201000", "143139.204000", "143139.207000", "143139.210000", "143139.213000", "143219.139000", "143219.142000", "143219.145000", "143219.148000", "143219.150000", "143219.153000", "143219.156000", "143219.159000", "143219.162000", "143219.164000", "143219.167000", "143219.170000", "143219.173000", "143219.176000", "143219.179000", "143219.181000", "143219.184000", "143219.187000", "143219.190000", "143219.193000", "143219.195000", "143219.198000", "143219.201000", "143219.204000", "143219.214000", "143219.216000", "143219.219000", "143219.222000", "143219.225000", "143219.228000", "143219.231000", "143219.233000", "143219.236000", "143259.139000", "143259.142000", "143259.145000", "143259.148000", "143259.151000", "143259.153000", "143259.156000", "143259.159000", "143259.162000", "143259.165000", "143259.168000", "143259.171000", "143259.174000", "143259.176000", "143259.179000", "143259.183000", "143259.186000", "143259.189000", "143259.192000", "143259.195000", "143259.198000", "143259.200000", "143259.203000", "143259.206000", "143259.209000", "143259.212000", "143339.140000", "143339.143000", "143339.146000", "143339.148000", "143339.151000", "143339.154000", "143339.157000", "143339.160000", "143339.163000", "143339.165000", "143339.168000", "143339.171000", "143339.174000", "143339.177000", "143339.180000", "143339.182000", "143339.185000", "143339.188000", "143339.191000", "143339.194000", "143339.196000", "143339.199000", "143339.202000", "143339.205000", "143339.208000", "143339.210000", "143339.213000", "143419.139000", "143419.142000", "143419.145000", "143419.148000", "143419.151000", "143419.153000", "143419.156000", "143419.159000", "143419.162000", "143419.165000", "143419.168000", "143419.171000", "143419.173000", "143419.176000", "143419.179000", "143419.182000", "143419.185000", "143419.187000", "143419.190000", "143419.193000", "143419.196000", "143419.199000", "143419.202000", "143419.204000", "143419.207000", "143419.210000", "143419.213000", "143459.139000", "143459.142000", "143459.145000", "143459.148000", "143459.151000", "143459.154000", "143459.156000", "143459.159000", "143459.162000", "143459.165000", "143459.168000", "143459.171000", "143459.173000", "143459.176000", "143459.179000", "143459.182000", "143459.185000", "143459.187000", "143459.190000", "143459.193000", "143459.196000", "143459.199000", "143459.202000", "143459.204000", "143459.207000", "143459.210000", "143459.213000", "143539.139000", "143539.142000", "143539.145000", "143539.148000", "143539.150000", "143539.153000", "143539.156000", "143539.159000", "143539.162000", "143539.165000", "143539.167000", "143539.170000", "143539.173000", "143539.176000", "143539.179000", "143539.182000", "143539.184000", "143539.187000", "143539.190000", "143539.193000", "143539.196000", "143539.199000", "143539.202000", "143539.204000", "143539.207000", "143539.210000", "143539.213000", "143619.139000", "143619.142000", "143619.145000", "143619.148000", "143619.151000", "143619.153000", "143619.156000", "143619.159000", "143619.162000", "143619.165000", "143619.168000", "143619.170000", "143619.173000", "143619.176000", "143619.179000", "143619.182000", "143619.185000", "143619.187000", "143619.190000", "143619.193000", "143619.196000", "143619.199000", "143619.202000", "143619.204000", "143619.207000", "143619.210000", "143619.213000", "143659.139000", "143659.142000", "143659.145000", "143659.148000", "143659.150000", "143659.153000", "143659.156000", "143659.159000", "143659.162000", "143659.165000", "143659.167000", "143659.170000", "143659.173000", "143659.176000", "143659.179000", "143659.181000", "143659.184000", "143659.187000", "143659.190000", "143659.193000", "143659.195000", "143659.198000", "143659.201000", "143659.204000", "143659.207000", "143659.210000", "143659.212000", "143739.139000", "143739.142000", "143739.145000", "143739.148000", "143739.150000", "143739.153000", "143739.156000", "143739.159000", "143739.162000", "143739.165000", "143739.168000", "143739.170000", "143739.173000", "143739.176000", "143739.179000", "143739.182000", "143739.186000", "143739.189000", "143739.192000", "143739.195000", "143739.197000", "143739.200000", "143739.203000", "143739.206000", "143739.209000", "143739.212000", "143819.140000", "143819.143000", "143819.146000", "143819.149000", "143819.152000", "143819.155000", "143819.158000", "143819.160000", "143819.163000", "143819.166000", "143819.169000", "143819.172000", "143819.174000", "143819.177000", "143819.180000", "143819.183000", "143819.186000", "143819.189000", "143819.191000", "143819.194000", "143819.197000", "143819.200000", "143819.203000", "143819.206000", "143819.208000", "143819.211000", "143819.214000", "143859.139000", "143859.142000", "143859.145000", "143859.148000", "143859.150000", "143859.153000", "143859.156000", "143859.159000", "143859.162000", "143859.165000", "143859.168000", "143859.170000", "143859.173000", "143859.176000", "143859.179000", "143859.182000", "143859.185000", "143859.188000", "143859.190000", "143859.193000", "143859.196000", "143859.199000", "143859.202000", "143859.205000", "143859.208000", "143859.211000", "143859.213000", "143939.139000", "143939.142000", "143939.145000", "143939.148000", "143939.151000", "143939.153000", "143939.156000", "143939.159000", "143939.162000", "143939.165000", "143939.167000", "143939.170000", "143939.173000", "143939.176000", "143939.179000", "143939.182000", "143939.185000", "143939.187000", "143939.198000", "143939.201000", "143939.203000", "143939.206000", "143939.209000", "143939.212000", "143939.215000", "143939.218000", "143939.220000", "144019.139000", "144019.142000", "144019.145000", "144019.148000", "144019.151000", "144019.153000", "144019.156000", "144019.159000", "144019.162000", "144019.165000", "144019.168000", "144019.171000", "144019.173000", "144019.176000", "144019.179000", "144019.182000", "144019.185000", "144019.188000", "144019.190000", "144019.193000", "144019.196000", "144019.199000", "144019.202000", "144019.204000", "144019.207000", "144019.210000", "144019.213000", "144059.139000", "144059.142000", "144059.145000", "144059.148000", "144059.151000", "144059.153000", "144059.156000", "144059.159000", "144059.162000", "144059.165000", "144059.168000", "144059.170000", "144059.173000", "144059.176000", "144059.179000", "144059.182000", "144059.185000", "144059.187000", "144059.190000", "144059.193000", "144059.196000", "144059.199000", "144059.202000", "144059.204000", "144059.207000", "144059.210000", "144059.213000", "144139.139000", "144139.142000", "144139.145000", "144139.148000", "144139.151000", "144139.153000", "144139.156000", "144139.159000", "144139.162000", "144139.165000", "144139.167000", "144139.170000", "144139.173000", "144139.176000", "144139.179000", "144139.182000", "144139.184000", "144139.187000", "144139.190000", "144139.193000", "144139.196000", "144139.199000", "144139.202000", "144139.205000", "144139.208000", "144139.211000", "144148.180000", "144148.183000", "144148.186000", "144148.189000", "144148.192000", "144148.195000", "144148.198000"],
