{
  "AcquisitionMatrixPE": 104,
  "AcquisitionNumber": 1,
  "AcquisitionTime": "15:00:17.792500",
  "BandwidthPerPixelPhaseEncode": 17.17,
  "BaseResolution": 104,
  "BodyPartExamined": "BRAIN",
  "CoilCombinationMethod": "Sum of Squares",
  "ConsistencyInfo": "N4_VE11C_LATEST_20160120",
  "ConversionSoftware": "dcm2niix",
  "ConversionSoftwareVersion": "v1.0.20230411",
  "DerivedVendorReportedEchoSpacing": 0.000560011,
  "DeviceSerialNumber": "167006",
  "DwellTime": 2.1e-06,
  "EchoTime": 0.037,
  "EchoTrainLength": 104,
  "EffectiveEchoSpacing": 0.000560011,
  "FlipAngle": 52,
  "HeudiconvVersion": "0.5.3.post861+ge7d3c7f",
  "ImageComments": "Unaliased MB4/PE3/LB",
  "ImageOrientationPatientDICOM": [0.999765, 0.0110054, -0.0186748, -0.0151819, 0.970437, -0.240875],
  "ImageOrientationText": "Tra>Cor(-14.0)>Sag(-0.9)",
  "ImageType": [
    "ORIGINAL",
    "PRIMARY",
    "M",
    "MB",
    "ND",
    "MOSAIC"
],
  "ImagingFrequency": 123.249799,
  "InPlanePhaseEncodingDirectionDICOM": "COL",
  "InstitutionAddress": "Chemin Queen-Mary 4565,Montreal,District,CA,H3W 1W5",
  "InstitutionName": "IUGM",
  "InstitutionalDepartmentName": "Department",
  "MRAcquisitionType": "2D",
  "MagneticFieldStrength": 3,
  "Manufacturer": "Siemens",
  "ManufacturersModelName": "Prisma_fit",
  "MatrixCoilMode": "SENSE",
  "Modality": "MR",
  "MultibandAccelerationFactor": 4,
  "NonlinearGradientCorrection": false,
  "PartialFourier": 1,
  "PatientPosition": "HFS",
  "PercentPhaseFOV": 100,
  "PercentSampling": 100,
  "PhaseEncodingDirection": "j",
  "PhaseEncodingSteps": 104,
  "PhaseResolution": 1,
  "PixelBandwidth": 2290,
  "ProcedureStepDescription": "video^friends",
  "ProtocolName": "func_task-friends-s07e03a",
  "PulseSequenceDetails": "%CustomerSeq%\\cmrr_mbep2d_bold",
  "ReceiveCoilActiveElements": "HC1-7;NC1,2",
  "ReceiveCoilName": "HeadNeck_64",
  "ReconMatrixPE": 104,
  "RepetitionTime": 1.49,
  "SAR": 0.05285,
  "ScanOptions": "FS",
  "ScanningSequence": "EP",
  "SequenceName": "epfid2d1_104",
  "SequenceVariant": "SK\\SS",
  "SeriesDescription": "func_task-friends-s07e03a",
  "SeriesNumber": 18,
  "ShimSetting": [605, -7248, -8746, 673, 76, -23, 26, 25],
  "SliceThickness": 2,
  "SliceTiming": [0, 0.7825, 0.0975, 0.88, 0.195, 0.9775, 0.2925, 1.0775, 0.39, 1.175, 0.4875, 1.2725, 0.5875, 1.37, 0.685, 0, 0.7825, 0.0975, 0.88, 0.195, 0.9775, 0.2925, 1.0775, 0.39, 1.175, 0.4875, 1.2725, 0.5875, 1.37, 0.685, 0, 0.7825, 0.0975, 0.88, 0.195, 0.9775, 0.2925, 1.0775, 0.39, 1.175, 0.4875, 1.2725, 0.5875, 1.37, 0.685, 0, 0.7825, 0.0975, 0.88, 0.195, 0.9775, 0.2925, 1.0775, 0.39, 1.175, 0.4875, 1.2725, 0.5875, 1.37, 0.685],
  "SoftwareVersions": "syngo MR E11",
  "SpacingBetweenSlices": 2,
  "StationName": "MRC35049",
  "TaskName": "s07e03a",
  "TotalReadoutTime": 0.0576811,
  "TxRefAmp": 220.86,
  "WipMemBlock": "6257634d-4b57-4ea7-8af7-12506d39fe29||Sequence: R017 ve11c/master r/75a17815+; Jun 28 2022 16:32:11 by eja",
  "dcmmeta_affine": [
    [-1.9995300769805908, -0.030363894999027252, -0.03094353899359703, 107.43695831298828],
    [-0.022010885179042816, 1.9408748149871826, -0.48220381140708923, -75.61503601074219],
    [-0.03734955936670303, 0.4817499816417694, 1.9407529830932617, -43.8792839050293],
    [0.0, 0.0, 0.0, 1.0]
],
  "dcmmeta_reorient_transform": [
    [0.0, -1.0, 0.0, 103.0],
    [1.0, 0.0, 0.0, 0.0],
    [0.0, 0.0, 1.0, 0.0],
    [0.0, 0.0, 0.0, 1.0]
],
  "dcmmeta_shape": [104, 104, 60, 417],
  "dcmmeta_slice_dim": 2,
  "dcmmeta_version": 0.6,
  "global": {
    "const": {
      "AcquisitionMatrix": [104, 0, 0, 104],
      "AngioFlag": "N",
      "BitsAllocated": 16,
      "BitsStored": 16,
      "BodyPartExamined": "BRAIN",
      "Columns": 832,
      "EchoNumbers": 1,
      "EchoTime": 37.0,
      "EchoTrainLength": 104,
      "FlipAngle": 52.0,
      "HighBit": 15,
      "ImageOrientationPatient": [0.99976503880194, 0.01100544280772, -0.0186747802652, -0.0151819478943, 0.9704374015731, -0.2408749843512],
      "ImagePositionPatient": [-821.08596627947, -838.7854583504, 194.69319163645],
      "ImageType": [
        "ORIGINAL",
        "PRIMARY",
        "M",
        "MB",
        "ND",
        "MOSAIC"
],
      "ImagedNucleus": "1H",
      "ImagingFrequency": 123.249799,
      "InPlanePhaseEncodingDirection": "COL",
      "MRAcquisitionType": "2D",
      "MagneticFieldStrength": 3.0,
      "Manufacturer": "SIEMENS",
      "ManufacturerModelName": "Prisma_fit",
      "Modality": "MR",
      "NumberOfAverages": 1.0,
      "NumberOfPhaseEncodingSteps": 104,
      "PercentPhaseFieldOfView": 100.0,
      "PercentSampling": 100.0,
      "PerformedProcedureStepStartTime": "133652.447000",
      "PhotometricInterpretation": "MONOCHROME2",
      "PixelBandwidth": 2290.0,
      "PixelRepresentation": 0,
      "PixelSpacing": [2.0, 2.0],
      "ProtocolName": "func_task-friends-s07e03a",
      "RepetitionTime": 1490.0,
      "Rows": 832,
      "SAR": 0.05284996150077,
      "SamplesPerPixel": 1,
      "ScanOptions": "FS",
      "ScanningSequence": "EP",
      "SequenceName": "epfid2d1_104",
      "SequenceVariant": [
        "SK",
        "SS"
],
      "SeriesDescription": "func_task-friends-s07e03a",
      "SeriesNumber": 18,
      "SeriesTime": "150142.264000",
      "SliceLocation": -26.010734664131,
      "SliceThickness": 2.0,
      "SmallestImagePixelValue": 0,
      "SoftwareVersions": "syngo MR E11",
      "SpacingBetweenSlices": 2.0000000232783,
      "SpecificCharacterSet": "ISO_IR 100",
      "StudyID": "1",
      "StudyTime": "133652.280000",
      "TransmitCoilName": "Body",
      "VariableFlipAngleFlag": "N",
      "WindowCenterWidthExplanation": "Algo1",
      "dBdt": 0.0},
    "slices": {}
  },
  "time": {
    "samples": {
      "AcquisitionNumber": [1, 2, 3, 4, 5, 6, 7, 8, 9, 10, 11, 12, 13, 14, 15, 16, 17, 18, 19, 20, 21, 22, 23, 24, 25, 26, 27, 28, 29, 30, 31, 32, 33, 34, 35, 36, 37, 38, 39, 40, 41, 42, 43, 44, 45, 46, 47, 48, 49, 50, 51, 52, 53, 54, 55, 56, 57, 58, 59, 60, 61, 62, 63, 64, 65, 66, 67, 68, 69, 70, 71, 72, 73, 74, 75, 76, 77, 78, 79, 80, 81, 82, 83, 84, 85, 86, 87, 88, 89, 90, 91, 92, 93, 94, 95, 96, 97, 98, 99, 100, 101, 102, 103, 104, 105, 106, 107, 108, 109, 110, 111, 112, 113, 114, 115, 116, 117, 118, 119, 120, 121, 122, 123, 124, 125, 126, 127, 128, 129, 130, 131, 132, 133, 134, 135, 136, 137, 138, 139, 140, 141, 142, 143, 144, 145, 146, 147, 148, 149, 150, 151, 152, 153, 154, 155, 156, 157, 158, 159, 160, 161, 162, 163, 164, 165, 166, 167, 168, 169, 170, 171, 172, 173, 174, 175, 176, 177, 178, 179, 180, 181, 182, 183, 184, 185, 186, 187, 188, 189, 190, 191, 192, 193, 194, 195, 196, 197, 198, 199, 200, 201, 202, 203, 204, 205, 206, 207, 208, 209, 210, 211, 212, 213, 214, 215, 216, 217, 218, 219, 220, 221, 222, 223, 224, 225, 226, 227, 228, 229, 230, 231, 232, 233, 234, 235, 236, 237, 238, 239, 240, 241, 242, 243, 244, 245, 246, 247, 248, 249, 250, 251, 252, 253, 254, 255, 256, 257, 258, 259, 260, 261, 262, 263, 264, 265, 266, 267, 268, 269, 270, 271, 272, 273, 274, 275, 276, 277, 278, 279, 280, 281, 282, 283, 284, 285, 286, 287, 288, 289, 290, 291, 292, 293, 294, 295, 296, 297, 298, 299, 300, 301, 302, 303, 304, 305, 306, 307, 308, 309, 310, 311, 312, 313, 314, 315, 316, 317, 318, 319, 320, 321, 322, 323, 324, 325, 326, 327, 328, 329, 330, 331, 332, 333, 334, 335, 336, 337, 338, 339, 340, 341, 342, 343, 344, 345, 346, 347, 348, 349, 350, 351, 352, 353, 354, 355, 356, 357, 358, 359, 360, 361, 362, 363, 364, 365, 366, 367, 368, 369, 370, 371, 372, 373, 374, 375, 376, 377, 378, 379, 380, 381, 382, 383, 384, 385, 386, 387, 388, 389, 390, 391, 392, 393, 394, 395, 396, 397, 398, 399, 400, 401, 402, 403, 404, 405, 406, 407, 408, 409, 410, 411, 412, 413, 414, 415, 416, 417],
      "AcquisitionTime": ["150017.792500", "150019.282500", "150020.772500", "150022.262500", "150023.752500", "150025.242500", "150026.732500", "150028.222500", "150029.712500", "150031.202500", "150032.692500", "150034.182500", "150035.672500", "150037.162500", "150038.652500", "150040.142500", "150041.632500", "150043.122500", "150044.612500", "150046.102500", "150047.592500", "150049.082500", "150050.572500", "150052.062500", "150053.552500", "150055.042500", "150056.532500", "150058.022500", "150059.512500", "150101.002500", "150102.492500", "150103.982500", "150105.472500", "150106.962500", "150108.452500", "150109.942500", "150111.432500", "150112.922500", "150114.412500", "150115.902500", "150117.392500", "150118.882500", "150120.372500", "150121.862500", "150123.352500", "150124.842500", "150126.332500", "150127.822500", "150129.312500", "150130.802500", "150132.292500", "150133.782500", "150135.272500", "150136.762500", "150138.252500", "150139.742500", "150141.232500", "150142.722500", "150144.212500", "150145.702500", "150147.192500", "150148.682500", "150150.172500", "150151.662500", "150153.152500", "150154.642500", "150156.132500", "150157.622500", "150159.112500", "150200.602500", "150202.092500", "150203.582500", "150205.072500", "150206.562500", "150208.052500", "150209.542500", "150211.032500", "150212.522500", "150214.012500", "150215.502500", "150216.992500", "150218.482500", "150219.972500", "150221.462500", "150222.952500", "150224.442500", "150225.932500", "150227.422500", "150228.912500", "150230.402500", "150231.892500", "150233.382500", "150234.872500", "150236.362500", "150237.852500", "150239.342500", "150240.832500", "150242.322500", "150243.812500", "150245.302500", "150246.792500", "150248.282500", "150249.772500", "150251.262500", "150252.752500", "150254.242500", "150255.732500", "150257.222500", "150258.712500", "150300.202500", "150301.692500", "150303.182500", "150304.672500", "150306.162500", "150307.652500", "150309.142500", "150310.632500", "150312.122500", "150313.612500", "150315.102500", "150316.592500", "150318.082500", "150319.572500", "150321.062500", "150322.552500", "150324.042500", "150325.532500", "150327.022500", "150328.512500", "150330.002500", "150331.492500", "150332.982500", "150334.472500", "150335.962500", "150337.452500", "150338.942500", "150340.432500", "150341.922500", "150343.412500", "150344.902500", "150346.392500", "150347.882500", "150349.372500", "150350.862500", "150352.352500", "150353.842500", "150355.332500", "150356.822500", "150358.312500", "150359.802500", "150401.292500", "150402.782500", "150404.272500", "150405.762500", "150407.252500", "150408.742500", "150410.232500", "150411.722500", "150413.212500", "150414.702500", "150416.192500", "150417.682500", "150419.172500", "150420.662500", "150422.152500", "150423.642500", "150425.132500", "150426.622500", "150428.112500", "150429.602500", "150431.092500", "150432.582500", "150434.072500", "150435.562500", "150437.052500", "150438.542500", "150440.032500", "150441.522500", "150443.012500", "150444.502500", "150445.992500", "150447.482500", "150448.972500", "150450.462500", "150451.952500", "150453.442500", "150454.932500", "150456.422500", "150457.912500", "150459.402500", "150500.892500", "150502.382500", "150503.872500", "150505.362500", "150506.852500", "150508.342500", "150509.832500", "150511.322500", "150512.812500", "150514.302500", "150515.792500", "150517.282500", "150518.772500", "150520.262500", "150521.752500", "150523.242500", "150524.732500", "150526.222500", "150527.712500", "150529.202500", "150530.692500", "150532.182500", "150533.672500", "150535.162500", "150536.652500", "150538.142500", "150539.632500", "150541.122500", "150542.612500", "150544.102500", "150545.592500", "150547.082500", "150548.572500", "150550.062500", "150551.552500", "150553.042500", "150554.532500", "150556.022500", "150557.512500", "150559.002500", "150600.492500", "150601.982500", "150603.472500", "150604.962500", "150606.452500", "150607.942500", "150609.432500", "150610.922500", "150612.412500", "150613.902500", "150615.392500", "150616.882500", "150618.372500", "150619.862500", "150621.352500", "150622.842500", "150624.332500", "150625.822500", "150627.312500", "150628.802500", "150630.292500", "150631.782500", "150633.272500", "150634.762500", "150636.252500", "150637.742500", "150639.232500", "150640.722500", "150642.212500", "150643.702500", "150645.192500", "150646.682500", "150648.172500", "150649.662500", "150651.152500", "150652.642500", "150654.132500", "150655.622500", "150657.112500", "150658.602500", "150700.092500", "150701.582500", "150703.072500", "150704.562500", "150706.052500", "150707.542500", "150709.032500", "150710.522500", "150712.012500", "150713.502500", "150714.992500", "150716.482500", "150717.972500", "150719.462500", "150720.952500", "150722.442500", "150723.932500", "150725.422500", "150726.912500", "150728.402500", "150729.892500", "150731.382500", "150732.872500", "150734.362500", "150735.852500", "150737.342500", "150738.832500", "150740.322500", "150741.812500", "150743.302500", "150744.792500", "150746.282500", "150747.772500", "150749.262500", "150750.752500", "150752.242500", "150753.732500", "150755.222500", "150756.712500", "150758.202500", "150759.692500", "150801.182500", "150802.672500", "150804.162500", "150805.652500", "150807.142500", "150808.632500", "150810.122500", "150811.612500", "150813.102500", "150814.592500", "150816.082500", "150817.572500", "150819.062500", "150820.552500", "150822.042500", "150823.532500", "150825.022500", "150826.512500", "150828.002500", "150829.492500", "150830.982500", "150832.472500", "150833.962500", "150835.452500", "150836.942500", "150838.432500", "150839.922500", "150841.412500", "150842.902500", "150844.392500", "150845.882500", "150847.372500", "150848.862500", "150850.352500", "150851.842500", "150853.332500", "150854.822500", "150856.312500", "150857.802500", "150859.292500", "150900.782500", "150902.272500", "150903.762500", "150905.252500", "150906.742500", "150908.232500", "150909.722500", "150911.212500", "150912.702500", "150914.192500", "150915.682500", "150917.172500", "150918.662500", "150920.152500", "150921.642500", "150923.132500", "150924.622500", "150926.112500", "150927.602500", "150929.092500", "150930.582500", "150932.072500", "150933.562500", "150935.052500", "150936.542500", "150938.032500", "150939.522500", "150941.012500", "150942.502500", "150943.992500", "150945.482500", "150946.972500", "150948.462500", "150949.952500", "150951.442500", "150952.932500", "150954.422500", "150955.912500", "150957.402500", "150958.892500", "151000.382500", "151001.872500", "151003.362500", "151004.852500", "151006.342500", "151007.832500", "151009.322500", "151010.812500", "151012.302500", "151013.792500", "151015.282500", "151016.772500", "151018.262500", "151019.752500", "151021.242500", "151022.732500", "151024.222500", "151025.712500", "151027.202500", "151028.692500", "151030.182500", "151031.672500", "151033.162500", "151034.652500", "151036.142500", "151037.632500"],
      "ContentTime": ["150142.267000", "150142.270000", "150142.273000", "150142.276000", "150142.279000", "150142.282000", "150142.285000", "150142.287000", "150142.290000", "150142.299000", "150142.302000", "150142.305000", "150142.307000", "150142.310000", "150142.313000", "150142.316000", "150142.319000", "150142.321000", "150142.324000", "150142.327000", "150142.330000", "150142.333000", "150142.336000", "150142.350000", "150142.353000", "150142.356000", "150142.359000", "150142.362000", "150142.364000", "150142.367000", "150142.370000", "150142.373000", "150142.376000", "150142.379000", "150142.381000", "150202.240000", "150202.243000", "150202.246000", "150202.249000", "150202.252000", "150202.255000", "150202.258000", "150202.260000", "150202.263000", "150202.266000", "150202.269000", "150202.272000", "150202.275000", "150202.278000", "150202.281000", "150202.283000", "150202.286000", "150202.289000", "150202.292000", "150202.295000", "150222.240000", "150222.243000", "150222.246000", "150222.249000", "150222.251000", "150222.255000", "150222.257000", "150222.260000", "150222.263000", "150222.266000", "150222.269000", "150222.272000", "150222.274000", "150222.277000", "150222.280000", "150222.283000", "150222.286000", "150222.288000", "150222.291000", "150222.294000", "150242.239000", "150242.242000", "150242.245000", "150242.249000", "150242.252000", "150242.255000", "150242.258000", "150242.260000", "150242.263000", "150242.266000", "150242.269000", "150242.272000", "150242.274000", "150242.277000", "150242.280000", "150242.283000", "150242.286000", "150242.289000", "150242.291000", "150242.294000", "150322.239000", "150322.242000", "150322.245000", "150322.248000", "150322.250000", "150322.253000", "150322.256000", "150322.259000", "150322.276000", "150322.279000", "150322.282000", "150322.285000", "150322.287000", "150322.290000", "150322.293000", "150322.296000", "150322.313000", "150322.316000", "150322.319000", "150322.322000", "150322.325000", "150322.328000", "150322.330000", "150322.333000", "150322.336000", "150322.339000", "150322.342000", "150322.344000", "150402.240000", "150402.243000", "150402.246000", "150402.249000", "150402.251000", "150402.254000", "150402.257000", "150402.260000", "150402.263000", "150402.266000", "150402.269000", "150402.271000", "150402.274000", "150402.277000", "150402.280000", "150402.283000", "150402.286000", "150402.288000", "150402.291000", "150402.294000", "150402.297000", "150402.300000", "150402.302000", "150402.305000", "150402.308000", "150402.311000", "150402.314000", "150442.240000", "150442.243000", "150442.247000", "150442.249000", "150442.252000", "150442.255000", "150442.258000", "150442.261000", "150442.264000", "150442.267000", "150442.270000", "150442.272000", "150442.275000", "150442.278000", "150442.281000", "150442.284000", "150442.287000", "150442.289000", "150442.292000", "150442.295000", "150442.298000", "150442.301000", "150442.303000", "150442.306000", "150442.309000", "150442.312000", "150522.239000", "150522.242000", "150522.245000", "150522.248000", "150522.250000", "150522.253000", "150522.256000", "150522.259000", "150522.262000", "150522.265000", "150522.268000", "150522.270000", "150522.273000", "150522.276000", "150522.279000", "150522.282000", "150522.285000", "150522.287000", "150522.294000", "150522.297000", "150522.300000", "150522.302000", "150522.305000", "150522.308000", "150522.311000", "150522.314000", "150522.317000", "150602.240000", "150602.243000", "150602.246000", "150602.249000", "150602.252000", "150602.255000", "150602.258000", "150602.260000", "150602.263000", "150602.266000", "150602.269000", "150602.272000", "150602.275000", "150602.277000", "150602.280000", "150602.283000", "150602.286000", "150602.289000", "150602.292000", "150602.294000", "150602.297000", "150602.300000", "150602.303000", "150602.306000", "150602.309000", "150602.311000", "150602.314000", "150642.240000", "150642.243000", "150642.246000", "150642.249000", "150642.252000", "150642.254000", "150642.257000", "150642.260000", "150642.263000", "150642.266000", "150642.269000", "150642.271000", "150642.274000", "150642.288000", "150642.290000", "150642.293000", "150642.296000", "150642.299000", "150642.302000", "150642.305000", "150642.308000", "150642.310000", "150642.313000", "150642.316000", "150642.319000", "150642.322000", "150642.324000", "150722.239000", "150722.242000", "150722.245000", "150722.248000", "150722.251000", "150722.254000", "150722.257000", "150722.259000", "150722.262000", "150722.265000", "150722.268000", "150722.271000", "150722.274000", "150722.277000", "150722.280000", "150722.282000", "150722.285000", "150722.292000", "150722.295000", "150722.298000", "150722.301000", "150722.304000", "150722.307000", "150722.309000", "150722.312000", "150722.315000", "150722.318000", "150802.240000", "150802.243000", "150802.246000", "150802.266000", "150802.269000", "150802.271000", "150802.274000", "150802.277000", "150802.280000", "150802.283000", "150802.286000", "150802.289000", "150802.291000", "150802.294000", "150802.297000", "150802.300000", "150802.303000", "150802.306000", "150802.308000", "150802.311000", "150802.314000", "150802.317000", "150802.320000", "150802.323000", "150802.325000", "150802.328000", "150802.331000", "150842.240000", "150842.243000", "150842.246000", "150842.249000", "150842.252000", "150842.254000", "150842.257000", "150842.260000", "150842.263000", "150842.266000", "150842.269000", "150842.272000", "150842.274000", "150842.277000", "150842.280000", "150842.283000", "150842.286000", "150842.289000", "150842.292000", "150842.294000", "150842.297000", "150842.300000", "150842.303000", "150842.306000", "150842.309000", "150842.311000", "150842.314000", "150922.240000", "150922.243000", "150922.246000", "150922.249000", "150922.252000", "150922.254000", "150922.257000", "150922.260000", "150922.263000", "150922.266000", "150922.269000", "150922.272000", "150922.274000", "150922.277000", "150922.280000", "150922.283000", "150922.286000", "150922.289000", "150922.292000", "150922.295000", "150922.303000", "150922.306000", "150922.309000", "150922.312000", "150922.314000", "150922.317000", "151002.239000", "151002.242000", "151002.245000", "151002.248000", "151002.251000", "151002.254000", "151002.256000", "151002.259000", "151002.266000", "151002.268000", "151002.271000", "151002.274000", "151002.277000", "151002.280000", "151002.283000", "151002.285000", "151002.288000", "151002.291000", "151002.294000", "151002.297000", "151002.300000", "151002.302000", "151002.305000", "151002.308000", "151002.311000", "151002.314000", "151002.317000", "151039.935000", "151039.938000", "151039.941000", "151039.944000", "151039.947000", "151039.950000", "151039.953000", "151039.955000", "151039.958000", "151039.961000", "151039.964000", "151039.967000", "151039.970000", "151039.978000", "151039.981000", "151039.984000", "151039.987000", "151039.990000", "151039.993000", "151039.996000", "151039.998000", "151040.002000", "151040.005000", "151040.008000", "151040.011000", "151040.014000"],
      "InstanceCreationTime": ["150142.267000", "150142.270000", "150142.273000", "150142.276000", "150142.279000", "150142.282000", "150142.285000", "150142.287000", "150142.290000", "150142.299000", "150142.302000", "150142.305000", "150142.307000", "150142.310000", "150142.313000", "150142.316000", "150142.319000", "150142.321000", "150142.324000", "150142.327000", "150142.330000", "150142.333000", "150142.336000", "150142.350000", "150142.353000", "150142.356000", "150142.359000", "150142.362000", "150142.364000", "150142.367000", "150142.370000", "150142.373000", "150142.376000", "150142.379000", "150142.381000", "150202.240000", "150202.243000", "150202.246000", "150202.249000", "150202.252000", "150202.255000", "150202.258000", "150202.260000", "150202.263000", "150202.266000", "150202.269000", "150202.272000", "150202.275000", "150202.278000", "150202.281000", "150202.283000", "150202.286000", "150202.289000", "150202.292000", "150202.295000", "150222.240000", "150222.243000", "150222.246000", "150222.249000", "150222.251000", "150222.255000", "150222.257000", "150222.260000", "150222.263000", "150222.266000", "150222.269000", "150222.272000", "150222.274000", "150222.277000", "150222.280000", "150222.283000", "150222.286000", "150222.288000", "150222.291000", "150222.294000", "150242.239000", "150242.242000", "150242.245000", "150242.249000", "150242.252000", "150242.255000", "150242.258000", "150242.260000", "150242.263000", "150242.266000", "150242.269000", "150242.272000", "150242.274000", "150242.277000", "150242.280000", "150242.283000", "150242.286000", "150242.289000", "150242.291000", "150242.294000", "150322.239000", "150322.242000", "150322.245000", "150322.248000", "150322.250000", "150322.253000", "150322.256000", "150322.259000", "150322.276000", "150322.279000", "150322.282000", "150322.285000", "150322.287000", "150322.290000", "150322.293000", "150322.296000", "150322.313000", "150322.316000", "150322.319000", "150322.322000", "150322.325000", "150322.328000", "150322.330000", "150322.333000", "150322.336000", "150322.339000", "150322.342000", "150322.344000", "150402.240000", "150402.243000", "150402.246000", "150402.249000", "150402.251000", "150402.254000", "150402.257000", "150402.260000", "150402.263000", "150402.266000", "150402.269000", "150402.271000", "150402.274000", "150402.277000", "150402.280000", "150402.283000", "150402.286000", "150402.288000", "150402.291000", "150402.294000", "150402.297000", "150402.300000", "150402.302000", "150402.305000", "150402.308000", "150402.311000", "150402.314000", "150442.240000", "150442.243000", "150442.247000", "150442.249000", "150442.252000", "150442.255000", "150442.258000", "150442.261000", "150442.264000", "150442.267000", "150442.270000", "150442.272000", "150442.275000", "150442.278000", "150442.281000", "150442.284000", "150442.287000", "150442.289000", "150442.292000", "150442.295000", "150442.298000", "150442.301000", "150442.303000", "150442.306000", "150442.309000", "150442.312000", "150522.239000", "150522.242000", "150522.245000", "150522.248000", "150522.250000", "150522.253000", "150522.256000", "150522.259000", "150522.262000", "150522.265000", "150522.268000", "150522.270000", "150522.273000", "150522.276000", "150522.279000", "150522.282000", "150522.285000", "150522.287000", "150522.294000", "150522.297000", "150522.300000", "150522.302000", "150522.305000", "150522.308000", "150522.311000", "150522.314000", "150522.317000", "150602.240000", "150602.243000", "150602.246000", "150602.249000", "150602.252000", "150602.255000", "150602.258000", "150602.260000", "150602.263000", "150602.266000", "150602.269000", "150602.272000", "150602.275000", "150602.277000", "150602.280000", "150602.283000", "150602.286000", "150602.289000", "150602.292000", "150602.294000", "150602.297000", "150602.300000", "150602.303000", "150602.306000", "150602.309000", "150602.311000", "150602.314000", "150642.240000", "150642.243000", "150642.246000", "150642.249000", "150642.252000", "150642.254000", "150642.257000", "150642.260000", "150642.263000", "150642.266000", "150642.269000", "150642.271000", "150642.274000", "150642.288000", "150642.290000", "150642.293000", "150642.296000", "150642.299000", "150642.302000", "150642.305000", "150642.308000", "150642.310000", "150642.313000", "150642.316000", "150642.319000", "150642.322000", "150642.324000", "150722.239000", "150722.242000", "150722.245000", "150722.248000", "150722.251000", "150722.254000", "150722.257000", "150722.259000", "150722.262000", "150722.265000", "150722.268000", "150722.271000", "150722.274000", "150722.277000", "150722.280000", "150722.282000", "150722.285000", "150722.292000", "150722.295000", "150722.298000", "150722.301000", "150722.304000", "150722.307000", "150722.309000", "150722.312000", "150722.315000", "150722.318000", "150802.240000", "150802.243000", "150802.246000", "150802.266000", "150802.269000", "150802.271000", "150802.274000", "150802.277000", "150802.280000", "150802.283000", "150802.286000", "150802.289000", "150802.291000", "150802.294000", "150802.297000", "150802.300000", "150802.303000", "150802.306000", "150802.308000", "150802.311000", "150802.314000", "150802.317000", "150802.320000", "150802.323000", "150802.325000", "150802.328000", "150802.331000", "150842.240000", "150842.243000", "150842.246000", "150842.249000", "150842.252000", "150842.254000", "150842.257000", "150842.260000", "150842.263000", "150842.266000", "150842.269000", "150842.272000", "150842.274000", "150842.277000", "150842.280000", "150842.283000", "150842.286000", "150842.289000", "150842.292000", "150842.294000", "150842.297000", "150842.300000", "150842.303000", "150842.306000", "150842.309000", "150842.311000", "150842.314000", "150922.240000", "150922.243000", "150922.246000", "150922.249000", "150922.252000", "150922.254000", "150922.257000", "150922.260000", "150922.263000", "150922.266000", "150922.269000", "150922.272000", "150922.274000", "150922.277000", "150922.280000", "150922.283000", "150922.286000", "150922.289000", "150922.292000", "150922.295000", "150922.303000", "150922.306000", "150922.309000", "150922.312000", "150922.314000", "150922.317000", "151002.239000", "151002.242000", "151002.245000", "151002.248000", "151002.251000", "151002.254000", "151002.256000", "151002.259000", "151002.266000", "151002.268000", "151002.271000", "151002.274000", "151002.277000", "151002.280000", "151002.283000", "151002.285000", "151002.288000", "151002.291000", "151002.294000", "151002.297000", "151002.300000", "151002.302000", "151002.305000", "151002.308000", "151002.311000", "151002.314000", "151002.317000", "151039.935000", "151039.938000", "151039.941000", "151039.944000", "151039.947000", "151039.950000", "151039.953000", "151039.955000", "151039.958000", "151039.961000", "151039.964000", "151039.967000", "151039.970000", "151039.978000", "151039.981000", "151039.984000", "151039.987000", "151039.990000", "151039.993000", "151039.996000", "151039.998000", "151040.002000", "151040.005000", "151040.008000", "151040.011000", "151040.014000"],
