{
  "AcquisitionMatrixPE": 104,
  "AcquisitionNumber": 1,
  "AcquisitionTime": "13:36:32.342500",
  "BandwidthPerPixelPhaseEncode": 17.17,
  "BaseResolution": 104,
  "BodyPartExamined": "BRAIN",
  "CoilString": "HC1-7;NC1_2",
  "ConsistencyInfo": "N4_VE11C_LATEST_20160120",
  "ConversionSoftware": "dcm2niix",
  "ConversionSoftwareVersion": "v1.0.20190902",
  "DerivedVendorReportedEchoSpacing": 0.000560011,
  "DeviceSerialNumber": "167006",
  "DwellTime": 2.1e-06,
  "EchoTime": 0.037,
  "EchoTrainLength": 104,
  "EffectiveEchoSpacing": 0.000560011,
  "FlipAngle": 52,
  "ImageComments": "Unaliased_MB4_PE3_LB",
  "ImageOrientationPatientDICOM": [0.998271, 0.00174248, -0.0587539, -0.0155078, 0.971953, -0.234664],
  "ImageType": [
    "ORIGINAL",
    "PRIMARY",
    "M",
    "MB",
    "ND",
    "MOSAIC"
],
  "ImagingFrequency": 123.259,
  "InPlanePhaseEncodingDirectionDICOM": "COL",
  "InstitutionAddress": "Chemin_Queen-Mary_4565_Montreal_District_CA_H3W_1W5",
  "InstitutionName": "IUGM",
  "InstitutionalDepartmentName": "Department",
  "MRAcquisitionType": "2D",
  "MagneticFieldStrength": 3,
  "Manufacturer": "Siemens",
  "ManufacturersModelName": "Prisma_fit",
  "Modality": "MR",
  "MultibandAccelerationFactor": 4,
  "PartialFourier": 1,
  "PatientPosition": "HFS",
  "PercentPhaseFOV": 100,
  "PhaseEncodingDirection": "j",
  "PhaseEncodingSteps": 104,
  "PhaseResolution": 1,
  "PixelBandwidth": 2290,
  "ProcedureStepDescription": "video_friends",
  "ProtocolName": "func_task-friends-s04e08b",
  "PulseSequenceDetails": "%CustomerSeq%_cmrr_mbep2d_bold",
  "ReceiveCoilActiveElements": "HC1-7;NC1,2",
  "ReceiveCoilName": "HeadNeck_64",
  "ReconMatrixPE": 104,
  "RepetitionTime": 1.49,
  "SAR": 0.0295907,
  "ScanOptions": "FS",
  "ScanningSequence": "EP",
  "SequenceName": "epfid2d1_104",
  "SequenceVariant": "SK_SS",
  "SeriesDescription": "func_task-friends-s04e08b",
  "SeriesNumber": 11,
  "ShimSetting": [603, -7250, -8829, 627, -63, -263, 9, 42],
  "SliceThickness": 2,
  "SliceTiming": [0, 0.785, 0.0975, 0.8825, 0.195, 0.98, 0.295, 1.0775, 0.3925, 1.175, 0.49, 1.275, 0.5875, 1.3725, 0.685, 0, 0.785, 0.0975, 0.8825, 0.195, 0.98, 0.295, 1.0775, 0.3925, 1.175, 0.49, 1.275, 0.5875, 1.3725, 0.685, 0, 0.785, 0.0975, 0.8825, 0.195, 0.98, 0.295, 1.0775, 0.3925, 1.175, 0.49, 1.275, 0.5875, 1.3725, 0.685, 0, 0.785, 0.0975, 0.8825, 0.195, 0.98, 0.295, 1.0775, 0.3925, 1.175, 0.49, 1.275, 0.5875, 1.3725, 0.685],
  "SoftwareVersions": "syngo_MR_E11",
  "SpacingBetweenSlices": 2,
  "StationName": "MRC35049",
  "TaskName": "s04e08b",
  "TotalReadoutTime": 0.0576811,
  "TxRefAmp": 217.752,
  "WipMemBlock": "56f88a06-da92-437f-a123-ab598d7f2730||Sequence: R016 ve11c/master r/e634e98; Dec 19 2017 11:00:25 by eja",
  "dcmmeta_affine": [
    [-1.996541976928711, -0.031015662476420403, -0.11339418590068817, 103.47686767578125],
    [-0.0034849662333726883, 1.9439057111740112, -0.47033846378326416, -82.06816864013672],
    [-0.11750773340463638, 0.4693276286125183, 1.940598726272583, -51.09596252441406],
    [0.0, 0.0, 0.0, 1.0]
],
  "dcmmeta_reorient_transform": [
    [0.0, -1.0, 0.0, 103.0],
    [1.0, 0.0, 0.0, 0.0],
    [0.0, 0.0, 1.0, 0.0],
    [0.0, 0.0, 0.0, 1.0]
],
  "dcmmeta_shape": [104, 104, 60, 503],
  "dcmmeta_slice_dim": 2,
  "dcmmeta_version": 0.6,
  "global": {
    "const": {
      "AcquisitionMatrix": [104, 0, 0, 104],
      "AngioFlag": "N",
      "BitsAllocated": 16,
      "BitsStored": 16,
      "BodyPartExamined": "BRAIN",
      "Columns": 832,
      "EchoNumbers": 1,
      "EchoTime": 37.0,
      "EchoTrainLength": 104,
      "FlipAngle": 52.0,
      "HighBit": 15,
      "ImageOrientationPatient": [0.99827097871707, 0.00174248306845, -0.05875386629, -0.0155078315018, 0.97195287889989, -0.2346638198793],
      "ImagePositionPatient": [-815.73382337459, -827.00435171979, 210.85285830716],
      "ImageType": [
        "ORIGINAL",
        "PRIMARY",
        "M",
        "MB",
        "ND",
        "MOSAIC"
],
      "ImagedNucleus": "1H",
      "ImagingFrequency": 123.259026,
      "InPlanePhaseEncodingDirection": "COL",
      "MRAcquisitionType": "2D",
      "MagneticFieldStrength": 3.0,
      "Manufacturer": "SIEMENS",
      "ManufacturerModelName": "Prisma_fit",
      "Modality": "MR",
      "NumberOfAverages": 1.0,
      "NumberOfPhaseEncodingSteps": 104,
      "PercentPhaseFieldOfView": 100.0,
      "PercentSampling": 100.0,
      "PerformedProcedureStepStartTime": "130725.358000",
      "PhotometricInterpretation": "MONOCHROME2",
      "PixelBandwidth": 2290.0,
      "PixelRepresentation": 0,
      "PixelSpacing": [2.0, 2.0],
      "ProtocolName": "func_task-friends-s04e08b",
      "RepetitionTime": 1490.0,
      "Rows": 832,
      "SAR": 0.02959067168139,
      "SamplesPerPixel": 1,
      "ScanOptions": "FS",
      "ScanningSequence": "EP",
      "SequenceName": "epfid2d1_104",
      "SequenceVariant": [
        "SK",
        "SS"
],
      "SeriesDescription": "func_task-friends-s04e08b",
      "SeriesNumber": 11,
      "SeriesTime": "133755.089000",
      "SliceLocation": -36.14531250428,
      "SliceThickness": 2.0,
      "SmallestImagePixelValue": 0,
      "SoftwareVersions": "syngo MR E11",
      "SpacingBetweenSlices": 2.0000000136849,
      "SpecificCharacterSet": "ISO_IR 100",
      "StudyID": "1",
      "StudyTime": "130725.219000",
      "TransmitCoilName": "Body",
      "VariableFlipAngleFlag": "N",
      "WindowCenterWidthExplanation": "Algo1",
      "dBdt": 0.0},
    "slices": {}
  },
  "time": {
    "samples": {
      "AcquisitionNumber": [1, 2, 3, 4, 5, 6, 7, 8, 9, 10, 11, 12, 13, 14, 15, 16, 17, 18, 19, 20, 21, 22, 23, 24, 25, 26, 27, 28, 29, 30, 31, 32, 33, 34, 35, 36, 37, 38, 39, 40, 41, 42, 43, 44, 45, 46, 47, 48, 49, 50, 51, 52, 53, 54, 55, 56, 57, 58, 59, 60, 61, 62, 63, 64, 65, 66, 67, 68, 69, 70, 71, 72, 73, 74, 75, 76, 77, 78, 79, 80, 81, 82, 83, 84, 85, 86, 87, 88, 89, 90, 91, 92, 93, 94, 95, 96, 97, 98, 99, 100, 101, 102, 103, 104, 105, 106, 107, 108, 109, 110, 111, 112, 113, 114, 115, 116, 117, 118, 119, 120, 121, 122, 123, 124, 125, 126, 127, 128, 129, 130, 131, 132, 133, 134, 135, 136, 137, 138, 139, 140, 141, 142, 143, 144, 145, 146, 147, 148, 149, 150, 151, 152, 153, 154, 155, 156, 157, 158, 159, 160, 161, 162, 163, 164, 165, 166, 167, 168, 169, 170, 171, 172, 173, 174, 175, 176, 177, 178, 179, 180, 181, 182, 183, 184, 185, 186, 187, 188, 189, 190, 191, 192, 193, 194, 195, 196, 197, 198, 199, 200, 201, 202, 203, 204, 205, 206, 207, 208, 209, 210, 211, 212, 213, 214, 215, 216, 217, 218, 219, 220, 221, 222, 223, 224, 225, 226, 227, 228, 229, 230, 231, 232, 233, 234, 235, 236, 237, 238, 239, 240, 241, 242, 243, 244, 245, 246, 247, 248, 249, 250, 251, 252, 253, 254, 255, 256, 257, 258, 259, 260, 261, 262, 263, 264, 265, 266, 267, 268, 269, 270, 271, 272, 273, 274, 275, 276, 277, 278, 279, 280, 281, 282, 283, 284, 285, 286, 287, 288, 289, 290, 291, 292, 293, 294, 295, 296, 297, 298, 299, 300, 301, 302, 303, 304, 305, 306, 307, 308, 309, 310, 311, 312, 313, 314, 315, 316, 317, 318, 319, 320, 321, 322, 323, 324, 325, 326, 327, 328, 329, 330, 331, 332, 333, 334, 335, 336, 337, 338, 339, 340, 341, 342, 343, 344, 345, 346, 347, 348, 349, 350, 351, 352, 353, 354, 355, 356, 357, 358, 359, 360, 361, 362, 363, 364, 365, 366, 367, 368, 369, 370, 371, 372, 373, 374, 375, 376, 377, 378, 379, 380, 381, 382, 383, 384, 385, 386, 387, 388, 389, 390, 391, 392, 393, 394, 395, 396, 397, 398, 399, 400, 401, 402, 403, 404, 405, 406, 407, 408, 409, 410, 411, 412, 413, 414, 415, 416, 417, 418, 419, 420, 421, 422, 423, 424, 425, 426, 427, 428, 429, 430, 431, 432, 433, 434, 435, 436, 437, 438, 439, 440, 441, 442, 443, 444, 445, 446, 447, 448, 449, 450, 451, 452, 453, 454, 455, 456, 457, 458, 459, 460, 461, 462, 463, 464, 465, 466, 467, 468, 469, 470, 471, 472, 473, 474, 475, 476, 477, 478, 479, 480, 481, 482, 483, 484, 485, 486, 487, 488, 489, 490, 491, 492, 493, 494, 495, 496, 497, 498, 499, 500, 501, 502, 503],
      "AcquisitionTime": ["133632.342500", "133633.832500", "133635.322500", "133636.812500", "133638.302500", "133639.792500", "133641.282500", "133642.772500", "133644.262500", "133645.752500", "133647.242500", "133648.732500", "133650.222500", "133651.712500", "133653.202500", "133654.692500", "133656.182500", "133657.672500", "133659.162500", "133700.652500", "133702.142500", "133703.632500", "133705.122500", "133706.612500", "133708.102500", "133709.592500", "133711.082500", "133712.572500", "133714.062500", "133715.552500", "133717.042500", "133718.532500", "133720.022500", "133721.512500", "133723.002500", "133724.492500", "133725.982500", "133727.472500", "133728.962500", "133730.452500", "133731.942500", "133733.432500", "133734.922500", "133736.412500", "133737.902500", "133739.392500", "133740.882500", "133742.372500", "133743.862500", "133745.352500", "133746.842500", "133748.332500", "133749.822500", "133751.312500", "133752.802500", "133754.292500", "133755.782500", "133757.272500", "133758.762500", "133800.252500", "133801.742500", "133803.232500", "133804.722500", "133806.212500", "133807.702500", "133809.192500", "133810.682500", "133812.172500", "133813.662500", "133815.152500", "133816.642500", "133818.132500", "133819.622500", "133821.112500", "133822.602500", "133824.092500", "133825.582500", "133827.072500", "133828.562500", "133830.052500", "133831.542500", "133833.032500", "133834.522500", "133836.012500", "133837.502500", "133838.992500", "133840.482500", "133841.972500", "133843.462500", "133844.952500", "133846.442500", "133847.932500", "133849.422500", "133850.912500", "133852.402500", "133853.892500", "133855.382500", "133856.872500", "133858.362500", "133859.852500", "133901.342500", "133902.832500", "133904.322500", "133905.812500", "133907.302500", "133908.792500", "133910.282500", "133911.772500", "133913.262500", "133914.752500", "133916.242500", "133917.732500", "133919.222500", "133920.712500", "133922.202500", "133923.692500", "133925.182500", "133926.672500", "133928.162500", "133929.652500", "133931.142500", "133932.632500", "133934.122500", "133935.612500", "133937.102500", "133938.592500", "133940.082500", "133941.572500", "133943.062500", "133944.552500", "133946.042500", "133947.532500", "133949.022500", "133950.512500", "133952.002500", "133953.492500", "133954.982500", "133956.472500", "133957.962500", "133959.452500", "134000.942500", "134002.432500", "134003.922500", "134005.412500", "134006.902500", "134008.392500", "134009.882500", "134011.372500", "134012.862500", "134014.352500", "134015.842500", "134017.332500", "134018.822500", "134020.312500", "134021.802500", "134023.292500", "134024.782500", "134026.272500", "134027.762500", "134029.252500", "134030.742500", "134032.232500", "134033.722500", "134035.212500", "134036.702500", "134038.192500", "134039.682500", "134041.172500", "134042.662500", "134044.152500", "134045.642500", "134047.132500", "134048.622500", "134050.112500", "134051.602500", "134053.092500", "134054.582500", "134056.072500", "134057.562500", "134059.052500", "134100.542500", "134102.032500", "134103.522500", "134105.012500", "134106.502500", "134107.992500", "134109.482500", "134110.972500", "134112.462500", "134113.952500", "134115.442500", "134116.932500", "134118.422500", "134119.912500", "134121.402500", "134122.892500", "134124.382500", "134125.872500", "134127.362500", "134128.852500", "134130.342500", "134131.832500", "134133.322500", "134134.812500", "134136.302500", "134137.792500", "134139.282500", "134140.772500", "134142.262500", "134143.752500", "134145.242500", "134146.732500", "134148.222500", "134149.712500", "134151.202500", "134152.692500", "134154.182500", "134155.672500", "134157.162500", "134158.652500", "134200.142500", "134201.632500", "134203.122500", "134204.612500", "134206.102500", "134207.592500", "134209.082500", "134210.572500", "134212.062500", "134213.552500", "134215.042500", "134216.532500", "134218.022500", "134219.512500", "134221.002500", "134222.492500", "134223.982500", "134225.472500", "134226.962500", "134228.452500", "134229.942500", "134231.432500", "134232.922500", "134234.412500", "134235.902500", "134237.392500", "134238.882500", "134240.372500", "134241.862500", "134243.352500", "134244.842500", "134246.332500", "134247.822500", "134249.312500", "134250.802500", "134252.292500", "134253.782500", "134255.272500", "134256.762500", "134258.252500", "134259.742500", "134301.232500", "134302.722500", "134304.212500", "134305.702500", "134307.192500", "134308.682500", "134310.172500", "134311.662500", "134313.152500", "134314.642500", "134316.132500", "134317.622500", "134319.112500", "134320.602500", "134322.092500", "134323.582500", "134325.072500", "134326.562500", "134328.052500", "134329.542500", "134331.032500", "134332.522500", "134334.012500", "134335.502500", "134336.992500", "134338.482500", "134339.972500", "134341.462500", "134342.952500", "134344.442500", "134345.932500", "134347.422500", "134348.912500", "134350.402500", "134351.892500", "134353.382500", "134354.872500", "134356.362500", "134357.852500", "134359.342500", "134400.832500", "134402.322500", "134403.812500", "134405.302500", "134406.792500", "134408.282500", "134409.772500", "134411.262500", "134412.752500", "134414.242500", "134415.732500", "134417.222500", "134418.712500", "134420.202500", "134421.692500", "134423.182500", "134424.672500", "134426.162500", "134427.652500", "134429.142500", "134430.632500", "134432.122500", "134433.612500", "134435.102500", "134436.592500", "134438.082500", "134439.572500", "134441.062500", "134442.552500", "134444.042500", "134445.532500", "134447.022500", "134448.512500", "134450.002500", "134451.492500", "134452.982500", "134454.472500", "134455.962500", "134457.452500", "134458.942500", "134500.432500", "134501.922500", "134503.412500", "134504.902500", "134506.392500", "134507.882500", "134509.372500", "134510.862500", "134512.352500", "134513.842500", "134515.332500", "134516.822500", "134518.312500", "134519.802500", "134521.292500", "134522.782500", "134524.272500", "134525.762500", "134527.252500", "134528.742500", "134530.232500", "134531.722500", "134533.212500", "134534.702500", "134536.192500", "134537.682500", "134539.172500", "134540.662500", "134542.152500", "134543.642500", "134545.132500", "134546.622500", "134548.112500", "134549.602500", "134551.092500", "134552.582500", "134554.072500", "134555.562500", "134557.052500", "134558.542500", "134600.032500", "134601.522500", "134603.012500", "134604.502500", "134605.992500", "134607.482500", "134608.972500", "134610.462500", "134611.952500", "134613.442500", "134614.932500", "134616.422500", "134617.912500", "134619.402500", "134620.892500", "134622.382500", "134623.872500", "134625.362500", "134626.852500", "134628.342500", "134629.832500", "134631.322500", "134632.812500", "134634.302500", "134635.792500", "134637.282500", "134638.772500", "134640.262500", "134641.752500", "134643.242500", "134644.732500", "134646.222500", "134647.712500", "134649.202500", "134650.692500", "134652.182500", "134653.672500", "134655.162500", "134656.652500", "134658.142500", "134659.632500", "134701.122500", "134702.612500", "134704.102500", "134705.592500", "134707.082500", "134708.572500", "134710.062500", "134711.552500", "134713.042500", "134714.532500", "134716.022500", "134717.512500", "134719.002500", "134720.492500", "134721.982500", "134723.472500", "134724.962500", "134726.452500", "134727.942500", "134729.432500", "134730.922500", "134732.412500", "134733.902500", "134735.392500", "134736.882500", "134738.372500", "134739.862500", "134741.352500", "134742.842500", "134744.332500", "134745.822500", "134747.312500", "134748.802500", "134750.292500", "134751.782500", "134753.272500", "134754.762500", "134756.252500", "134757.742500", "134759.232500", "134800.722500", "134802.212500", "134803.702500", "134805.192500", "134806.682500", "134808.172500", "134809.662500", "134811.152500", "134812.642500", "134814.132500", "134815.622500", "134817.112500", "134818.602500", "134820.092500", "134821.582500", "134823.072500", "134824.562500", "134826.052500", "134827.542500", "134829.032500", "134830.522500", "134832.012500", "134833.502500", "134834.992500", "134836.482500", "134837.972500", "134839.462500", "134840.952500", "134842.442500", "134843.932500", "134845.422500", "134846.912500", "134848.402500", "134849.892500", "134851.382500", "134852.872500", "134854.362500", "134855.852500", "134857.342500", "134858.832500", "134900.322500"],
      "ContentTime": ["133755.092000", "133755.096000", "133755.099000", "133755.102000", "133755.105000", "133755.108000", "133755.110000", "133755.113000", "133755.116000", "133755.119000", "133755.122000", "133755.137000", "133755.140000", "133755.150000", "133755.153000", "133755.156000", "133755.158000", "133755.161000", "133755.164000", "133755.167000", "133755.170000", "133755.173000", "133755.176000", "133755.178000", "133755.181000", "133755.184000", "133755.187000", "133755.190000", "133755.193000", "133755.196000", "133815.051000", "133815.054000", "133815.056000", "133815.059000", "133815.062000", "133815.065000", "133815.068000", "133815.071000", "133815.074000", "133815.076000", "133815.079000", "133815.082000", "133815.085000", "133815.088000", "133815.090000", "133815.093000", "133815.096000", "133815.099000", "133815.102000", "133815.104000", "133835.049000", "133835.052000", "133835.055000", "133835.058000", "133835.060000", "133835.063000", "133835.066000", "133835.069000", "133835.072000", "133835.074000", "133835.077000", "133835.080000", "133835.083000", "133835.086000", "133835.089000", "133835.092000", "133835.094000", "133835.097000", "133835.100000", "133835.108000", "133855.049000", "133855.052000", "133855.055000", "133855.058000", "133855.061000", "133855.064000", "133855.066000", "133855.069000", "133855.072000", "133855.075000", "133855.078000", "133855.081000", "133855.083000", "133855.086000", "133855.095000", "133855.098000", "133855.101000", "133855.104000", "133855.108000", "133855.110000", "133935.049000", "133935.052000", "133935.055000", "133935.058000", "133935.061000", "133935.063000", "133935.066000", "133935.069000", "133935.072000", "133935.075000", "133935.077000", "133935.080000", "133935.083000", "133935.086000", "133935.089000", "133935.092000", "133935.095000", "133935.097000", "133935.100000", "133935.103000", "133935.106000", "133935.109000", "133935.112000", "133935.115000", "133935.118000", "133935.120000", "133935.123000", "133935.126000", "133935.129000", "133935.132000", "133935.135000", "133935.137000", "134015.050000", "134015.053000", "134015.056000", "134015.059000", "134015.061000", "134015.064000", "134015.067000", "134015.070000", "134015.073000", "134015.076000", "134015.079000", "134015.081000", "134015.084000", "134015.087000", "134015.090000", "134015.093000", "134015.096000", "134015.099000", "134015.102000", "134015.104000", "134015.107000", "134015.110000", "134015.113000", "134015.116000", "134015.119000", "134015.122000", "134015.124000", "134055.049000", "134055.052000", "134055.055000", "134055.058000", "134055.060000", "134055.064000", "134055.067000", "134055.074000", "134055.077000", "134055.080000", "134055.083000", "134055.086000", "134055.089000", "134055.091000", "134055.095000", "134055.097000", "134055.100000", "134055.103000", "134055.106000", "134055.109000", "134055.112000", "134055.114000", "134055.117000", "134055.120000", "134055.123000", "134055.126000", "134135.049000", "134135.052000", "134135.055000", "134135.058000", "134135.060000", "134135.063000", "134135.066000", "134135.069000", "134135.072000", "134135.075000", "134135.078000", "134135.080000", "134135.083000", "134135.086000", "134135.089000", "134135.092000", "134135.095000", "134135.098000", "134135.101000", "134135.103000", "134135.106000", "134135.109000", "134135.112000", "134135.115000", "134135.118000", "134135.120000", "134135.123000", "134215.049000", "134215.052000", "134215.055000", "134215.058000", "134215.061000", "134215.065000", "134215.082000", "134215.085000", "134215.088000", "134215.091000", "134215.094000", "134215.097000", "134215.100000", "134215.103000", "134215.106000", "134215.109000", "134215.112000", "134215.115000", "134215.118000", "134215.121000", "134215.124000", "134215.127000", "134215.130000", "134215.133000", "134215.135000", "134215.138000", "134215.141000", "134255.050000", "134255.053000", "134255.056000", "134255.059000", "134255.061000", "134255.064000", "134255.067000", "134255.080000", "134255.083000", "134255.086000", "134255.088000", "134255.091000", "134255.094000", "134255.097000", "134255.100000", "134255.103000", "134255.106000", "134255.109000", "134255.112000", "134255.114000", "134255.117000", "134255.120000", "134255.123000", "134255.126000", "134255.129000", "134255.132000", "134255.135000", "134335.049000", "134335.052000", "134335.055000", "134335.058000", "134335.060000", "134335.063000", "134335.066000", "134335.069000", "134335.072000", "134335.075000", "134335.078000", "134335.080000", "134335.083000", "134335.086000", "134335.089000", "134335.092000", "134335.095000", "134335.098000", "134335.100000", "134335.103000", "134335.106000", "134335.109000", "134335.112000", "134335.115000", "134335.117000", "134335.120000", "134335.123000", "134415.049000", "134415.052000", "134415.055000", "134415.058000", "134415.061000", "134415.064000", "134415.067000", "134415.070000", "134415.072000", "134415.075000", "134415.078000", "134415.081000", "134415.084000", "134415.087000", "134415.090000", "134415.093000", "134415.096000", "134415.099000", "134415.101000", "134415.104000", "134415.107000", "134415.110000", "134415.113000", "134415.116000", "134415.119000", "134415.122000", "134415.124000", "134455.050000", "134455.053000", "134455.056000", "134455.059000", "134455.062000", "134455.065000", "134455.068000", "134455.071000", "134455.074000", "134455.076000", "134455.079000", "134455.082000", "134455.085000", "134455.088000", "134455.091000", "134455.093000", "134455.096000", "134455.099000", "134455.102000", "134455.105000", "134455.108000", "134455.110000", "134455.113000", "134455.116000", "134455.119000", "134455.122000", "134455.124000", "134535.049000", "134535.052000", "134535.055000", "134535.058000", "134535.061000", "134535.063000", "134535.066000", "134535.069000", "134535.072000", "134535.075000", "134535.078000", "134535.080000", "134535.083000", "134535.086000", "134535.089000", "134535.092000", "134535.095000", "134535.098000", "134535.100000", "134535.103000", "134535.106000", "134535.109000", "134535.112000", "134535.115000", "134535.118000", "134535.120000", "134615.049000", "134615.052000", "134615.055000", "134615.058000", "134615.061000", "134615.064000", "134615.066000", "134615.069000", "134615.072000", "134615.075000", "134615.078000", "134615.081000", "134615.084000", "134615.086000", "134615.089000", "134615.092000", "134615.095000", "134615.098000", "134615.101000", "134615.104000", "134615.107000", "134615.109000", "134615.112000", "134615.115000", "134615.118000", "134615.121000", "134615.123000", "134655.049000", "134655.052000", "134655.067000", "134655.070000", "134655.073000", "134655.076000", "134655.079000", "134655.082000", "134655.084000", "134655.087000", "134655.090000", "134655.093000", "134655.096000", "134655.099000", "134655.102000", "134655.104000", "134655.107000", "134655.110000", "134655.113000", "134655.116000", "134655.119000", "134655.122000", "134655.125000", "134655.128000", "134655.131000", "134655.133000", "134655.136000", "134735.050000", "134735.053000", "134735.056000", "134735.059000", "134735.062000", "134735.065000", "134735.067000", "134735.070000", "134735.073000", "134735.076000", "134735.079000", "134735.082000", "134735.085000", "134735.087000", "134735.090000", "134735.093000", "134735.096000", "134735.099000", "134735.102000", "134735.105000", "134735.108000", "134735.111000", "134735.113000", "134735.116000", "134735.119000", "134735.122000", "134735.125000", "134815.049000", "134815.052000", "134815.055000", "134815.058000", "134815.061000", "134815.064000", "134815.066000", "134815.069000", "134815.072000", "134815.075000", "134815.078000", "134815.081000", "134815.083000", "134815.086000", "134815.089000", "134815.092000", "134815.095000", "134815.098000", "134815.101000", "134815.103000", "134815.106000", "134815.109000", "134815.112000", "134815.115000", "134815.118000", "134815.126000", "134815.129000", "134855.049000", "134855.052000", "134855.055000", "134855.058000", "134855.061000", "134855.064000", "134855.067000", "134855.069000", "134855.072000", "134855.075000", "134855.078000", "134855.081000", "134855.084000", "134855.087000", "134855.089000", "134855.092000", "134855.095000", "134855.098000", "134855.101000", "134855.104000", "134855.107000", "134855.109000", "134855.112000", "134855.115000", "134855.118000", "134855.121000", "134855.124000", "134902.417000", "134902.421000", "134902.423000", "134902.426000", "134902.429000"],
