{
  "AcquisitionMatrixPE": 104,
  "AcquisitionNumber": 1,
  "AcquisitionTime": "13:23:36.272500",
  "BandwidthPerPixelPhaseEncode": 17.17,
  "BaseResolution": 104,
  "BodyPartExamined": "BRAIN",
  "CoilString": "HC1-7;NC1_2",
  "ConsistencyInfo": "N4_VE11C_LATEST_20160120",
  "ConversionSoftware": "dcm2niix",
  "ConversionSoftwareVersion": "v1.0.20190902",
  "DerivedVendorReportedEchoSpacing": 0.000560011,
  "DeviceSerialNumber": "167006",
  "DwellTime": 2.1e-06,
  "EchoTime": 0.037,
  "EchoTrainLength": 104,
  "EffectiveEchoSpacing": 0.000560011,
  "FlipAngle": 52,
  "ImageComments": "Unaliased_MB4_PE3_LB",
  "ImageOrientationPatientDICOM": [0.998271, 0.00174248, -0.0587539, -0.0155078, 0.971953, -0.234664],
  "ImageType": [
    "ORIGINAL",
    "PRIMARY",
    "M",
    "MB",
    "ND",
    "MOSAIC"
],
  "ImagingFrequency": 123.259,
  "InPlanePhaseEncodingDirectionDICOM": "COL",
  "InstitutionAddress": "Chemin_Queen-Mary_4565_Montreal_District_CA_H3W_1W5",
  "InstitutionName": "IUGM",
  "InstitutionalDepartmentName": "Department",
  "MRAcquisitionType": "2D",
  "MagneticFieldStrength": 3,
  "Manufacturer": "Siemens",
  "ManufacturersModelName": "Prisma_fit",
  "Modality": "MR",
  "MultibandAccelerationFactor": 4,
  "PartialFourier": 1,
  "PatientPosition": "HFS",
  "PercentPhaseFOV": 100,
  "PhaseEncodingDirection": "j",
  "PhaseEncodingSteps": 104,
  "PhaseResolution": 1,
  "PixelBandwidth": 2290,
  "ProcedureStepDescription": "video_friends",
  "ProtocolName": "func_task-friends-s04e08a",
  "PulseSequenceDetails": "%CustomerSeq%_cmrr_mbep2d_bold",
  "ReceiveCoilActiveElements": "HC1-7;NC1,2",
  "ReceiveCoilName": "HeadNeck_64",
  "ReconMatrixPE": 104,
  "RepetitionTime": 1.49,
  "SAR": 0.0295907,
  "ScanOptions": "FS",
  "ScanningSequence": "EP",
  "SequenceName": "epfid2d1_104",
  "SequenceVariant": "SK_SS",
  "SeriesDescription": "func_task-friends-s04e08a",
  "SeriesNumber": 9,
  "ShimSetting": [603, -7250, -8829, 627, -63, -263, 9, 42],
  "SliceThickness": 2,
  "SliceTiming": [0, 0.7825, 0.0975, 0.8825, 0.195, 0.98, 0.2925, 1.0775, 0.3925, 1.175, 0.49, 1.2725, 0.5875, 1.37, 0.685, 0, 0.7825, 0.0975, 0.8825, 0.195, 0.98, 0.2925, 1.0775, 0.3925, 1.175, 0.49, 1.2725, 0.5875, 1.37, 0.685, 0, 0.7825, 0.0975, 0.8825, 0.195, 0.98, 0.2925, 1.0775, 0.3925, 1.175, 0.49, 1.2725, 0.5875, 1.37, 0.685, 0, 0.7825, 0.0975, 0.8825, 0.195, 0.98, 0.2925, 1.0775, 0.3925, 1.175, 0.49, 1.2725, 0.5875, 1.37, 0.685],
  "SoftwareVersions": "syngo_MR_E11",
  "SpacingBetweenSlices": 2,
  "StationName": "MRC35049",
  "TaskName": "s04e08a",
  "TotalReadoutTime": 0.0576811,
  "TxRefAmp": 217.752,
  "WipMemBlock": "2e00ae23-eb2d-4ed4-bb7f-fe3f98e2048a||Sequence: R016 ve11c/master r/e634e98; Dec 19 2017 11:00:25 by eja",
  "dcmmeta_affine": [
    [-1.996541976928711, -0.031015662476420403, -0.11339418590068817, 103.47686767578125],
    [-0.0034849662333726883, 1.9439057111740112, -0.47033846378326416, -82.06816864013672],
    [-0.11750773340463638, 0.4693276286125183, 1.940598726272583, -51.09596252441406],
    [0.0, 0.0, 0.0, 1.0]
],
  "dcmmeta_reorient_transform": [
    [0.0, -1.0, 0.0, 103.0],
    [1.0, 0.0, 0.0, 0.0],
    [0.0, 0.0, 1.0, 0.0],
    [0.0, 0.0, 0.0, 1.0]
],
  "dcmmeta_shape": [104, 104, 60, 503],
  "dcmmeta_slice_dim": 2,
  "dcmmeta_version": 0.6,
  "global": {
    "const": {
      "AcquisitionMatrix": [104, 0, 0, 104],
      "AngioFlag": "N",
      "BitsAllocated": 16,
      "BitsStored": 16,
      "BodyPartExamined": "BRAIN",
      "Columns": 832,
      "EchoNumbers": 1,
      "EchoTime": 37.0,
      "EchoTrainLength": 104,
      "FlipAngle": 52.0,
      "HighBit": 15,
      "ImageOrientationPatient": [0.99827097871707, 0.00174248306845, -0.05875386629, -0.0155078315018, 0.97195287889989, -0.2346638198793],
      "ImagePositionPatient": [-815.73382337459, -827.00435171979, 210.85285830716],
      "ImageType": [
        "ORIGINAL",
        "PRIMARY",
        "M",
        "MB",
        "ND",
        "MOSAIC"
],
      "ImagedNucleus": "1H",
      "ImagingFrequency": 123.259021,
      "InPlanePhaseEncodingDirection": "COL",
      "MRAcquisitionType": "2D",
      "MagneticFieldStrength": 3.0,
      "Manufacturer": "SIEMENS",
      "ManufacturerModelName": "Prisma_fit",
      "Modality": "MR",
      "NumberOfAverages": 1.0,
      "NumberOfPhaseEncodingSteps": 104,
      "PercentPhaseFieldOfView": 100.0,
      "PercentSampling": 100.0,
      "PerformedProcedureStepStartTime": "130725.358000",
      "PhotometricInterpretation": "MONOCHROME2",
      "PixelBandwidth": 2290.0,
      "PixelRepresentation": 0,
      "PixelSpacing": [2.0, 2.0],
      "ProtocolName": "func_task-friends-s04e08a",
      "RepetitionTime": 1490.0,
      "Rows": 832,
      "SAR": 0.02959067168139,
      "SamplesPerPixel": 1,
      "ScanOptions": "FS",
      "ScanningSequence": "EP",
      "SequenceName": "epfid2d1_104",
      "SequenceVariant": [
        "SK",
        "SS"
],
      "SeriesDescription": "func_task-friends-s04e08a",
      "SeriesNumber": 9,
      "SeriesTime": "132454.215000",
      "SliceLocation": -36.14531250428,
      "SliceThickness": 2.0,
      "SmallestImagePixelValue": 0,
      "SoftwareVersions": "syngo MR E11",
      "SpacingBetweenSlices": 2.0000000136849,
      "SpecificCharacterSet": "ISO_IR 100",
      "StudyID": "1",
      "StudyTime": "130725.219000",
      "TransmitCoilName": "Body",
      "VariableFlipAngleFlag": "N",
      "WindowCenterWidthExplanation": "Algo1",
      "dBdt": 0.0},
    "slices": {}
  },
  "time": {
    "samples": {
      "AcquisitionNumber": [1, 2, 3, 4, 5, 6, 7, 8, 9, 10, 11, 12, 13, 14, 15, 16, 17, 18, 19, 20, 21, 22, 23, 24, 25, 26, 27, 28, 29, 30, 31, 32, 33, 34, 35, 36, 37, 38, 39, 40, 41, 42, 43, 44, 45, 46, 47, 48, 49, 50, 51, 52, 53, 54, 55, 56, 57, 58, 59, 60, 61, 62, 63, 64, 65, 66, 67, 68, 69, 70, 71, 72, 73, 74, 75, 76, 77, 78, 79, 80, 81, 82, 83, 84, 85, 86, 87, 88, 89, 90, 91, 92, 93, 94, 95, 96, 97, 98, 99, 100, 101, 102, 103, 104, 105, 106, 107, 108, 109, 110, 111, 112, 113, 114, 115, 116, 117, 118, 119, 120, 121, 122, 123, 124, 125, 126, 127, 128, 129, 130, 131, 132, 133, 134, 135, 136, 137, 138, 139, 140, 141, 142, 143, 144, 145, 146, 147, 148, 149, 150, 151, 152, 153, 154, 155, 156, 157, 158, 159, 160, 161, 162, 163, 164, 165, 166, 167, 168, 169, 170, 171, 172, 173, 174, 175, 176, 177, 178, 179, 180, 181, 182, 183, 184, 185, 186, 187, 188, 189, 190, 191, 192, 193, 194, 195, 196, 197, 198, 199, 200, 201, 202, 203, 204, 205, 206, 207, 208, 209, 210, 211, 212, 213, 214, 215, 216, 217, 218, 219, 220, 221, 222, 223, 224, 225, 226, 227, 228, 229, 230, 231, 232, 233, 234, 235, 236, 237, 238, 239, 240, 241, 242, 243, 244, 245, 246, 247, 248, 249, 250, 251, 252, 253, 254, 255, 256, 257, 258, 259, 260, 261, 262, 263, 264, 265, 266, 267, 268, 269, 270, 271, 272, 273, 274, 275, 276, 277, 278, 279, 280, 281, 282, 283, 284, 285, 286, 287, 288, 289, 290, 291, 292, 293, 294, 295, 296, 297, 298, 299, 300, 301, 302, 303, 304, 305, 306, 307, 308, 309, 310, 311, 312, 313, 314, 315, 316, 317, 318, 319, 320, 321, 322, 323, 324, 325, 326, 327, 328, 329, 330, 331, 332, 333, 334, 335, 336, 337, 338, 339, 340, 341, 342, 343, 344, 345, 346, 347, 348, 349, 350, 351, 352, 353, 354, 355, 356, 357, 358, 359, 360, 361, 362, 363, 364, 365, 366, 367, 368, 369, 370, 371, 372, 373, 374, 375, 376, 377, 378, 379, 380, 381, 382, 383, 384, 385, 386, 387, 388, 389, 390, 391, 392, 393, 394, 395, 396, 397, 398, 399, 400, 401, 402, 403, 404, 405, 406, 407, 408, 409, 410, 411, 412, 413, 414, 415, 416, 417, 418, 419, 420, 421, 422, 423, 424, 425, 426, 427, 428, 429, 430, 431, 432, 433, 434, 435, 436, 437, 438, 439, 440, 441, 442, 443, 444, 445, 446, 447, 448, 449, 450, 451, 452, 453, 454, 455, 456, 457, 458, 459, 460, 461, 462, 463, 464, 465, 466, 467, 468, 469, 470, 471, 472, 473, 474, 475, 476, 477, 478, 479, 480, 481, 482, 483, 484, 485, 486, 487, 488, 489, 490, 491, 492, 493, 494, 495, 496, 497, 498, 499, 500, 501, 502, 503],
      "AcquisitionTime": ["132336.272500", "132337.762500", "132339.252500", "132340.742500", "132342.232500", "132343.722500", "132345.212500", "132346.702500", "132348.192500", "132349.682500", "132351.172500", "132352.662500", "132354.152500", "132355.642500", "132357.132500", "132358.622500", "132400.112500", "132401.602500", "132403.092500", "132404.582500", "132406.072500", "132407.562500", "132409.052500", "132410.542500", "132412.032500", "132413.522500", "132415.012500", "132416.502500", "132417.992500", "132419.482500", "132420.972500", "132422.462500", "132423.952500", "132425.442500", "132426.932500", "132428.422500", "132429.912500", "132431.402500", "132432.892500", "132434.382500", "132435.872500", "132437.362500", "132438.852500", "132440.342500", "132441.832500", "132443.322500", "132444.812500", "132446.302500", "132447.792500", "132449.282500", "132450.772500", "132452.262500", "132453.752500", "132455.242500", "132456.732500", "132458.222500", "132459.712500", "132501.202500", "132502.692500", "132504.182500", "132505.672500", "132507.162500", "132508.652500", "132510.142500", "132511.632500", "132513.122500", "132514.612500", "132516.102500", "132517.592500", "132519.082500", "132520.572500", "132522.062500", "132523.552500", "132525.042500", "132526.532500", "132528.022500", "132529.512500", "132531.002500", "132532.492500", "132533.982500", "132535.472500", "132536.962500", "132538.452500", "132539.942500", "132541.432500", "132542.922500", "132544.412500", "132545.902500", "132547.392500", "132548.882500", "132550.372500", "132551.862500", "132553.352500", "132554.842500", "132556.332500", "132557.822500", "132559.312500", "132600.802500", "132602.292500", "132603.782500", "132605.272500", "132606.762500", "132608.252500", "132609.742500", "132611.232500", "132612.722500", "132614.212500", "132615.702500", "132617.192500", "132618.682500", "132620.172500", "132621.662500", "132623.152500", "132624.642500", "132626.132500", "132627.622500", "132629.112500", "132630.602500", "132632.092500", "132633.582500", "132635.072500", "132636.562500", "132638.052500", "132639.542500", "132641.032500", "132642.522500", "132644.012500", "132645.502500", "132646.992500", "132648.482500", "132649.972500", "132651.462500", "132652.952500", "132654.442500", "132655.932500", "132657.422500", "132658.912500", "132700.402500", "132701.892500", "132703.382500", "132704.872500", "132706.362500", "132707.852500", "132709.342500", "132710.832500", "132712.322500", "132713.812500", "132715.302500", "132716.792500", "132718.282500", "132719.772500", "132721.262500", "132722.752500", "132724.242500", "132725.732500", "132727.222500", "132728.712500", "132730.202500", "132731.692500", "132733.182500", "132734.672500", "132736.162500", "132737.652500", "132739.142500", "132740.632500", "132742.122500", "132743.612500", "132745.102500", "132746.592500", "132748.082500", "132749.572500", "132751.062500", "132752.552500", "132754.042500", "132755.532500", "132757.022500", "132758.512500", "132800.002500", "132801.492500", "132802.982500", "132804.472500", "132805.962500", "132807.452500", "132808.942500", "132810.432500", "132811.922500", "132813.412500", "132814.902500", "132816.392500", "132817.882500", "132819.372500", "132820.862500", "132822.352500", "132823.842500", "132825.332500", "132826.822500", "132828.312500", "132829.802500", "132831.292500", "132832.782500", "132834.272500", "132835.762500", "132837.252500", "132838.742500", "132840.232500", "132841.722500", "132843.212500", "132844.702500", "132846.192500", "132847.682500", "132849.172500", "132850.662500", "132852.152500", "132853.642500", "132855.132500", "132856.622500", "132858.112500", "132859.602500", "132901.092500", "132902.582500", "132904.072500", "132905.562500", "132907.052500", "132908.542500", "132910.032500", "132911.522500", "132913.012500", "132914.502500", "132915.992500", "132917.482500", "132918.972500", "132920.462500", "132921.952500", "132923.442500", "132924.932500", "132926.422500", "132927.912500", "132929.402500", "132930.892500", "132932.382500", "132933.872500", "132935.362500", "132936.852500", "132938.342500", "132939.832500", "132941.322500", "132942.812500", "132944.302500", "132945.792500", "132947.282500", "132948.772500", "132950.262500", "132951.752500", "132953.242500", "132954.732500", "132956.222500", "132957.712500", "132959.202500", "133000.692500", "133002.182500", "133003.672500", "133005.162500", "133006.652500", "133008.142500", "133009.632500", "133011.122500", "133012.612500", "133014.102500", "133015.592500", "133017.082500", "133018.572500", "133020.062500", "133021.552500", "133023.042500", "133024.532500", "133026.022500", "133027.512500", "133029.002500", "133030.492500", "133031.982500", "133033.472500", "133034.962500", "133036.452500", "133037.942500", "133039.432500", "133040.922500", "133042.412500", "133043.902500", "133045.392500", "133046.882500", "133048.372500", "133049.862500", "133051.352500", "133052.842500", "133054.332500", "133055.822500", "133057.312500", "133058.802500", "133100.292500", "133101.782500", "133103.272500", "133104.762500", "133106.252500", "133107.742500", "133109.232500", "133110.722500", "133112.212500", "133113.702500", "133115.192500", "133116.682500", "133118.172500", "133119.662500", "133121.152500", "133122.642500", "133124.132500", "133125.622500", "133127.112500", "133128.602500", "133130.092500", "133131.582500", "133133.072500", "133134.562500", "133136.052500", "133137.542500", "133139.032500", "133140.522500", "133142.012500", "133143.502500", "133144.992500", "133146.482500", "133147.972500", "133149.462500", "133150.952500", "133152.442500", "133153.932500", "133155.422500", "133156.912500", "133158.402500", "133159.892500", "133201.382500", "133202.872500", "133204.362500", "133205.852500", "133207.342500", "133208.832500", "133210.322500", "133211.812500", "133213.302500", "133214.792500", "133216.282500", "133217.772500", "133219.262500", "133220.752500", "133222.242500", "133223.732500", "133225.222500", "133226.712500", "133228.202500", "133229.692500", "133231.182500", "133232.672500", "133234.162500", "133235.652500", "133237.142500", "133238.632500", "133240.122500", "133241.612500", "133243.102500", "133244.592500", "133246.082500", "133247.572500", "133249.062500", "133250.552500", "133252.042500", "133253.532500", "133255.022500", "133256.512500", "133258.002500", "133259.492500", "133300.982500", "133302.472500", "133303.962500", "133305.452500", "133306.942500", "133308.432500", "133309.922500", "133311.412500", "133312.902500", "133314.392500", "133315.882500", "133317.372500", "133318.862500", "133320.352500", "133321.842500", "133323.332500", "133324.822500", "133326.312500", "133327.802500", "133329.292500", "133330.782500", "133332.272500", "133333.762500", "133335.252500", "133336.742500", "133338.232500", "133339.722500", "133341.212500", "133342.702500", "133344.192500", "133345.682500", "133347.172500", "133348.662500", "133350.152500", "133351.642500", "133353.132500", "133354.622500", "133356.112500", "133357.602500", "133359.092500", "133400.582500", "133402.072500", "133403.562500", "133405.052500", "133406.542500", "133408.032500", "133409.522500", "133411.012500", "133412.502500", "133413.992500", "133415.482500", "133416.972500", "133418.462500", "133419.952500", "133421.442500", "133422.932500", "133424.422500", "133425.912500", "133427.402500", "133428.892500", "133430.382500", "133431.872500", "133433.362500", "133434.852500", "133436.342500", "133437.832500", "133439.322500", "133440.812500", "133442.302500", "133443.792500", "133445.282500", "133446.772500", "133448.262500", "133449.752500", "133451.242500", "133452.732500", "133454.222500", "133455.712500", "133457.202500", "133458.692500", "133500.182500", "133501.672500", "133503.162500", "133504.652500", "133506.142500", "133507.632500", "133509.122500", "133510.612500", "133512.102500", "133513.592500", "133515.082500", "133516.572500", "133518.062500", "133519.552500", "133521.042500", "133522.532500", "133524.022500", "133525.512500", "133527.002500", "133528.492500", "133529.982500", "133531.472500", "133532.962500", "133534.452500", "133535.942500", "133537.432500", "133538.922500", "133540.412500", "133541.902500", "133543.392500", "133544.882500", "133546.372500", "133547.862500", "133549.352500", "133550.842500", "133552.332500", "133553.822500", "133555.312500", "133556.802500", "133558.292500", "133559.782500", "133601.272500", "133602.762500", "133604.252500"],
      "ContentTime": ["132454.218000", "132454.221000", "132454.224000", "132454.227000", "132454.229000", "132454.232000", "132454.235000", "132454.238000", "132454.241000", "132454.243000", "132454.246000", "132454.249000", "132454.252000", "132454.255000", "132454.257000", "132454.260000", "132454.263000", "132454.271000", "132454.274000", "132454.277000", "132454.279000", "132514.176000", "132514.182000", "132514.184000", "132514.187000", "132514.190000", "132514.193000", "132514.196000", "132514.199000", "132514.202000", "132514.204000", "132514.207000", "132514.210000", "132514.213000", "132514.216000", "132514.218000", "132514.221000", "132514.224000", "132514.227000", "132514.230000", "132514.232000", "132534.176000", "132534.179000", "132534.182000", "132534.184000", "132534.187000", "132534.190000", "132534.193000", "132534.196000", "132534.198000", "132534.201000", "132534.204000", "132534.207000", "132534.210000", "132534.212000", "132534.215000", "132534.218000", "132534.221000", "132534.224000", "132534.226000", "132534.229000", "132554.176000", "132554.179000", "132554.182000", "132554.184000", "132554.187000", "132554.190000", "132554.193000", "132554.196000", "132554.199000", "132554.201000", "132554.204000", "132554.207000", "132554.210000", "132554.213000", "132554.215000", "132554.218000", "132554.221000", "132554.224000", "132554.227000", "132554.229000", "132614.176000", "132614.179000", "132614.182000", "132614.184000", "132614.187000", "132614.190000", "132614.193000", "132614.196000", "132614.198000", "132614.201000", "132614.204000", "132614.207000", "132614.210000", "132614.213000", "132614.215000", "132614.218000", "132614.221000", "132614.224000", "132614.226000", "132614.229000", "132654.176000", "132654.179000", "132654.181000", "132654.184000", "132654.187000", "132654.190000", "132654.193000", "132654.196000", "132654.198000", "132654.201000", "132654.204000", "132654.207000", "132654.214000", "132654.217000", "132654.220000", "132654.222000", "132654.225000", "132654.228000", "132654.231000", "132654.234000", "132654.236000", "132654.239000", "132654.242000", "132654.245000", "132654.248000", "132654.250000", "132654.253000", "132654.256000", "132654.259000", "132654.262000", "132654.264000", "132734.176000", "132734.179000", "132734.182000", "132734.184000", "132734.187000", "132734.190000", "132734.193000", "132734.196000", "132734.199000", "132734.201000", "132734.204000", "132734.207000", "132734.210000", "132734.213000", "132734.216000", "132734.218000", "132734.221000", "132734.224000", "132734.227000", "132734.230000", "132734.233000", "132734.235000", "132734.238000", "132734.241000", "132734.244000", "132734.247000", "132734.249000", "132814.176000", "132814.180000", "132814.182000", "132814.185000", "132814.188000", "132814.191000", "132814.194000", "132814.197000", "132814.200000", "132814.202000", "132814.205000", "132814.208000", "132814.211000", "132814.214000", "132814.229000", "132814.232000", "132814.235000", "132814.238000", "132814.241000", "132814.243000", "132814.246000", "132814.249000", "132814.252000", "132814.255000", "132814.258000", "132814.261000", "132854.176000", "132854.179000", "132854.182000", "132854.184000", "132854.187000", "132854.190000", "132854.193000", "132854.196000", "132854.198000", "132854.201000", "132854.204000", "132854.207000", "132854.210000", "132854.213000", "132854.215000", "132854.218000", "132854.221000", "132854.224000", "132854.227000", "132854.230000", "132854.232000", "132854.240000", "132854.243000", "132854.246000", "132854.249000", "132854.252000", "132854.254000", "132934.176000", "132934.179000", "132934.182000", "132934.185000", "132934.188000", "132934.191000", "132934.194000", "132934.197000", "132934.199000", "132934.202000", "132934.205000", "132934.208000", "132934.211000", "132934.214000", "132934.216000", "132934.219000", "132934.222000", "132934.225000", "132934.228000", "132934.231000", "132934.233000", "132934.236000", "132934.239000", "132934.242000", "132934.245000", "132934.247000", "132934.250000", "133014.176000", "133014.179000", "133014.182000", "133014.185000", "133014.187000", "133014.190000", "133014.193000", "133014.196000", "133014.199000", "133014.202000", "133014.204000", "133014.207000", "133014.210000", "133014.213000", "133014.216000", "133014.218000", "133014.221000", "133014.224000", "133014.227000", "133014.230000", "133014.232000", "133014.235000", "133014.238000", "133014.241000", "133014.244000", "133014.246000", "133014.249000", "133054.176000", "133054.179000", "133054.182000", "133054.184000", "133054.187000", "133054.190000", "133054.193000", "133054.196000", "133054.199000", "133054.201000", "133054.204000", "133054.207000", "133054.210000", "133054.213000", "133054.216000", "133054.219000", "133054.221000", "133054.224000", "133054.227000", "133054.230000", "133054.233000", "133054.236000", "133054.238000", "133054.241000", "133054.244000", "133054.247000", "133054.250000", "133134.176000", "133134.179000", "133134.182000", "133134.185000", "133134.188000", "133134.190000", "133134.193000", "133134.196000", "133134.199000", "133134.202000", "133134.205000", "133134.208000", "133134.210000", "133134.213000", "133134.216000", "133134.219000", "133134.222000", "133134.225000", "133134.227000", "133134.230000", "133134.233000", "133134.236000", "133134.239000", "133134.241000", "133134.244000", "133134.247000", "133134.250000", "133214.177000", "133214.180000", "133214.183000", "133214.186000", "133214.189000", "133214.192000", "133214.195000", "133214.198000", "133214.201000", "133214.203000", "133214.206000", "133214.209000", "133214.212000", "133214.215000", "133214.218000", "133214.221000", "133214.224000", "133214.226000", "133214.229000", "133214.232000", "133214.235000", "133214.238000", "133214.241000", "133214.244000", "133214.246000", "133214.249000", "133254.176000", "133254.179000", "133254.195000", "133254.198000", "133254.201000", "133254.203000", "133254.206000", "133254.209000", "133254.212000", "133254.215000", "133254.217000", "133254.220000", "133254.223000", "133254.226000", "133254.229000", "133254.232000", "133254.235000", "133254.237000", "133254.240000", "133254.243000", "133254.246000", "133254.249000", "133254.251000", "133254.254000", "133254.257000", "133254.260000", "133254.263000", "133334.176000", "133334.179000", "133334.182000", "133334.184000", "133334.187000", "133334.190000", "133334.193000", "133334.196000", "133334.199000", "133334.201000", "133334.204000", "133334.207000", "133334.210000", "133334.213000", "133334.215000", "133334.218000", "133334.221000", "133334.224000", "133334.227000", "133334.230000", "133334.233000", "133334.235000", "133334.238000", "133334.241000", "133334.244000", "133334.246000", "133334.249000", "133414.176000", "133414.179000", "133414.182000", "133414.184000", "133414.187000", "133414.190000", "133414.193000", "133414.196000", "133414.199000", "133414.201000", "133414.204000", "133414.207000", "133414.210000", "133414.213000", "133414.216000", "133414.219000", "133414.221000", "133414.224000", "133414.227000", "133414.230000", "133414.233000", "133414.235000", "133414.238000", "133414.241000", "133414.244000", "133414.247000", "133414.250000", "133454.176000", "133454.179000", "133454.182000", "133454.184000", "133454.187000", "133454.190000", "133454.193000", "133454.196000", "133454.199000", "133454.201000", "133454.204000", "133454.207000", "133454.210000", "133454.213000", "133454.215000", "133454.218000", "133454.221000", "133454.224000", "133454.227000", "133454.230000", "133454.232000", "133454.235000", "133454.238000", "133454.241000", "133454.244000", "133454.246000", "133454.249000", "133534.176000", "133534.179000", "133534.182000", "133534.185000", "133534.187000", "133534.190000", "133534.193000", "133534.196000", "133534.199000", "133534.202000", "133534.204000", "133534.207000", "133534.210000", "133534.213000", "133534.216000", "133534.219000", "133534.221000", "133534.224000", "133534.227000", "133534.230000", "133534.233000", "133534.235000", "133534.238000", "133534.241000", "133534.244000", "133534.247000", "133534.249000", "133606.676000", "133606.680000", "133606.683000", "133606.686000", "133606.689000", "133606.692000", "133606.695000", "133606.698000", "133606.701000", "133606.704000", "133606.707000", "133606.709000", "133606.712000", "133606.715000", "133606.718000", "133606.721000", "133606.724000", "133606.727000", "133606.730000", "133606.733000", "133606.736000", "133606.738000"],
