{
  "AcquisitionMatrixPE": 104,
  "AcquisitionNumber": 1,
  "AcquisitionTime": "14:01:8.685000",
  "BandwidthPerPixelPhaseEncode": 17.17,
  "BaseResolution": 104,
  "BodyPartExamined": "BRAIN",
  "CoilString": "HC1-7;NC1_2",
  "ConsistencyInfo": "N4_VE11C_LATEST_20160120",
  "ConversionSoftware": "dcm2niix",
  "ConversionSoftwareVersion": "v1.0.20190902",
  "DerivedVendorReportedEchoSpacing": 0.000560011,
  "DeviceSerialNumber": "167006",
  "DwellTime": 2.1e-06,
  "EchoTime": 0.037,
  "EchoTrainLength": 104,
  "EffectiveEchoSpacing": 0.000560011,
  "FlipAngle": 52,
  "ImageComments": "Unaliased_MB4_PE3_LB",
  "ImageOrientationPatientDICOM": [0.998271, 0.00174248, -0.0587539, -0.0155078, 0.971953, -0.234664],
  "ImageType": [
    "ORIGINAL",
    "PRIMARY",
    "M",
    "MB",
    "ND",
    "MOSAIC"
],
  "ImagingFrequency": 123.259,
  "InPlanePhaseEncodingDirectionDICOM": "COL",
  "InstitutionAddress": "Chemin_Queen-Mary_4565_Montreal_District_CA_H3W_1W5",
  "InstitutionName": "IUGM",
  "InstitutionalDepartmentName": "Department",
  "MRAcquisitionType": "2D",
  "MagneticFieldStrength": 3,
  "Manufacturer": "Siemens",
  "ManufacturersModelName": "Prisma_fit",
  "Modality": "MR",
  "MultibandAccelerationFactor": 4,
  "PartialFourier": 1,
  "PatientPosition": "HFS",
  "PercentPhaseFOV": 100,
  "PhaseEncodingDirection": "j",
  "PhaseEncodingSteps": 104,
  "PhaseResolution": 1,
  "PixelBandwidth": 2290,
  "ProcedureStepDescription": "video_friends",
  "ProtocolName": "func_task-friends-s04e09b",
  "PulseSequenceDetails": "%CustomerSeq%_cmrr_mbep2d_bold",
  "ReceiveCoilActiveElements": "HC1-7;NC1,2",
  "ReceiveCoilName": "HeadNeck_64",
  "ReconMatrixPE": 104,
  "RepetitionTime": 1.49,
  "SAR": 0.0295743,
  "ScanOptions": "FS",
  "ScanningSequence": "EP",
  "SequenceName": "epfid2d1_104",
  "SequenceVariant": "SK_SS",
  "SeriesDescription": "func_task-friends-s04e09b",
  "SeriesNumber": 15,
  "ShimSetting": [603, -7250, -8829, 627, -63, -263, 9, 42],
  "SliceThickness": 2,
  "SliceTiming": [0, 0.785, 0.0975, 0.8825, 0.1975, 0.98, 0.295, 1.0775, 0.3925, 1.1775, 0.49, 1.275, 0.5875, 1.3725, 0.6875, 0, 0.785, 0.0975, 0.8825, 0.1975, 0.98, 0.295, 1.0775, 0.3925, 1.1775, 0.49, 1.275, 0.5875, 1.3725, 0.6875, 0, 0.785, 0.0975, 0.8825, 0.1975, 0.98, 0.295, 1.0775, 0.3925, 1.1775, 0.49, 1.275, 0.5875, 1.3725, 0.6875, 0, 0.785, 0.0975, 0.8825, 0.1975, 0.98, 0.295, 1.0775, 0.3925, 1.1775, 0.49, 1.275, 0.5875, 1.3725, 0.6875],
  "SoftwareVersions": "syngo_MR_E11",
  "SpacingBetweenSlices": 2,
  "StationName": "MRC35049",
  "TaskName": "s04e09b",
  "TotalReadoutTime": 0.0576811,
  "TxRefAmp": 217.752,
  "WipMemBlock": "100f4ce2-e395-4548-bdbb-6a25b07b3458||Sequence: R016 ve11c/master r/e634e98; Dec 19 2017 11:00:25 by eja",
  "dcmmeta_affine": [
    [-1.996541976928711, -0.031015662476420403, -0.11339418590068817, 103.47686767578125],
    [-0.0034849662333726883, 1.9439057111740112, -0.47033846378326416, -82.06816864013672],
    [-0.11750773340463638, 0.4693276286125183, 1.940598726272583, -51.09596252441406],
    [0.0, 0.0, 0.0, 1.0]
],
  "dcmmeta_reorient_transform": [
    [0.0, -1.0, 0.0, 103.0],
    [1.0, 0.0, 0.0, 0.0],
    [0.0, 0.0, 1.0, 0.0],
    [0.0, 0.0, 0.0, 1.0]
],
  "dcmmeta_shape": [104, 104, 60, 441],
  "dcmmeta_slice_dim": 2,
  "dcmmeta_version": 0.6,
  "global": {
    "const": {
      "AcquisitionMatrix": [104, 0, 0, 104],
      "AngioFlag": "N",
      "BitsAllocated": 16,
      "BitsStored": 16,
      "BodyPartExamined": "BRAIN",
      "Columns": 832,
      "EchoNumbers": 1,
      "EchoTime": 37.0,
      "EchoTrainLength": 104,
      "FlipAngle": 52.0,
      "HighBit": 15,
      "ImageOrientationPatient": [0.99827097871707, 0.00174248306845, -0.05875386629, -0.0155078315018, 0.97195287889989, -0.2346638198793],
      "ImagePositionPatient": [-815.73382337459, -827.00435171979, 210.85285830716],
      "ImageType": [
        "ORIGINAL",
        "PRIMARY",
        "M",
        "MB",
        "ND",
        "MOSAIC"
],
      "ImagedNucleus": "1H",
      "ImagingFrequency": 123.259039,
      "InPlanePhaseEncodingDirection": "COL",
      "MRAcquisitionType": "2D",
      "MagneticFieldStrength": 3.0,
      "Manufacturer": "SIEMENS",
      "ManufacturerModelName": "Prisma_fit",
      "Modality": "MR",
      "NumberOfAverages": 1.0,
      "NumberOfPhaseEncodingSteps": 104,
      "PercentPhaseFieldOfView": 100.0,
      "PercentSampling": 100.0,
      "PerformedProcedureStepStartTime": "130725.358000",
      "PhotometricInterpretation": "MONOCHROME2",
      "PixelBandwidth": 2290.0,
      "PixelRepresentation": 0,
      "PixelSpacing": [2.0, 2.0],
      "ProtocolName": "func_task-friends-s04e09b",
      "RepetitionTime": 1490.0,
      "Rows": 832,
      "SAR": 0.02957433568947,
      "SamplesPerPixel": 1,
      "ScanOptions": "FS",
      "ScanningSequence": "EP",
      "SequenceName": "epfid2d1_104",
      "SequenceVariant": [
        "SK",
        "SS"
],
      "SeriesDescription": "func_task-friends-s04e09b",
      "SeriesNumber": 15,
      "SeriesTime": "140214.203000",
      "SliceLocation": -36.14531250428,
      "SliceThickness": 2.0,
      "SmallestImagePixelValue": 0,
      "SoftwareVersions": "syngo MR E11",
      "SpacingBetweenSlices": 2.0000000136849,
      "SpecificCharacterSet": "ISO_IR 100",
      "StudyID": "1",
      "StudyTime": "130725.219000",
      "TransmitCoilName": "Body",
      "VariableFlipAngleFlag": "N",
      "WindowCenterWidthExplanation": "Algo1",
      "dBdt": 0.0},
    "slices": {}
  },
  "time": {
    "samples": {
      "AcquisitionNumber": [1, 2, 3, 4, 5, 6, 7, 8, 9, 10, 11, 12, 13, 14, 15, 16, 17, 18, 19, 20, 21, 22, 23, 24, 25, 26, 27, 28, 29, 30, 31, 32, 33, 34, 35, 36, 37, 38, 39, 40, 41, 42, 43, 44, 45, 46, 47, 48, 49, 50, 51, 52, 53, 54, 55, 56, 57, 58, 59, 60, 61, 62, 63, 64, 65, 66, 67, 68, 69, 70, 71, 72, 73, 74, 75, 76, 77, 78, 79, 80, 81, 82, 83, 84, 85, 86, 87, 88, 89, 90, 91, 92, 93, 94, 95, 96, 97, 98, 99, 100, 101, 102, 103, 104, 105, 106, 107, 108, 109, 110, 111, 112, 113, 114, 115, 116, 117, 118, 119, 120, 121, 122, 123, 124, 125, 126, 127, 128, 129, 130, 131, 132, 133, 134, 135, 136, 137, 138, 139, 140, 141, 142, 143, 144, 145, 146, 147, 148, 149, 150, 151, 152, 153, 154, 155, 156, 157, 158, 159, 160, 161, 162, 163, 164, 165, 166, 167, 168, 169, 170, 171, 172, 173, 174, 175, 176, 177, 178, 179, 180, 181, 182, 183, 184, 185, 186, 187, 188, 189, 190, 191, 192, 193, 194, 195, 196, 197, 198, 199, 200, 201, 202, 203, 204, 205, 206, 207, 208, 209, 210, 211, 212, 213, 214, 215, 216, 217, 218, 219, 220, 221, 222, 223, 224, 225, 226, 227, 228, 229, 230, 231, 232, 233, 234, 235, 236, 237, 238, 239, 240, 241, 242, 243, 244, 245, 246, 247, 248, 249, 250, 251, 252, 253, 254, 255, 256, 257, 258, 259, 260, 261, 262, 263, 264, 265, 266, 267, 268, 269, 270, 271, 272, 273, 274, 275, 276, 277, 278, 279, 280, 281, 282, 283, 284, 285, 286, 287, 288, 289, 290, 291, 292, 293, 294, 295, 296, 297, 298, 299, 300, 301, 302, 303, 304, 305, 306, 307, 308, 309, 310, 311, 312, 313, 314, 315, 316, 317, 318, 319, 320, 321, 322, 323, 324, 325, 326, 327, 328, 329, 330, 331, 332, 333, 334, 335, 336, 337, 338, 339, 340, 341, 342, 343, 344, 345, 346, 347, 348, 349, 350, 351, 352, 353, 354, 355, 356, 357, 358, 359, 360, 361, 362, 363, 364, 365, 366, 367, 368, 369, 370, 371, 372, 373, 374, 375, 376, 377, 378, 379, 380, 381, 382, 383, 384, 385, 386, 387, 388, 389, 390, 391, 392, 393, 394, 395, 396, 397, 398, 399, 400, 401, 402, 403, 404, 405, 406, 407, 408, 409, 410, 411, 412, 413, 414, 415, 416, 417, 418, 419, 420, 421, 422, 423, 424, 425, 426, 427, 428, 429, 430, 431, 432, 433, 434, 435, 436, 437, 438, 439, 440, 441],
      "AcquisitionTime": ["140108.685000", "140110.175000", "140111.665000", "140113.155000", "140114.645000", "140116.135000", "140117.625000", "140119.115000", "140120.605000", "140122.095000", "140123.585000", "140125.075000", "140126.565000", "140128.055000", "140129.545000", "140131.035000", "140132.525000", "140134.015000", "140135.505000", "140136.995000", "140138.485000", "140139.975000", "140141.465000", "140142.955000", "140144.445000", "140145.935000", "140147.425000", "140148.915000", "140150.405000", "140151.895000", "140153.385000", "140154.875000", "140156.365000", "140157.855000", "140159.345000", "140200.835000", "140202.325000", "140203.815000", "140205.305000", "140206.795000", "140208.285000", "140209.775000", "140211.265000", "140212.755000", "140214.245000", "140215.735000", "140217.225000", "140218.715000", "140220.205000", "140221.695000", "140223.185000", "140224.675000", "140226.165000", "140227.655000", "140229.145000", "140230.635000", "140232.125000", "140233.615000", "140235.105000", "140236.595000", "140238.085000", "140239.575000", "140241.065000", "140242.555000", "140244.045000", "140245.535000", "140247.025000", "140248.515000", "140250.005000", "140251.495000", "140252.985000", "140254.475000", "140255.965000", "140257.455000", "140258.945000", "140300.435000", "140301.925000", "140303.415000", "140304.905000", "140306.395000", "140307.885000", "140309.375000", "140310.865000", "140312.355000", "140313.845000", "140315.335000", "140316.825000", "140318.315000", "140319.805000", "140321.295000", "140322.785000", "140324.275000", "140325.765000", "140327.255000", "140328.745000", "140330.235000", "140331.725000", "140333.215000", "140334.705000", "140336.195000", "140337.685000", "140339.175000", "140340.665000", "140342.155000", "140343.645000", "140345.135000", "140346.625000", "140348.115000", "140349.605000", "140351.095000", "140352.585000", "140354.075000", "140355.565000", "140357.055000", "140358.545000", "140400.035000", "140401.525000", "140403.015000", "140404.505000", "140405.995000", "140407.485000", "140408.975000", "140410.465000", "140411.955000", "140413.445000", "140414.935000", "140416.425000", "140417.915000", "140419.405000", "140420.895000", "140422.385000", "140423.875000", "140425.365000", "140426.855000", "140428.345000", "140429.835000", "140431.325000", "140432.815000", "140434.305000", "140435.795000", "140437.285000", "140438.775000", "140440.265000", "140441.755000", "140443.245000", "140444.735000", "140446.225000", "140447.715000", "140449.205000", "140450.695000", "140452.185000", "140453.675000", "140455.165000", "140456.655000", "140458.145000", "140459.635000", "140501.125000", "140502.615000", "140504.105000", "140505.595000", "140507.085000", "140508.575000", "140510.065000", "140511.555000", "140513.045000", "140514.535000", "140516.025000", "140517.515000", "140519.005000", "140520.495000", "140521.985000", "140523.475000", "140524.965000", "140526.455000", "140527.945000", "140529.435000", "140530.925000", "140532.415000", "140533.905000", "140535.395000", "140536.885000", "140538.375000", "140539.865000", "140541.355000", "140542.845000", "140544.335000", "140545.825000", "140547.315000", "140548.805000", "140550.295000", "140551.785000", "140553.275000", "140554.765000", "140556.255000", "140557.745000", "140559.235000", "140600.725000", "140602.215000", "140603.705000", "140605.195000", "140606.685000", "140608.175000", "140609.665000", "140611.155000", "140612.645000", "140614.135000", "140615.625000", "140617.115000", "140618.605000", "140620.095000", "140621.585000", "140623.075000", "140624.565000", "140626.055000", "140627.545000", "140629.035000", "140630.525000", "140632.015000", "140633.505000", "140634.995000", "140636.485000", "140637.975000", "140639.465000", "140640.955000", "140642.445000", "140643.935000", "140645.425000", "140646.915000", "140648.405000", "140649.895000", "140651.385000", "140652.875000", "140654.365000", "140655.855000", "140657.345000", "140658.835000", "140700.325000", "140701.815000", "140703.305000", "140704.795000", "140706.285000", "140707.775000", "140709.265000", "140710.755000", "140712.245000", "140713.735000", "140715.225000", "140716.715000", "140718.205000", "140719.695000", "140721.185000", "140722.675000", "140724.165000", "140725.655000", "140727.145000", "140728.635000", "140730.125000", "140731.615000", "140733.105000", "140734.595000", "140736.085000", "140737.575000", "140739.065000", "140740.555000", "140742.045000", "140743.535000", "140745.025000", "140746.515000", "140748.005000", "140749.495000", "140750.985000", "140752.475000", "140753.965000", "140755.455000", "140756.945000", "140758.435000", "140759.925000", "140801.415000", "140802.905000", "140804.395000", "140805.885000", "140807.375000", "140808.865000", "140810.355000", "140811.845000", "140813.335000", "140814.825000", "140816.315000", "140817.805000", "140819.295000", "140820.785000", "140822.275000", "140823.765000", "140825.255000", "140826.745000", "140828.235000", "140829.725000", "140831.215000", "140832.705000", "140834.195000", "140835.685000", "140837.175000", "140838.665000", "140840.155000", "140841.645000", "140843.135000", "140844.625000", "140846.115000", "140847.605000", "140849.095000", "140850.585000", "140852.075000", "140853.565000", "140855.055000", "140856.545000", "140858.035000", "140859.525000", "140901.015000", "140902.505000", "140903.995000", "140905.485000", "140906.975000", "140908.465000", "140909.955000", "140911.445000", "140912.935000", "140914.425000", "140915.915000", "140917.405000", "140918.895000", "140920.385000", "140921.875000", "140923.365000", "140924.855000", "140926.345000", "140927.835000", "140929.325000", "140930.815000", "140932.305000", "140933.795000", "140935.285000", "140936.775000", "140938.265000", "140939.755000", "140941.245000", "140942.735000", "140944.225000", "140945.715000", "140947.205000", "140948.695000", "140950.185000", "140951.675000", "140953.165000", "140954.655000", "140956.145000", "140957.635000", "140959.125000", "141000.615000", "141002.105000", "141003.595000", "141005.085000", "141006.575000", "141008.065000", "141009.555000", "141011.045000", "141012.535000", "141014.025000", "141015.515000", "141017.005000", "141018.495000", "141019.985000", "141021.475000", "141022.965000", "141024.455000", "141025.945000", "141027.435000", "141028.925000", "141030.415000", "141031.905000", "141033.395000", "141034.885000", "141036.375000", "141037.865000", "141039.355000", "141040.845000", "141042.335000", "141043.825000", "141045.315000", "141046.805000", "141048.295000", "141049.785000", "141051.275000", "141052.765000", "141054.255000", "141055.745000", "141057.235000", "141058.725000", "141100.215000", "141101.705000", "141103.195000", "141104.685000", "141106.175000", "141107.665000", "141109.155000", "141110.645000", "141112.135000", "141113.625000", "141115.115000", "141116.605000", "141118.095000", "141119.585000", "141121.075000", "141122.565000", "141124.055000", "141125.545000", "141127.035000", "141128.525000", "141130.015000", "141131.505000", "141132.995000", "141134.485000", "141135.975000", "141137.465000", "141138.955000", "141140.445000", "141141.935000", "141143.425000", "141144.915000", "141146.405000", "141147.895000", "141149.385000", "141150.875000", "141152.365000", "141153.855000", "141155.345000", "141156.835000", "141158.325000", "141159.815000", "141201.305000", "141202.795000", "141204.285000"],
      "ContentTime": ["140214.206000", "140214.218000", "140214.221000", "140214.224000", "140214.227000", "140214.238000", "140214.241000", "140214.243000", "140214.246000", "140214.249000", "140234.176000", "140234.179000", "140234.182000", "140234.191000", "140234.194000", "140234.197000", "140234.199000", "140234.202000", "140234.205000", "140234.208000", "140234.211000", "140234.213000", "140234.216000", "140234.219000", "140234.222000", "140234.225000", "140234.228000", "140234.230000", "140234.233000", "140234.236000", "140254.176000", "140254.179000", "140254.182000", "140254.184000", "140254.187000", "140254.196000", "140254.198000", "140254.201000", "140254.204000", "140254.207000", "140254.210000", "140254.213000", "140254.215000", "140254.218000", "140254.221000", "140254.224000", "140254.227000", "140254.229000", "140254.232000", "140254.235000", "140254.238000", "140314.176000", "140314.179000", "140314.182000", "140314.184000", "140314.187000", "140314.190000", "140314.193000", "140314.196000", "140314.199000", "140314.202000", "140314.204000", "140314.207000", "140314.210000", "140314.213000", "140314.216000", "140314.218000", "140314.221000", "140314.224000", "140314.227000", "140314.230000", "140334.177000", "140334.180000", "140334.183000", "140334.186000", "140334.189000", "140334.192000", "140334.195000", "140334.201000", "140334.204000", "140334.207000", "140334.210000", "140334.213000", "140334.216000", "140334.219000", "140334.221000", "140334.224000", "140334.227000", "140334.230000", "140334.233000", "140334.236000", "140414.176000", "140414.179000", "140414.182000", "140414.184000", "140414.187000", "140414.190000", "140414.193000", "140414.196000", "140414.199000", "140414.201000", "140414.204000", "140414.207000", "140414.210000", "140414.213000", "140414.216000", "140414.218000", "140414.221000", "140414.224000", "140414.227000", "140414.230000", "140414.232000", "140414.235000", "140414.238000", "140414.241000", "140414.244000", "140414.247000", "140414.250000", "140414.252000", "140414.255000", "140414.258000", "140414.261000", "140414.264000", "140414.267000", "140454.176000", "140454.179000", "140454.182000", "140454.185000", "140454.187000", "140454.191000", "140454.195000", "140454.198000", "140454.202000", "140454.205000", "140454.208000", "140454.211000", "140454.215000", "140454.217000", "140454.220000", "140454.223000", "140454.226000", "140454.229000", "140454.232000", "140454.235000", "140454.238000", "140454.240000", "140454.243000", "140454.246000", "140454.249000", "140454.252000", "140534.176000", "140534.179000", "140534.182000", "140534.185000", "140534.187000", "140534.190000", "140534.193000", "140534.196000", "140534.199000", "140534.202000", "140534.205000", "140534.207000", "140534.210000", "140534.213000", "140534.216000", "140534.219000", "140534.221000", "140534.224000", "140534.227000", "140534.245000", "140534.248000", "140534.251000", "140534.254000", "140534.257000", "140534.260000", "140534.262000", "140534.265000", "140614.177000", "140614.180000", "140614.183000", "140614.185000", "140614.188000", "140614.191000", "140614.194000", "140614.197000", "140614.200000", "140614.203000", "140614.205000", "140614.208000", "140614.211000", "140614.214000", "140614.217000", "140614.220000", "140614.222000", "140614.225000", "140614.228000", "140614.231000", "140614.234000", "140614.237000", "140614.239000", "140614.242000", "140614.245000", "140614.248000", "140614.251000", "140654.176000", "140654.179000", "140654.182000", "140654.185000", "140654.188000", "140654.190000", "140654.193000", "140654.196000", "140654.199000", "140654.202000", "140654.205000", "140654.207000", "140654.210000", "140654.213000", "140654.216000", "140654.219000", "140654.222000", "140654.225000", "140654.227000", "140654.230000", "140654.233000", "140654.236000", "140654.239000", "140654.241000", "140654.244000", "140654.247000", "140654.250000", "140734.176000", "140734.179000", "140734.182000", "140734.185000", "140734.187000", "140734.190000", "140734.193000", "140734.196000", "140734.199000", "140734.202000", "140734.211000", "140734.214000", "140734.217000", "140734.220000", "140734.222000", "140734.225000", "140734.228000", "140734.231000", "140734.234000", "140734.237000", "140734.239000", "140734.242000", "140734.245000", "140734.248000", "140734.251000", "140734.254000", "140734.256000", "140814.176000", "140814.179000", "140814.182000", "140814.185000", "140814.188000", "140814.190000", "140814.193000", "140814.196000", "140814.199000", "140814.202000", "140814.205000", "140814.208000", "140814.211000", "140814.213000", "140814.216000", "140814.219000", "140814.222000", "140814.225000", "140814.228000", "140814.231000", "140814.234000", "140814.236000", "140814.239000", "140814.242000", "140814.245000", "140814.248000", "140814.251000", "140854.176000", "140854.179000", "140854.182000", "140854.185000", "140854.188000", "140854.191000", "140854.194000", "140854.196000", "140854.199000", "140854.202000", "140854.205000", "140854.208000", "140854.211000", "140854.214000", "140854.217000", "140854.220000", "140854.222000", "140854.225000", "140854.228000", "140854.231000", "140854.234000", "140854.237000", "140854.240000", "140854.243000", "140854.245000", "140854.248000", "140854.251000", "140934.176000", "140934.179000", "140934.182000", "140934.185000", "140934.188000", "140934.191000", "140934.194000", "140934.197000", "140934.200000", "140934.202000", "140934.205000", "140934.208000", "140934.211000", "140934.214000", "140934.217000", "140934.220000", "140934.223000", "140934.225000", "140934.228000", "140934.231000", "140934.234000", "140934.237000", "140934.240000", "140934.243000", "140934.246000", "140934.249000", "141014.176000", "141014.179000", "141014.182000", "141014.185000", "141014.188000", "141014.190000", "141014.193000", "141014.196000", "141014.199000", "141014.202000", "141014.205000", "141014.208000", "141014.210000", "141014.213000", "141014.227000", "141014.229000", "141014.232000", "141014.235000", "141014.238000", "141014.241000", "141014.244000", "141014.247000", "141014.249000", "141014.252000", "141014.255000", "141014.258000", "141014.261000", "141054.176000", "141054.179000", "141054.182000", "141054.185000", "141054.187000", "141054.190000", "141054.193000", "141054.196000", "141054.199000", "141054.202000", "141054.205000", "141054.207000", "141054.210000", "141054.214000", "141054.217000", "141054.220000", "141054.223000", "141054.225000", "141054.228000", "141054.231000", "141054.234000", "141054.237000", "141054.239000", "141054.242000", "141054.245000", "141054.248000", "141054.251000", "141134.176000", "141134.179000", "141134.182000", "141134.185000", "141134.187000", "141134.190000", "141134.193000", "141134.196000", "141134.199000", "141134.202000", "141134.205000", "141134.207000", "141134.210000", "141134.213000", "141134.216000", "141134.219000", "141134.222000", "141134.225000", "141134.228000", "141134.230000", "141134.233000", "141134.236000", "141134.239000", "141134.242000", "141134.244000", "141134.247000", "141134.250000", "141206.360000", "141206.363000", "141206.366000", "141206.369000", "141206.372000", "141206.375000", "141206.378000", "141206.381000", "141206.384000", "141206.387000", "141206.390000", "141206.393000", "141206.396000", "141206.399000", "141206.402000", "141206.405000", "141206.408000", "141206.411000", "141206.414000", "141206.416000", "141206.419000", "141206.422000"],
