{
  "AcquisitionMatrixPE": 104,
  "AcquisitionNumber": 1,
  "AcquisitionTime": "16:43:55.902500",
  "BandwidthPerPixelPhaseEncode": 17.17,
  "BaseResolution": 104,
  "BodyPartExamined": "BRAIN",
  "CoilCombinationMethod": "Sum of Squares",
  "ConsistencyInfo": "N4_VE11C_LATEST_20160120",
  "ConversionSoftware": "dcm2niix",
  "ConversionSoftwareVersion": "v1.0.20211006",
  "DerivedVendorReportedEchoSpacing": 0.000560011,
  "DeviceSerialNumber": "167006",
  "DwellTime": 2.1e-06,
  "EchoTime": 0.037,
  "EchoTrainLength": 104,
  "EffectiveEchoSpacing": 0.000560011,
  "FlipAngle": 52,
  "HeudiconvVersion": "0.11.3.post9+gc939bf8",
  "ImageComments": "Unaliased MB4/PE3/LB",
  "ImageOrientationPatientDICOM": [0.997912, 0.0645732, 0.00112362, -0.0582382, 0.907259, -0.416521],
  "ImageOrientationText": "Tra>Cor(-24.6)>Sag(1.6)",
  "ImageType": [
    "ORIGINAL",
    "PRIMARY",
    "M",
    "MB",
    "ND",
    "MOSAIC"
],
  "ImagingFrequency": 123.259,
  "InPlanePhaseEncodingDirectionDICOM": "COL",
  "InstitutionAddress": "Chemin Queen-Mary 4565,Montreal,District,CA,H3W 1W5",
  "InstitutionName": "IUGM",
  "InstitutionalDepartmentName": "Department",
  "MRAcquisitionType": "2D",
  "MagneticFieldStrength": 3,
  "Manufacturer": "Siemens",
  "ManufacturersModelName": "Prisma_fit",
  "MatrixCoilMode": "SENSE",
  "Modality": "MR",
  "MultibandAccelerationFactor": 4,
  "PartialFourier": 1,
  "PatientPosition": "HFS",
  "PercentPhaseFOV": 100,
  "PercentSampling": 100,
  "PhaseEncodingDirection": "j",
  "PhaseEncodingSteps": 104,
  "PhaseResolution": 1,
  "PixelBandwidth": 2290,
  "ProcedureStepDescription": "video^friends",
  "ProtocolName": "func_task-friends-s06e17b",
  "PulseSequenceDetails": "%CustomerSeq%\\cmrr_mbep2d_bold",
  "ReceiveCoilActiveElements": "HC1-7;NC1,2",
  "ReceiveCoilName": "HeadNeck_64",
  "ReconMatrixPE": 104,
  "RepetitionTime": 1.49,
  "SAR": 0.0402524,
  "ScanOptions": "FS",
  "ScanningSequence": "EP",
  "SequenceName": "epfid2d1_104",
  "SequenceVariant": "SK\\SS",
  "SeriesDescription": "func_task-friends-s06e17b",
  "SeriesNumber": 14,
  "ShimSetting": [623, -7192, -8820, 643, 86, -38, -108, 2],
  "SliceThickness": 2,
  "SliceTiming": [0, 0.7825, 0.0975, 0.88, 0.195, 0.98, 0.2925, 1.0775, 0.39, 1.175, 0.49, 1.2725, 0.5875, 1.37, 0.685, 0, 0.7825, 0.0975, 0.88, 0.195, 0.98, 0.2925, 1.0775, 0.39, 1.175, 0.49, 1.2725, 0.5875, 1.37, 0.685, 0, 0.7825, 0.0975, 0.88, 0.195, 0.98, 0.2925, 1.0775, 0.39, 1.175, 0.49, 1.2725, 0.5875, 1.37, 0.685, 0, 0.7825, 0.0975, 0.88, 0.195, 0.98, 0.2925, 1.0775, 0.39, 1.175, 0.49, 1.2725, 0.5875, 1.37, 0.685],
  "SoftwareVersions": "syngo MR E11",
  "SpacingBetweenSlices": 2,
  "StationName": "MRC35049",
  "TaskName": "s06e17b",
  "TotalReadoutTime": 0.0576811,
  "TxRefAmp": 240.733,
  "WipMemBlock": "8d9a9d6f-b5f3-4500-84cf-cacdb3eb4a3f||Sequence: R017 ve11c/master r/75a17815+; Jun 28 2022 16:32:11 by eja",
  "dcmmeta_affine": [
    [-1.9958246946334839, -0.11647641658782959, 0.05583103746175766, 106.66555786132812],
    [-0.12914647161960602, 1.814517617225647, -0.8311720490455627, -57.84311294555664],
    [0.002247231313958764, 0.8330420255661011, 1.8182507753372192, -69.37006378173828],
    [0.0, 0.0, 0.0, 1.0]
],
  "dcmmeta_reorient_transform": [
    [0.0, -1.0, 0.0, 103.0],
    [1.0, 0.0, 0.0, 0.0],
    [0.0, 0.0, 1.0, 0.0],
    [0.0, 0.0, 0.0, 1.0]
],
  "dcmmeta_shape": [104, 104, 60, 462],
  "dcmmeta_slice_dim": 2,
  "dcmmeta_version": 0.6,
  "global": {
    "const": {
      "AcquisitionMatrix": [104, 0, 0, 104],
      "AngioFlag": "N",
      "BitsAllocated": 16,
      "BitsStored": 16,
      "BodyPartExamined": "BRAIN",
      "Columns": 832,
      "EchoNumbers": 1,
      "EchoTime": 37.0,
      "EchoTrainLength": 104,
      "FlipAngle": 52.0,
      "HighBit": 15,
      "ImageOrientationPatient": [0.9979123383245, 0.06457323367666, 0.00112361571357, -0.0582382074278, 0.9072588126498, -0.4165210175548],
      "ImagePositionPatient": [-778.75125399652, -836.54593292326, 318.84257192566],
      "ImageType": [
        "ORIGINAL",
        "PRIMARY",
        "M",
        "MB",
        "ND",
        "MOSAIC"
],
      "ImagedNucleus": "1H",
      "ImagingFrequency": 123.258827,
      "InPlanePhaseEncodingDirection": "COL",
      "MRAcquisitionType": "2D",
      "MagneticFieldStrength": 3.0,
      "Manufacturer": "SIEMENS",
      "ManufacturerModelName": "Prisma_fit",
      "Modality": "MR",
      "NumberOfAverages": 1.0,
      "NumberOfPhaseEncodingSteps": 104,
      "PercentPhaseFieldOfView": 100.0,
      "PercentSampling": 100.0,
      "PerformedProcedureStepStartTime": "161334.605000",
      "PhotometricInterpretation": "MONOCHROME2",
      "PixelBandwidth": 2290.0,
      "PixelRepresentation": 0,
      "PixelSpacing": [2.0, 2.0],
      "ProtocolName": "func_task-friends-s06e17b",
      "RepetitionTime": 1490.0,
      "Rows": 832,
      "SAR": 0.0402524378898,
      "SamplesPerPixel": 1,
      "ScanOptions": "FS",
      "ScanningSequence": "EP",
      "SequenceName": "epfid2d1_104",
      "SequenceVariant": [
        "SK",
        "SS"
],
      "SeriesDescription": "func_task-friends-s06e17b",
      "SeriesNumber": 14,
      "SeriesTime": "164506.496000",
      "SliceLocation": -36.049675183452,
      "SliceThickness": 2.0,
      "SmallestImagePixelValue": 0,
      "SoftwareVersions": "syngo MR E11",
      "SpacingBetweenSlices": 1.9999999801615,
      "SpecificCharacterSet": "ISO_IR 100",
      "StudyID": "1",
      "StudyTime": "161334.538000",
      "TransmitCoilName": "Body",
      "VariableFlipAngleFlag": "N",
      "WindowCenterWidthExplanation": "Algo1",
      "dBdt": 0.0},
    "slices": {}
  },
  "time": {
    "samples": {
      "AcquisitionNumber": [1, 2, 3, 4, 5, 6, 7, 8, 9, 10, 11, 12, 13, 14, 15, 16, 17, 18, 19, 20, 21, 22, 23, 24, 25, 26, 27, 28, 29, 30, 31, 32, 33, 34, 35, 36, 37, 38, 39, 40, 41, 42, 43, 44, 45, 46, 47, 48, 49, 50, 51, 52, 53, 54, 55, 56, 57, 58, 59, 60, 61, 62, 63, 64, 65, 66, 67, 68, 69, 70, 71, 72, 73, 74, 75, 76, 77, 78, 79, 80, 81, 82, 83, 84, 85, 86, 87, 88, 89, 90, 91, 92, 93, 94, 95, 96, 97, 98, 99, 100, 101, 102, 103, 104, 105, 106, 107, 108, 109, 110, 111, 112, 113, 114, 115, 116, 117, 118, 119, 120, 121, 122, 123, 124, 125, 126, 127, 128, 129, 130, 131, 132, 133, 134, 135, 136, 137, 138, 139, 140, 141, 142, 143, 144, 145, 146, 147, 148, 149, 150, 151, 152, 153, 154, 155, 156, 157, 158, 159, 160, 161, 162, 163, 164, 165, 166, 167, 168, 169, 170, 171, 172, 173, 174, 175, 176, 177, 178, 179, 180, 181, 182, 183, 184, 185, 186, 187, 188, 189, 190, 191, 192, 193, 194, 195, 196, 197, 198, 199, 200, 201, 202, 203, 204, 205, 206, 207, 208, 209, 210, 211, 212, 213, 214, 215, 216, 217, 218, 219, 220, 221, 222, 223, 224, 225, 226, 227, 228, 229, 230, 231, 232, 233, 234, 235, 236, 237, 238, 239, 240, 241, 242, 243, 244, 245, 246, 247, 248, 249, 250, 251, 252, 253, 254, 255, 256, 257, 258, 259, 260, 261, 262, 263, 264, 265, 266, 267, 268, 269, 270, 271, 272, 273, 274, 275, 276, 277, 278, 279, 280, 281, 282, 283, 284, 285, 286, 287, 288, 289, 290, 291, 292, 293, 294, 295, 296, 297, 298, 299, 300, 301, 302, 303, 304, 305, 306, 307, 308, 309, 310, 311, 312, 313, 314, 315, 316, 317, 318, 319, 320, 321, 322, 323, 324, 325, 326, 327, 328, 329, 330, 331, 332, 333, 334, 335, 336, 337, 338, 339, 340, 341, 342, 343, 344, 345, 346, 347, 348, 349, 350, 351, 352, 353, 354, 355, 356, 357, 358, 359, 360, 361, 362, 363, 364, 365, 366, 367, 368, 369, 370, 371, 372, 373, 374, 375, 376, 377, 378, 379, 380, 381, 382, 383, 384, 385, 386, 387, 388, 389, 390, 391, 392, 393, 394, 395, 396, 397, 398, 399, 400, 401, 402, 403, 404, 405, 406, 407, 408, 409, 410, 411, 412, 413, 414, 415, 416, 417, 418, 419, 420, 421, 422, 423, 424, 425, 426, 427, 428, 429, 430, 431, 432, 433, 434, 435, 436, 437, 438, 439, 440, 441, 442, 443, 444, 445, 446, 447, 448, 449, 450, 451, 452, 453, 454, 455, 456, 457, 458, 459, 460, 461, 462],
      "AcquisitionTime": ["164355.902500", "164357.392500", "164358.882500", "164400.372500", "164401.862500", "164403.352500", "164404.842500", "164406.332500", "164407.822500", "164409.312500", "164410.802500", "164412.292500", "164413.782500", "164415.272500", "164416.762500", "164418.252500", "164419.742500", "164421.232500", "164422.722500", "164424.212500", "164425.702500", "164427.192500", "164428.682500", "164430.172500", "164431.662500", "164433.152500", "164434.642500", "164436.132500", "164437.622500", "164439.112500", "164440.602500", "164442.092500", "164443.582500", "164445.072500", "164446.562500", "164448.052500", "164449.542500", "164451.032500", "164452.522500", "164454.012500", "164455.502500", "164456.992500", "164458.482500", "164459.972500", "164501.462500", "164502.952500", "164504.442500", "164505.932500", "164507.422500", "164508.912500", "164510.402500", "164511.892500", "164513.382500", "164514.872500", "164516.362500", "164517.852500", "164519.342500", "164520.832500", "164522.322500", "164523.812500", "164525.302500", "164526.792500", "164528.282500", "164529.772500", "164531.262500", "164532.752500", "164534.242500", "164535.732500", "164537.222500", "164538.712500", "164540.202500", "164541.692500", "164543.182500", "164544.672500", "164546.162500", "164547.652500", "164549.142500", "164550.632500", "164552.122500", "164553.612500", "164555.102500", "164556.592500", "164558.082500", "164559.572500", "164601.062500", "164602.552500", "164604.042500", "164605.532500", "164607.022500", "164608.512500", "164610.002500", "164611.492500", "164612.982500", "164614.472500", "164615.962500", "164617.452500", "164618.942500", "164620.432500", "164621.922500", "164623.412500", "164624.902500", "164626.392500", "164627.882500", "164629.372500", "164630.862500", "164632.352500", "164633.842500", "164635.332500", "164636.822500", "164638.312500", "164639.802500", "164641.292500", "164642.782500", "164644.272500", "164645.762500", "164647.252500", "164648.742500", "164650.232500", "164651.722500", "164653.212500", "164654.702500", "164656.192500", "164657.682500", "164659.172500", "164700.662500", "164702.152500", "164703.642500", "164705.132500", "164706.622500", "164708.112500", "164709.602500", "164711.092500", "164712.582500", "164714.072500", "164715.562500", "164717.052500", "164718.542500", "164720.032500", "164721.522500", "164723.012500", "164724.502500", "164725.992500", "164727.482500", "164728.972500", "164730.462500", "164731.952500", "164733.442500", "164734.932500", "164736.422500", "164737.912500", "164739.402500", "164740.892500", "164742.382500", "164743.872500", "164745.362500", "164746.852500", "164748.342500", "164749.832500", "164751.322500", "164752.812500", "164754.302500", "164755.792500", "164757.282500", "164758.772500", "164800.262500", "164801.752500", "164803.242500", "164804.732500", "164806.222500", "164807.712500", "164809.202500", "164810.692500", "164812.182500", "164813.672500", "164815.162500", "164816.652500", "164818.142500", "164819.632500", "164821.122500", "164822.612500", "164824.102500", "164825.592500", "164827.082500", "164828.572500", "164830.062500", "164831.552500", "164833.042500", "164834.532500", "164836.022500", "164837.512500", "164839.002500", "164840.492500", "164841.982500", "164843.472500", "164844.962500", "164846.452500", "164847.942500", "164849.432500", "164850.922500", "164852.412500", "164853.902500", "164855.392500", "164856.882500", "164858.372500", "164859.862500", "164901.352500", "164902.842500", "164904.332500", "164905.822500", "164907.312500", "164908.802500", "164910.292500", "164911.782500", "164913.272500", "164914.762500", "164916.252500", "164917.742500", "164919.232500", "164920.722500", "164922.212500", "164923.702500", "164925.192500", "164926.682500", "164928.172500", "164929.662500", "164931.152500", "164932.642500", "164934.132500", "164935.622500", "164937.112500", "164938.602500", "164940.092500", "164941.582500", "164943.072500", "164944.562500", "164946.052500", "164947.542500", "164949.032500", "164950.522500", "164952.012500", "164953.502500", "164954.992500", "164956.482500", "164957.972500", "164959.462500", "165000.952500", "165002.442500", "165003.932500", "165005.422500", "165006.912500", "165008.402500", "165009.892500", "165011.382500", "165012.872500", "165014.362500", "165015.852500", "165017.342500", "165018.832500", "165020.322500", "165021.812500", "165023.302500", "165024.792500", "165026.282500", "165027.772500", "165029.262500", "165030.752500", "165032.242500", "165033.732500", "165035.222500", "165036.712500", "165038.202500", "165039.692500", "165041.182500", "165042.672500", "165044.162500", "165045.652500", "165047.142500", "165048.632500", "165050.122500", "165051.612500", "165053.102500", "165054.592500", "165056.082500", "165057.572500", "165059.062500", "165100.552500", "165102.042500", "165103.532500", "165105.022500", "165106.512500", "165108.002500", "165109.492500", "165110.982500", "165112.472500", "165113.962500", "165115.452500", "165116.942500", "165118.432500", "165119.922500", "165121.412500", "165122.902500", "165124.392500", "165125.882500", "165127.372500", "165128.862500", "165130.352500", "165131.842500", "165133.332500", "165134.822500", "165136.312500", "165137.802500", "165139.292500", "165140.782500", "165142.272500", "165143.762500", "165145.252500", "165146.742500", "165148.232500", "165149.722500", "165151.212500", "165152.702500", "165154.192500", "165155.682500", "165157.172500", "165158.662500", "165200.152500", "165201.642500", "165203.132500", "165204.622500", "165206.112500", "165207.602500", "165209.092500", "165210.582500", "165212.072500", "165213.562500", "165215.052500", "165216.542500", "165218.032500", "165219.522500", "165221.012500", "165222.502500", "165223.992500", "165225.482500", "165226.972500", "165228.462500", "165229.952500", "165231.442500", "165232.932500", "165234.422500", "165235.912500", "165237.402500", "165238.892500", "165240.382500", "165241.872500", "165243.362500", "165244.852500", "165246.342500", "165247.832500", "165249.322500", "165250.812500", "165252.302500", "165253.792500", "165255.282500", "165256.772500", "165258.262500", "165259.752500", "165301.242500", "165302.732500", "165304.222500", "165305.712500", "165307.202500", "165308.692500", "165310.182500", "165311.672500", "165313.162500", "165314.652500", "165316.142500", "165317.632500", "165319.122500", "165320.612500", "165322.102500", "165323.592500", "165325.082500", "165326.572500", "165328.062500", "165329.552500", "165331.042500", "165332.532500", "165334.022500", "165335.512500", "165337.002500", "165338.492500", "165339.982500", "165341.472500", "165342.962500", "165344.452500", "165345.942500", "165347.432500", "165348.922500", "165350.412500", "165351.902500", "165353.392500", "165354.882500", "165356.372500", "165357.862500", "165359.352500", "165400.842500", "165402.332500", "165403.822500", "165405.312500", "165406.802500", "165408.292500", "165409.782500", "165411.272500", "165412.762500", "165414.252500", "165415.742500", "165417.232500", "165418.722500", "165420.212500", "165421.702500", "165423.192500", "165424.682500", "165426.172500", "165427.662500", "165429.152500", "165430.642500", "165432.132500", "165433.622500", "165435.112500", "165436.602500", "165438.092500", "165439.582500", "165441.072500", "165442.562500", "165444.052500", "165445.542500", "165447.032500", "165448.522500", "165450.012500", "165451.502500", "165452.992500", "165454.482500", "165455.972500", "165457.462500", "165458.952500", "165500.442500", "165501.932500", "165503.422500", "165504.912500", "165506.402500", "165507.892500", "165509.382500", "165510.872500", "165512.362500", "165513.852500", "165515.342500", "165516.832500", "165518.322500", "165519.812500", "165521.302500", "165522.792500"],
      "ContentTime": ["164506.499000", "164506.502000", "164506.505000", "164506.508000", "164506.510000", "164506.513000", "164506.516000", "164506.519000", "164506.522000", "164506.534000", "164506.537000", "164506.540000", "164506.549000", "164506.551000", "164506.554000", "164506.557000", "164506.560000", "164506.563000", "164506.565000", "164506.568000", "164506.576000", "164506.579000", "164526.463000", "164526.466000", "164526.469000", "164526.472000", "164526.475000", "164526.477000", "164526.480000", "164526.488000", "164526.491000", "164526.493000", "164526.496000", "164526.499000", "164526.502000", "164526.505000", "164526.507000", "164526.510000", "164526.513000", "164526.516000", "164526.520000", "164526.523000", "164546.463000", "164546.466000", "164546.469000", "164546.471000", "164546.474000", "164546.477000", "164546.480000", "164546.483000", "164546.485000", "164546.488000", "164546.491000", "164546.494000", "164546.497000", "164546.500000", "164546.503000", "164546.505000", "164546.508000", "164546.511000", "164546.514000", "164546.517000", "164546.520000", "164606.463000", "164606.476000", "164606.479000", "164606.482000", "164606.484000", "164606.487000", "164606.490000", "164606.493000", "164606.496000", "164606.499000", "164606.501000", "164606.504000", "164606.507000", "164606.510000", "164606.513000", "164606.516000", "164606.519000", "164606.521000", "164606.524000", "164606.527000", "164646.463000", "164646.475000", "164646.478000", "164646.481000", "164646.484000", "164646.486000", "164646.489000", "164646.492000", "164646.495000", "164646.507000", "164646.509000", "164646.512000", "164646.515000", "164646.518000", "164646.521000", "164646.524000", "164646.526000", "164646.529000", "164646.532000", "164646.535000", "164646.538000", "164646.541000", "164646.544000", "164646.546000", "164646.549000", "164646.552000", "164646.555000", "164646.558000", "164646.561000", "164646.564000", "164646.566000", "164726.463000", "164726.466000", "164726.475000", "164726.478000", "164726.481000", "164726.484000", "164726.487000", "164726.489000", "164726.492000", "164726.495000", "164726.498000", "164726.501000", "164726.503000", "164726.506000", "164726.509000", "164726.512000", "164726.515000", "164726.518000", "164726.520000", "164726.523000", "164726.526000", "164726.529000", "164726.537000", "164726.540000", "164726.542000", "164726.545000", "164726.548000", "164806.463000", "164806.466000", "164806.469000", "164806.472000", "164806.474000", "164806.477000", "164806.480000", "164806.483000", "164806.486000", "164806.489000", "164806.491000", "164806.502000", "164806.504000", "164806.507000", "164806.510000", "164806.513000", "164806.516000", "164806.519000", "164806.522000", "164806.524000", "164806.527000", "164806.530000", "164806.533000", "164806.536000", "164806.539000", "164806.542000", "164806.544000", "164846.463000", "164846.467000", "164846.470000", "164846.474000", "164846.477000", "164846.480000", "164846.483000", "164846.487000", "164846.491000", "164846.495000", "164846.498000", "164846.502000", "164846.505000", "164846.508000", "164846.512000", "164846.515000", "164846.518000", "164846.522000", "164846.525000", "164846.529000", "164846.532000", "164846.535000", "164846.538000", "164846.541000", "164846.545000", "164846.548000", "164926.463000", "164926.466000", "164926.469000", "164926.472000", "164926.486000", "164926.488000", "164926.491000", "164926.494000", "164926.497000", "164926.500000", "164926.503000", "164926.505000", "164926.508000", "164926.511000", "164926.514000", "164926.517000", "164926.520000", "164926.523000", "164926.525000", "164926.528000", "164926.531000", "164926.534000", "164926.537000", "164926.539000", "164926.542000", "164926.615000", "164926.618000", "165006.463000", "165006.466000", "165006.469000", "165006.472000", "165006.475000", "165006.477000", "165006.480000", "165006.483000", "165006.486000", "165006.489000", "165006.492000", "165006.494000", "165006.497000", "165006.500000", "165006.510000", "165006.513000", "165006.516000", "165006.519000", "165006.522000", "165006.524000", "165006.527000", "165006.530000", "165006.533000", "165006.536000", "165006.539000", "165006.541000", "165006.544000", "165046.463000", "165046.466000", "165046.469000", "165046.472000", "165046.474000", "165046.477000", "165046.480000", "165046.483000", "165046.486000", "165046.489000", "165046.492000", "165046.494000", "165046.509000", "165046.512000", "165046.515000", "165046.517000", "165046.520000", "165046.523000", "165046.526000", "165046.529000", "165046.532000", "165046.534000", "165046.537000", "165046.540000", "165046.543000", "165046.546000", "165046.549000", "165126.463000", "165126.466000", "165126.469000", "165126.472000", "165126.474000", "165126.477000", "165126.480000", "165126.483000", "165126.486000", "165126.489000", "165126.492000", "165126.494000", "165126.497000", "165126.500000", "165126.503000", "165126.506000", "165126.509000", "165126.511000", "165126.514000", "165126.517000", "165126.520000", "165126.523000", "165126.526000", "165126.528000", "165126.531000", "165126.534000", "165126.537000", "165206.463000", "165206.466000", "165206.469000", "165206.472000", "165206.474000", "165206.477000", "165206.480000", "165206.483000", "165206.486000", "165206.489000", "165206.491000", "165206.494000", "165206.497000", "165206.500000", "165206.503000", "165206.506000", "165206.509000", "165206.512000", "165206.515000", "165206.517000", "165206.520000", "165206.523000", "165206.526000", "165206.529000", "165206.532000", "165206.535000", "165206.538000", "165246.463000", "165246.466000", "165246.469000", "165246.472000", "165246.475000", "165246.477000", "165246.480000", "165246.483000", "165246.486000", "165246.489000", "165246.492000", "165246.495000", "165246.499000", "165246.502000", "165246.505000", "165246.508000", "165246.512000", "165246.515000", "165246.518000", "165246.520000", "165246.523000", "165246.526000", "165246.529000", "165246.532000", "165246.535000", "165246.538000", "165326.463000", "165326.466000", "165326.469000", "165326.472000", "165326.475000", "165326.477000", "165326.480000", "165326.483000", "165326.486000", "165326.489000", "165326.492000", "165326.495000", "165326.497000", "165326.500000", "165326.503000", "165326.506000", "165326.509000", "165326.512000", "165326.514000", "165326.517000", "165326.520000", "165326.523000", "165326.526000", "165326.529000", "165326.532000", "165326.534000", "165326.537000", "165406.463000", "165406.466000", "165406.469000", "165406.472000", "165406.475000", "165406.478000", "165406.480000", "165406.483000", "165406.486000", "165406.489000", "165406.492000", "165406.495000", "165406.498000", "165406.501000", "165406.503000", "165406.506000", "165406.509000", "165406.512000", "165406.515000", "165406.518000", "165406.520000", "165406.523000", "165406.526000", "165406.529000", "165406.532000", "165406.535000", "165406.538000", "165446.463000", "165446.466000", "165446.469000", "165446.472000", "165446.475000", "165446.477000", "165446.480000", "165446.483000", "165446.486000", "165446.489000", "165446.499000", "165446.502000", "165446.505000", "165446.508000", "165446.511000", "165446.513000", "165446.516000", "165446.519000", "165446.522000", "165446.525000", "165446.528000", "165446.531000", "165446.533000", "165446.536000", "165446.539000", "165446.542000", "165446.545000", "165506.463000", "165506.466000", "165506.469000", "165506.472000", "165506.475000", "165506.477000", "165506.480000", "165506.483000", "165506.497000", "165506.500000", "165506.503000", "165506.506000", "165506.509000", "165524.496000", "165524.499000", "165524.502000", "165524.505000", "165524.508000", "165524.510000", "165524.513000", "165524.516000", "165524.519000", "165524.522000", "165524.525000", "165524.528000", "165524.530000"],
