{
  "AcquisitionMatrixPE": 104,
  "AcquisitionNumber": 1,
  "AcquisitionTime": "16:18:19.985000",
  "BandwidthPerPixelPhaseEncode": 17.17,
  "BaseResolution": 104,
  "BodyPartExamined": "BRAIN",
  "CoilCombinationMethod": "Sum of Squares",
  "ConsistencyInfo": "N4_VE11C_LATEST_20160120",
  "ConversionSoftware": "dcm2niix",
  "ConversionSoftwareVersion": "v1.0.20211006",
  "DerivedVendorReportedEchoSpacing": 0.000560011,
  "DeviceSerialNumber": "167006",
  "DwellTime": 2.1e-06,
  "EchoTime": 0.037,
  "EchoTrainLength": 104,
  "EffectiveEchoSpacing": 0.000560011,
  "FlipAngle": 52,
  "HeudiconvVersion": "0.11.3.post9+gc939bf8",
  "ImageComments": "Unaliased MB4/PE3/LB",
  "ImageOrientationPatientDICOM": [0.997912, 0.0645732, 0.00112362, -0.0582382, 0.907259, -0.416521],
  "ImageOrientationText": "Tra>Cor(-24.6)>Sag(1.6)",
  "ImageType": [
    "ORIGINAL",
    "PRIMARY",
    "M",
    "MB",
    "ND",
    "MOSAIC"
],
  "ImagingFrequency": 123.259,
  "InPlanePhaseEncodingDirectionDICOM": "COL",
  "InstitutionAddress": "Chemin Queen-Mary 4565,Montreal,District,CA,H3W 1W5",
  "InstitutionName": "IUGM",
  "InstitutionalDepartmentName": "Department",
  "MRAcquisitionType": "2D",
  "MagneticFieldStrength": 3,
  "Manufacturer": "Siemens",
  "ManufacturersModelName": "Prisma_fit",
  "MatrixCoilMode": "SENSE",
  "Modality": "MR",
  "MultibandAccelerationFactor": 4,
  "PartialFourier": 1,
  "PatientPosition": "HFS",
  "PercentPhaseFOV": 100,
  "PercentSampling": 100,
  "PhaseEncodingDirection": "j",
  "PhaseEncodingSteps": 104,
  "PhaseResolution": 1,
  "PixelBandwidth": 2290,
  "ProcedureStepDescription": "video^friends",
  "ProtocolName": "func_task-friends-s06e15d",
  "PulseSequenceDetails": "%CustomerSeq%\\cmrr_mbep2d_bold",
  "ReceiveCoilActiveElements": "HC1-7;NC1,2",
  "ReceiveCoilName": "HeadNeck_64",
  "ReconMatrixPE": 104,
  "RepetitionTime": 1.49,
  "SAR": 0.0402524,
  "ScanOptions": "FS",
  "ScanningSequence": "EP",
  "SequenceName": "epfid2d1_104",
  "SequenceVariant": "SK\\SS",
  "SeriesDescription": "func_task-friends-s06e15d",
  "SeriesNumber": 10,
  "ShimSetting": [623, -7192, -8820, 643, 86, -38, -108, 2],
  "SliceThickness": 2,
  "SliceTiming": [0, 0.7825, 0.0975, 0.8825, 0.195, 0.98, 0.2925, 1.0775, 0.3925, 1.175, 0.49, 1.2725, 0.5875, 1.3725, 0.685, 0, 0.7825, 0.0975, 0.8825, 0.195, 0.98, 0.2925, 1.0775, 0.3925, 1.175, 0.49, 1.2725, 0.5875, 1.3725, 0.685, 0, 0.7825, 0.0975, 0.8825, 0.195, 0.98, 0.2925, 1.0775, 0.3925, 1.175, 0.49, 1.2725, 0.5875, 1.3725, 0.685, 0, 0.7825, 0.0975, 0.8825, 0.195, 0.98, 0.2925, 1.0775, 0.3925, 1.175, 0.49, 1.2725, 0.5875, 1.3725, 0.685],
  "SoftwareVersions": "syngo MR E11",
  "SpacingBetweenSlices": 2,
  "StationName": "MRC35049",
  "TaskName": "s06e15d",
  "TotalReadoutTime": 0.0576811,
  "TxRefAmp": 240.733,
  "WipMemBlock": "c5ca0aad-70e0-4c33-831b-6a7d978d358d||Sequence: R017 ve11c/master r/75a17815+; Jun 28 2022 16:32:11 by eja",
  "dcmmeta_affine": [
    [-1.9958246946334839, -0.11647641658782959, 0.05583103746175766, 106.66555786132812],
    [-0.12914647161960602, 1.814517617225647, -0.8311720490455627, -57.84311294555664],
    [0.002247231313958764, 0.8330420255661011, 1.8182507753372192, -69.37006378173828],
    [0.0, 0.0, 0.0, 1.0]
],
  "dcmmeta_reorient_transform": [
    [0.0, -1.0, 0.0, 103.0],
    [1.0, 0.0, 0.0, 0.0],
    [0.0, 0.0, 1.0, 0.0],
    [0.0, 0.0, 0.0, 1.0]
],
  "dcmmeta_shape": [104, 104, 60, 490],
  "dcmmeta_slice_dim": 2,
  "dcmmeta_version": 0.6,
  "global": {
    "const": {
      "AcquisitionMatrix": [104, 0, 0, 104],
      "AngioFlag": "N",
      "BitsAllocated": 16,
      "BitsStored": 16,
      "BodyPartExamined": "BRAIN",
      "Columns": 832,
      "EchoNumbers": 1,
      "EchoTime": 37.0,
      "EchoTrainLength": 104,
      "FlipAngle": 52.0,
      "HighBit": 15,
      "ImageOrientationPatient": [0.9979123383245, 0.06457323367666, 0.00112361571357, -0.0582382074278, 0.9072588126498, -0.4165210175548],
      "ImagePositionPatient": [-778.75125399652, -836.54593292326, 318.84257192566],
      "ImageType": [
        "ORIGINAL",
        "PRIMARY",
        "M",
        "MB",
        "ND",
        "MOSAIC"
],
      "ImagedNucleus": "1H",
      "ImagingFrequency": 123.258808,
      "InPlanePhaseEncodingDirection": "COL",
      "MRAcquisitionType": "2D",
      "MagneticFieldStrength": 3.0,
      "Manufacturer": "SIEMENS",
      "ManufacturerModelName": "Prisma_fit",
      "Modality": "MR",
      "NumberOfAverages": 1.0,
      "NumberOfPhaseEncodingSteps": 104,
      "PercentPhaseFieldOfView": 100.0,
      "PercentSampling": 100.0,
      "PerformedProcedureStepStartTime": "161334.605000",
      "PhotometricInterpretation": "MONOCHROME2",
      "PixelBandwidth": 2290.0,
      "PixelRepresentation": 0,
      "PixelSpacing": [2.0, 2.0],
      "ProtocolName": "func_task-friends-s06e15d",
      "RepetitionTime": 1490.0,
      "Rows": 832,
      "SAR": 0.04025243794428,
      "SamplesPerPixel": 1,
      "ScanOptions": "FS",
      "ScanningSequence": "EP",
      "SequenceName": "epfid2d1_104",
      "SequenceVariant": [
        "SK",
        "SS"
],
      "SeriesDescription": "func_task-friends-s06e15d",
      "SeriesNumber": 10,
      "SeriesTime": "161935.366000",
      "SliceLocation": -36.049675183452,
      "SliceThickness": 2.0,
      "SmallestImagePixelValue": 0,
      "SoftwareVersions": "syngo MR E11",
      "SpacingBetweenSlices": 1.9999999801615,
      "SpecificCharacterSet": "ISO_IR 100",
      "StudyID": "1",
      "StudyTime": "161334.538000",
      "TransmitCoilName": "Body",
      "VariableFlipAngleFlag": "N",
      "WindowCenterWidthExplanation": "Algo1",
      "dBdt": 0.0},
    "slices": {}
  },
  "time": {
    "samples": {
      "AcquisitionNumber": [1, 2, 3, 4, 5, 6, 7, 8, 9, 10, 11, 12, 13, 14, 15, 16, 17, 18, 19, 20, 21, 22, 23, 24, 25, 26, 27, 28, 29, 30, 31, 32, 33, 34, 35, 36, 37, 38, 39, 40, 41, 42, 43, 44, 45, 46, 47, 48, 49, 50, 51, 52, 53, 54, 55, 56, 57, 58, 59, 60, 61, 62, 63, 64, 65, 66, 67, 68, 69, 70, 71, 72, 73, 74, 75, 76, 77, 78, 79, 80, 81, 82, 83, 84, 85, 86, 87, 88, 89, 90, 91, 92, 93, 94, 95, 96, 97, 98, 99, 100, 101, 102, 103, 104, 105, 106, 107, 108, 109, 110, 111, 112, 113, 114, 115, 116, 117, 118, 119, 120, 121, 122, 123, 124, 125, 126, 127, 128, 129, 130, 131, 132, 133, 134, 135, 136, 137, 138, 139, 140, 141, 142, 143, 144, 145, 146, 147, 148, 149, 150, 151, 152, 153, 154, 155, 156, 157, 158, 159, 160, 161, 162, 163, 164, 165, 166, 167, 168, 169, 170, 171, 172, 173, 174, 175, 176, 177, 178, 179, 180, 181, 182, 183, 184, 185, 186, 187, 188, 189, 190, 191, 192, 193, 194, 195, 196, 197, 198, 199, 200, 201, 202, 203, 204, 205, 206, 207, 208, 209, 210, 211, 212, 213, 214, 215, 216, 217, 218, 219, 220, 221, 222, 223, 224, 225, 226, 227, 228, 229, 230, 231, 232, 233, 234, 235, 236, 237, 238, 239, 240, 241, 242, 243, 244, 245, 246, 247, 248, 249, 250, 251, 252, 253, 254, 255, 256, 257, 258, 259, 260, 261, 262, 263, 264, 265, 266, 267, 268, 269, 270, 271, 272, 273, 274, 275, 276, 277, 278, 279, 280, 281, 282, 283, 284, 285, 286, 287, 288, 289, 290, 291, 292, 293, 294, 295, 296, 297, 298, 299, 300, 301, 302, 303, 304, 305, 306, 307, 308, 309, 310, 311, 312, 313, 314, 315, 316, 317, 318, 319, 320, 321, 322, 323, 324, 325, 326, 327, 328, 329, 330, 331, 332, 333, 334, 335, 336, 337, 338, 339, 340, 341, 342, 343, 344, 345, 346, 347, 348, 349, 350, 351, 352, 353, 354, 355, 356, 357, 358, 359, 360, 361, 362, 363, 364, 365, 366, 367, 368, 369, 370, 371, 372, 373, 374, 375, 376, 377, 378, 379, 380, 381, 382, 383, 384, 385, 386, 387, 388, 389, 390, 391, 392, 393, 394, 395, 396, 397, 398, 399, 400, 401, 402, 403, 404, 405, 406, 407, 408, 409, 410, 411, 412, 413, 414, 415, 416, 417, 418, 419, 420, 421, 422, 423, 424, 425, 426, 427, 428, 429, 430, 431, 432, 433, 434, 435, 436, 437, 438, 439, 440, 441, 442, 443, 444, 445, 446, 447, 448, 449, 450, 451, 452, 453, 454, 455, 456, 457, 458, 459, 460, 461, 462, 463, 464, 465, 466, 467, 468, 469, 470, 471, 472, 473, 474, 475, 476, 477, 478, 479, 480, 481, 482, 483, 484, 485, 486, 487, 488, 489, 490],
      "AcquisitionTime": ["161819.985000", "161821.475000", "161822.965000", "161824.455000", "161825.945000", "161827.435000", "161828.925000", "161830.415000", "161831.905000", "161833.395000", "161834.885000", "161836.375000", "161837.865000", "161839.355000", "161840.845000", "161842.335000", "161843.825000", "161845.315000", "161846.805000", "161848.295000", "161849.785000", "161851.275000", "161852.765000", "161854.255000", "161855.745000", "161857.235000", "161858.725000", "161900.215000", "161901.705000", "161903.195000", "161904.685000", "161906.175000", "161907.665000", "161909.155000", "161910.645000", "161912.135000", "161913.625000", "161915.115000", "161916.605000", "161918.095000", "161919.585000", "161921.075000", "161922.565000", "161924.055000", "161925.545000", "161927.035000", "161928.525000", "161930.015000", "161931.505000", "161932.995000", "161934.485000", "161935.975000", "161937.465000", "161938.955000", "161940.445000", "161941.935000", "161943.425000", "161944.915000", "161946.405000", "161947.895000", "161949.385000", "161950.875000", "161952.365000", "161953.855000", "161955.345000", "161956.835000", "161958.325000", "161959.815000", "162001.305000", "162002.795000", "162004.285000", "162005.775000", "162007.265000", "162008.755000", "162010.245000", "162011.735000", "162013.225000", "162014.715000", "162016.205000", "162017.695000", "162019.185000", "162020.675000", "162022.165000", "162023.655000", "162025.145000", "162026.635000", "162028.125000", "162029.615000", "162031.105000", "162032.595000", "162034.085000", "162035.575000", "162037.065000", "162038.555000", "162040.045000", "162041.535000", "162043.025000", "162044.515000", "162046.005000", "162047.495000", "162048.985000", "162050.475000", "162051.965000", "162053.455000", "162054.945000", "162056.435000", "162057.925000", "162059.415000", "162100.905000", "162102.395000", "162103.885000", "162105.375000", "162106.865000", "162108.355000", "162109.845000", "162111.335000", "162112.825000", "162114.315000", "162115.805000", "162117.295000", "162118.785000", "162120.275000", "162121.765000", "162123.255000", "162124.745000", "162126.235000", "162127.725000", "162129.215000", "162130.705000", "162132.195000", "162133.685000", "162135.175000", "162136.665000", "162138.155000", "162139.645000", "162141.135000", "162142.625000", "162144.115000", "162145.605000", "162147.095000", "162148.585000", "162150.075000", "162151.565000", "162153.055000", "162154.545000", "162156.035000", "162157.525000", "162159.015000", "162200.505000", "162201.995000", "162203.485000", "162204.975000", "162206.465000", "162207.955000", "162209.445000", "162210.935000", "162212.425000", "162213.915000", "162215.405000", "162216.895000", "162218.385000", "162219.875000", "162221.365000", "162222.855000", "162224.345000", "162225.835000", "162227.325000", "162228.815000", "162230.305000", "162231.795000", "162233.285000", "162234.775000", "162236.265000", "162237.755000", "162239.245000", "162240.735000", "162242.225000", "162243.715000", "162245.205000", "162246.695000", "162248.185000", "162249.675000", "162251.165000", "162252.655000", "162254.145000", "162255.635000", "162257.125000", "162258.615000", "162300.105000", "162301.595000", "162303.085000", "162304.575000", "162306.065000", "162307.555000", "162309.045000", "162310.535000", "162312.025000", "162313.515000", "162315.005000", "162316.495000", "162317.985000", "162319.475000", "162320.965000", "162322.455000", "162323.945000", "162325.435000", "162326.925000", "162328.415000", "162329.905000", "162331.395000", "162332.885000", "162334.375000", "162335.865000", "162337.355000", "162338.845000", "162340.335000", "162341.825000", "162343.315000", "162344.805000", "162346.295000", "162347.785000", "162349.275000", "162350.765000", "162352.255000", "162353.745000", "162355.235000", "162356.725000", "162358.215000", "162359.705000", "162401.195000", "162402.685000", "162404.175000", "162405.665000", "162407.155000", "162408.645000", "162410.135000", "162411.625000", "162413.115000", "162414.605000", "162416.095000", "162417.585000", "162419.075000", "162420.565000", "162422.055000", "162423.545000", "162425.035000", "162426.525000", "162428.015000", "162429.505000", "162430.995000", "162432.485000", "162433.975000", "162435.465000", "162436.955000", "162438.445000", "162439.935000", "162441.425000", "162442.915000", "162444.405000", "162445.895000", "162447.385000", "162448.875000", "162450.365000", "162451.855000", "162453.345000", "162454.835000", "162456.325000", "162457.815000", "162459.305000", "162500.795000", "162502.285000", "162503.775000", "162505.265000", "162506.755000", "162508.245000", "162509.735000", "162511.225000", "162512.715000", "162514.205000", "162515.695000", "162517.185000", "162518.675000", "162520.165000", "162521.655000", "162523.145000", "162524.635000", "162526.125000", "162527.615000", "162529.105000", "162530.595000", "162532.085000", "162533.575000", "162535.065000", "162536.555000", "162538.045000", "162539.535000", "162541.025000", "162542.515000", "162544.005000", "162545.495000", "162546.985000", "162548.475000", "162549.965000", "162551.455000", "162552.945000", "162554.435000", "162555.925000", "162557.415000", "162558.905000", "162600.395000", "162601.885000", "162603.375000", "162604.865000", "162606.355000", "162607.845000", "162609.335000", "162610.825000", "162612.315000", "162613.805000", "162615.295000", "162616.785000", "162618.275000", "162619.765000", "162621.255000", "162622.745000", "162624.235000", "162625.725000", "162627.215000", "162628.705000", "162630.195000", "162631.685000", "162633.175000", "162634.665000", "162636.155000", "162637.645000", "162639.135000", "162640.625000", "162642.115000", "162643.605000", "162645.095000", "162646.585000", "162648.075000", "162649.565000", "162651.055000", "162652.545000", "162654.035000", "162655.525000", "162657.015000", "162658.505000", "162659.995000", "162701.485000", "162702.975000", "162704.465000", "162705.955000", "162707.445000", "162708.935000", "162710.425000", "162711.915000", "162713.405000", "162714.895000", "162716.385000", "162717.875000", "162719.365000", "162720.855000", "162722.345000", "162723.835000", "162725.325000", "162726.815000", "162728.305000", "162729.795000", "162731.285000", "162732.775000", "162734.265000", "162735.755000", "162737.245000", "162738.735000", "162740.225000", "162741.715000", "162743.205000", "162744.695000", "162746.185000", "162747.675000", "162749.165000", "162750.655000", "162752.145000", "162753.635000", "162755.125000", "162756.615000", "162758.105000", "162759.595000", "162801.085000", "162802.575000", "162804.065000", "162805.555000", "162807.045000", "162808.535000", "162810.025000", "162811.515000", "162813.005000", "162814.495000", "162815.985000", "162817.475000", "162818.965000", "162820.455000", "162821.945000", "162823.435000", "162824.925000", "162826.415000", "162827.905000", "162829.395000", "162830.885000", "162832.375000", "162833.865000", "162835.355000", "162836.845000", "162838.335000", "162839.825000", "162841.315000", "162842.805000", "162844.295000", "162845.785000", "162847.275000", "162848.765000", "162850.255000", "162851.745000", "162853.235000", "162854.725000", "162856.215000", "162857.705000", "162859.195000", "162900.685000", "162902.175000", "162903.665000", "162905.155000", "162906.645000", "162908.135000", "162909.625000", "162911.115000", "162912.605000", "162914.095000", "162915.585000", "162917.075000", "162918.565000", "162920.055000", "162921.545000", "162923.035000", "162924.525000", "162926.015000", "162927.505000", "162928.995000", "162930.485000", "162931.975000", "162933.465000", "162934.955000", "162936.445000", "162937.935000", "162939.425000", "162940.915000", "162942.405000", "162943.895000", "162945.385000", "162946.875000", "162948.365000", "162949.855000", "162951.345000", "162952.835000", "162954.325000", "162955.815000", "162957.305000", "162958.795000", "163000.285000", "163001.775000", "163003.265000", "163004.755000", "163006.245000", "163007.735000", "163009.225000", "163010.715000", "163012.205000", "163013.695000", "163015.185000", "163016.675000", "163018.165000", "163019.655000", "163021.145000", "163022.635000", "163024.125000", "163025.615000", "163027.105000", "163028.595000"],
      "ContentTime": ["161935.369000", "161935.372000", "161935.375000", "161935.378000", "161935.381000", "161935.384000", "161935.387000", "161935.397000", "161935.400000", "161935.403000", "161935.406000", "161935.409000", "161935.412000", "161935.414000", "161935.417000", "161935.420000", "161935.423000", "161935.426000", "161935.428000", "161935.431000", "161935.434000", "161935.437000", "161935.440000", "161935.443000", "161935.445000", "161955.344000", "161955.347000", "161955.349000", "161955.352000", "161955.355000", "161955.364000", "161955.367000", "161955.369000", "161955.372000", "161955.375000", "161955.378000", "161955.380000", "161955.383000", "161955.386000", "161955.389000", "161955.392000", "161955.395000", "161955.397000", "161955.400000", "161955.403000", "161955.406000", "162015.344000", "162015.347000", "162015.350000", "162015.352000", "162015.355000", "162015.358000", "162015.361000", "162015.364000", "162015.366000", "162015.369000", "162015.372000", "162015.375000", "162015.378000", "162015.380000", "162015.383000", "162015.386000", "162015.389000", "162015.392000", "162015.394000", "162015.397000", "162035.344000", "162035.347000", "162035.349000", "162035.352000", "162035.355000", "162035.358000", "162035.361000", "162035.364000", "162035.366000", "162035.369000", "162035.372000", "162035.375000", "162035.378000", "162035.380000", "162035.383000", "162035.386000", "162035.389000", "162035.392000", "162035.394000", "162035.397000", "162115.344000", "162115.347000", "162115.349000", "162115.352000", "162115.355000", "162115.358000", "162115.361000", "162115.364000", "162115.367000", "162115.369000", "162115.372000", "162115.375000", "162115.378000", "162115.381000", "162115.383000", "162115.386000", "162115.389000", "162115.392000", "162115.401000", "162115.403000", "162115.406000", "162115.409000", "162115.412000", "162115.415000", "162115.417000", "162115.420000", "162115.423000", "162115.426000", "162115.429000", "162115.431000", "162115.434000", "162155.343000", "162155.346000", "162155.349000", "162155.352000", "162155.354000", "162155.357000", "162155.360000", "162155.363000", "162155.366000", "162155.368000", "162155.371000", "162155.374000", "162155.377000", "162155.380000", "162155.383000", "162155.386000", "162155.390000", "162155.394000", "162155.397000", "162155.400000", "162155.403000", "162155.406000", "162155.408000", "162155.411000", "162155.414000", "162155.417000", "162235.344000", "162235.347000", "162235.350000", "162235.352000", "162235.355000", "162235.358000", "162235.361000", "162235.364000", "162235.366000", "162235.369000", "162235.372000", "162235.375000", "162235.378000", "162235.381000", "162235.384000", "162235.386000", "162235.389000", "162235.392000", "162235.395000", "162235.398000", "162235.400000", "162235.403000", "162235.406000", "162235.409000", "162235.412000", "162235.415000", "162235.431000", "162315.344000", "162315.347000", "162315.350000", "162315.353000", "162315.355000", "162315.358000", "162315.361000", "162315.364000", "162315.367000", "162315.369000", "162315.372000", "162315.375000", "162315.378000", "162315.381000", "162315.384000", "162315.386000", "162315.389000", "162315.392000", "162315.395000", "162315.398000", "162315.400000", "162315.403000", "162315.406000", "162315.409000", "162315.412000", "162315.415000", "162315.417000", "162355.343000", "162355.346000", "162355.349000", "162355.351000", "162355.354000", "162355.357000", "162355.360000", "162355.363000", "162355.366000", "162355.368000", "162355.371000", "162355.374000", "162355.377000", "162355.380000", "162355.383000", "162355.385000", "162355.388000", "162355.391000", "162355.394000", "162355.397000", "162355.399000", "162355.402000", "162355.405000", "162355.408000", "162355.411000", "162355.422000", "162355.425000", "162435.344000", "162435.347000", "162435.350000", "162435.353000", "162435.355000", "162435.358000", "162435.361000", "162435.364000", "162435.367000", "162435.369000", "162435.372000", "162435.375000", "162435.378000", "162435.381000", "162435.384000", "162435.386000", "162435.389000", "162435.392000", "162435.395000", "162435.398000", "162435.400000", "162435.403000", "162435.406000", "162435.409000", "162435.412000", "162435.415000", "162435.418000", "162515.344000", "162515.347000", "162515.350000", "162515.352000", "162515.355000", "162515.358000", "162515.361000", "162515.364000", "162515.367000", "162515.370000", "162515.372000", "162515.375000", "162515.378000", "162515.381000", "162515.384000", "162515.386000", "162515.389000", "162515.392000", "162515.395000", "162515.398000", "162515.401000", "162515.404000", "162515.406000", "162515.409000", "162515.412000", "162515.415000", "162515.418000", "162555.344000", "162555.347000", "162555.350000", "162555.352000", "162555.355000", "162555.358000", "162555.361000", "162555.364000", "162555.367000", "162555.370000", "162555.372000", "162555.375000", "162555.378000", "162555.381000", "162555.384000", "162555.387000", "162555.389000", "162555.392000", "162555.395000", "162555.398000", "162555.401000", "162555.404000", "162555.407000", "162555.409000", "162555.412000", "162555.415000", "162555.418000", "162635.343000", "162635.346000", "162635.349000", "162635.352000", "162635.354000", "162635.357000", "162635.360000", "162635.363000", "162635.366000", "162635.369000", "162635.372000", "162635.374000", "162635.377000", "162635.380000", "162635.383000", "162635.387000", "162635.390000", "162635.393000", "162635.396000", "162635.399000", "162635.401000", "162635.404000", "162635.407000", "162635.410000", "162635.413000", "162635.416000", "162715.344000", "162715.347000", "162715.350000", "162715.353000", "162715.355000", "162715.358000", "162715.361000", "162715.364000", "162715.377000", "162715.380000", "162715.383000", "162715.386000", "162715.389000", "162715.392000", "162715.394000", "162715.397000", "162715.400000", "162715.403000", "162715.406000", "162715.409000", "162715.412000", "162715.414000", "162715.417000", "162715.420000", "162715.423000", "162715.426000", "162715.429000", "162755.344000", "162755.347000", "162755.350000", "162755.353000", "162755.355000", "162755.358000", "162755.361000", "162755.364000", "162755.367000", "162755.370000", "162755.372000", "162755.375000", "162755.378000", "162755.381000", "162755.384000", "162755.387000", "162755.390000", "162755.393000", "162755.395000", "162755.398000", "162755.401000", "162755.404000", "162755.407000", "162755.410000", "162755.413000", "162755.416000", "162755.419000", "162835.343000", "162835.346000", "162835.349000", "162835.352000", "162835.355000", "162835.357000", "162835.360000", "162835.363000", "162835.366000", "162835.369000", "162835.372000", "162835.374000", "162835.377000", "162835.380000", "162835.383000", "162835.386000", "162835.389000", "162835.392000", "162835.394000", "162835.397000", "162835.400000", "162835.403000", "162835.406000", "162835.409000", "162835.412000", "162835.414000", "162835.417000", "162915.344000", "162915.347000", "162915.350000", "162915.353000", "162915.356000", "162915.358000", "162915.361000", "162915.364000", "162915.367000", "162915.370000", "162915.373000", "162915.375000", "162915.378000", "162915.381000", "162915.384000", "162915.387000", "162915.390000", "162915.393000", "162915.395000", "162915.398000", "162915.401000", "162915.404000", "162915.407000", "162915.410000", "162915.413000", "162915.416000", "162915.418000", "162955.344000", "162955.347000", "162955.350000", "162955.353000", "162955.356000", "162955.358000", "162955.361000", "162955.364000", "162955.367000", "162955.370000", "162955.373000", "162955.375000", "162955.378000", "162955.381000", "162955.384000", "162955.387000", "162955.390000", "162955.392000", "162955.395000", "162955.398000", "162955.401000", "162955.404000", "162955.407000", "162955.410000", "162955.412000", "162955.415000", "162955.418000", "163030.978000", "163030.982000", "163030.985000", "163030.987000", "163030.990000", "163030.993000", "163030.996000", "163031.000000", "163031.003000", "163031.007000", "163031.010000", "163031.013000", "163031.016000", "163031.019000", "163031.022000", "163031.025000", "163031.029000", "163031.032000", "163031.035000", "163031.038000", "163031.041000", "163031.044000", "163031.047000", "163031.050000"],
