{
  "AcquisitionMatrixPE": 104,
  "AcquisitionNumber": 1,
  "AcquisitionTime": "16:31:51.682500",
  "BandwidthPerPixelPhaseEncode": 17.17,
  "BaseResolution": 104,
  "BodyPartExamined": "BRAIN",
  "CoilCombinationMethod": "Sum of Squares",
  "ConsistencyInfo": "N4_VE11C_LATEST_20160120",
  "ConversionSoftware": "dcm2niix",
  "ConversionSoftwareVersion": "v1.0.20211006",
  "DerivedVendorReportedEchoSpacing": 0.000560011,
  "DeviceSerialNumber": "167006",
  "DwellTime": 2.1e-06,
  "EchoTime": 0.037,
  "EchoTrainLength": 104,
  "EffectiveEchoSpacing": 0.000560011,
  "FlipAngle": 52,
  "HeudiconvVersion": "0.11.3.post9+gc939bf8",
  "ImageComments": "Unaliased MB4/PE3/LB",
  "ImageOrientationPatientDICOM": [0.997912, 0.0645732, 0.00112362, -0.0582382, 0.907259, -0.416521],
  "ImageOrientationText": "Tra>Cor(-24.6)>Sag(1.6)",
  "ImageType": [
    "ORIGINAL",
    "PRIMARY",
    "M",
    "MB",
    "ND",
    "MOSAIC"
],
  "ImagingFrequency": 123.259,
  "InPlanePhaseEncodingDirectionDICOM": "COL",
  "InstitutionAddress": "Chemin Queen-Mary 4565,Montreal,District,CA,H3W 1W5",
  "InstitutionName": "IUGM",
  "InstitutionalDepartmentName": "Department",
  "MRAcquisitionType": "2D",
  "MagneticFieldStrength": 3,
  "Manufacturer": "Siemens",
  "ManufacturersModelName": "Prisma_fit",
  "MatrixCoilMode": "SENSE",
  "Modality": "MR",
  "MultibandAccelerationFactor": 4,
  "PartialFourier": 1,
  "PatientPosition": "HFS",
  "PercentPhaseFOV": 100,
  "PercentSampling": 100,
  "PhaseEncodingDirection": "j",
  "PhaseEncodingSteps": 104,
  "PhaseResolution": 1,
  "PixelBandwidth": 2290,
  "ProcedureStepDescription": "video^friends",
  "ProtocolName": "func_task-friends-s06e17a",
  "PulseSequenceDetails": "%CustomerSeq%\\cmrr_mbep2d_bold",
  "ReceiveCoilActiveElements": "HC1-7;NC1,2",
  "ReceiveCoilName": "HeadNeck_64",
  "ReconMatrixPE": 104,
  "RepetitionTime": 1.49,
  "SAR": 0.0402524,
  "ScanOptions": "FS",
  "ScanningSequence": "EP",
  "SequenceName": "epfid2d1_104",
  "SequenceVariant": "SK\\SS",
  "SeriesDescription": "func_task-friends-s06e17a",
  "SeriesNumber": 12,
  "ShimSetting": [623, -7192, -8820, 643, 86, -38, -108, 2],
  "SliceThickness": 2,
  "SliceTiming": [0, 0.7825, 0.0975, 0.8825, 0.195, 0.98, 0.2925, 1.0775, 0.3925, 1.175, 0.49, 1.2725, 0.5875, 1.37, 0.685, 0, 0.7825, 0.0975, 0.8825, 0.195, 0.98, 0.2925, 1.0775, 0.3925, 1.175, 0.49, 1.2725, 0.5875, 1.37, 0.685, 0, 0.7825, 0.0975, 0.8825, 0.195, 0.98, 0.2925, 1.0775, 0.3925, 1.175, 0.49, 1.2725, 0.5875, 1.37, 0.685, 0, 0.7825, 0.0975, 0.8825, 0.195, 0.98, 0.2925, 1.0775, 0.3925, 1.175, 0.49, 1.2725, 0.5875, 1.37, 0.685],
  "SoftwareVersions": "syngo MR E11",
  "SpacingBetweenSlices": 2,
  "StationName": "MRC35049",
  "TaskName": "s06e17a",
  "TotalReadoutTime": 0.0576811,
  "TxRefAmp": 240.733,
  "WipMemBlock": "01df5595-10e0-4337-a380-c95c306f2515||Sequence: R017 ve11c/master r/75a17815+; Jun 28 2022 16:32:11 by eja",
  "dcmmeta_affine": [
    [-1.9958246946334839, -0.11647641658782959, 0.05583103746175766, 106.66555786132812],
    [-0.12914647161960602, 1.814517617225647, -0.8311720490455627, -57.84311294555664],
    [0.002247231313958764, 0.8330420255661011, 1.8182507753372192, -69.37006378173828],
    [0.0, 0.0, 0.0, 1.0]
],
  "dcmmeta_reorient_transform": [
    [0.0, -1.0, 0.0, 103.0],
    [1.0, 0.0, 0.0, 0.0],
    [0.0, 0.0, 1.0, 0.0],
    [0.0, 0.0, 0.0, 1.0]
],
  "dcmmeta_shape": [104, 104, 60, 428],
  "dcmmeta_slice_dim": 2,
  "dcmmeta_version": 0.6,
  "global": {
    "const": {
      "AcquisitionMatrix": [104, 0, 0, 104],
      "AngioFlag": "N",
      "BitsAllocated": 16,
      "BitsStored": 16,
      "BodyPartExamined": "BRAIN",
      "Columns": 832,
      "EchoNumbers": 1,
      "EchoTime": 37.0,
      "EchoTrainLength": 104,
      "FlipAngle": 52.0,
      "HighBit": 15,
      "ImageOrientationPatient": [0.9979123383245, 0.06457323367666, 0.00112361571357, -0.0582382074278, 0.9072588126498, -0.4165210175548],
      "ImagePositionPatient": [-778.75125399652, -836.54593292326, 318.84257192566],
      "ImageType": [
        "ORIGINAL",
        "PRIMARY",
        "M",
        "MB",
        "ND",
        "MOSAIC"
],
      "ImagedNucleus": "1H",
      "ImagingFrequency": 123.258818,
      "InPlanePhaseEncodingDirection": "COL",
      "MRAcquisitionType": "2D",
      "MagneticFieldStrength": 3.0,
      "Manufacturer": "SIEMENS",
      "ManufacturerModelName": "Prisma_fit",
      "Modality": "MR",
      "NumberOfAverages": 1.0,
      "NumberOfPhaseEncodingSteps": 104,
      "PercentPhaseFieldOfView": 100.0,
      "PercentSampling": 100.0,
      "PerformedProcedureStepStartTime": "161334.605000",
      "PhotometricInterpretation": "MONOCHROME2",
      "PixelBandwidth": 2290.0,
      "PixelRepresentation": 0,
      "PixelSpacing": [2.0, 2.0],
      "ProtocolName": "func_task-friends-s06e17a",
      "RepetitionTime": 1490.0,
      "Rows": 832,
      "SAR": 0.04025243684128,
      "SamplesPerPixel": 1,
      "ScanOptions": "FS",
      "ScanningSequence": "EP",
      "SequenceName": "epfid2d1_104",
      "SequenceVariant": [
        "SK",
        "SS"
],
      "SeriesDescription": "func_task-friends-s06e17a",
      "SeriesNumber": 12,
      "SeriesTime": "163304.270000",
      "SliceLocation": -36.049675183452,
      "SliceThickness": 2.0,
      "SmallestImagePixelValue": 0,
      "SoftwareVersions": "syngo MR E11",
      "SpacingBetweenSlices": 1.9999999801615,
      "SpecificCharacterSet": "ISO_IR 100",
      "StudyID": "1",
      "StudyTime": "161334.538000",
      "TransmitCoilName": "Body",
      "VariableFlipAngleFlag": "N",
      "WindowCenterWidthExplanation": "Algo1",
      "dBdt": 0.0},
    "slices": {}
  },
  "time": {
    "samples": {
      "AcquisitionNumber": [1, 2, 3, 4, 5, 6, 7, 8, 9, 10, 11, 12, 13, 14, 15, 16, 17, 18, 19, 20, 21, 22, 23, 24, 25, 26, 27, 28, 29, 30, 31, 32, 33, 34, 35, 36, 37, 38, 39, 40, 41, 42, 43, 44, 45, 46, 47, 48, 49, 50, 51, 52, 53, 54, 55, 56, 57, 58, 59, 60, 61, 62, 63, 64, 65, 66, 67, 68, 69, 70, 71, 72, 73, 74, 75, 76, 77, 78, 79, 80, 81, 82, 83, 84, 85, 86, 87, 88, 89, 90, 91, 92, 93, 94, 95, 96, 97, 98, 99, 100, 101, 102, 103, 104, 105, 106, 107, 108, 109, 110, 111, 112, 113, 114, 115, 116, 117, 118, 119, 120, 121, 122, 123, 124, 125, 126, 127, 128, 129, 130, 131, 132, 133, 134, 135, 136, 137, 138, 139, 140, 141, 142, 143, 144, 145, 146, 147, 148, 149, 150, 151, 152, 153, 154, 155, 156, 157, 158, 159, 160, 161, 162, 163, 164, 165, 166, 167, 168, 169, 170, 171, 172, 173, 174, 175, 176, 177, 178, 179, 180, 181, 182, 183, 184, 185, 186, 187, 188, 189, 190, 191, 192, 193, 194, 195, 196, 197, 198, 199, 200, 201, 202, 203, 204, 205, 206, 207, 208, 209, 210, 211, 212, 213, 214, 215, 216, 217, 218, 219, 220, 221, 222, 223, 224, 225, 226, 227, 228, 229, 230, 231, 232, 233, 234, 235, 236, 237, 238, 239, 240, 241, 242, 243, 244, 245, 246, 247, 248, 249, 250, 251, 252, 253, 254, 255, 256, 257, 258, 259, 260, 261, 262, 263, 264, 265, 266, 267, 268, 269, 270, 271, 272, 273, 274, 275, 276, 277, 278, 279, 280, 281, 282, 283, 284, 285, 286, 287, 288, 289, 290, 291, 292, 293, 294, 295, 296, 297, 298, 299, 300, 301, 302, 303, 304, 305, 306, 307, 308, 309, 310, 311, 312, 313, 314, 315, 316, 317, 318, 319, 320, 321, 322, 323, 324, 325, 326, 327, 328, 329, 330, 331, 332, 333, 334, 335, 336, 337, 338, 339, 340, 341, 342, 343, 344, 345, 346, 347, 348, 349, 350, 351, 352, 353, 354, 355, 356, 357, 358, 359, 360, 361, 362, 363, 364, 365, 366, 367, 368, 369, 370, 371, 372, 373, 374, 375, 376, 377, 378, 379, 380, 381, 382, 383, 384, 385, 386, 387, 388, 389, 390, 391, 392, 393, 394, 395, 396, 397, 398, 399, 400, 401, 402, 403, 404, 405, 406, 407, 408, 409, 410, 411, 412, 413, 414, 415, 416, 417, 418, 419, 420, 421, 422, 423, 424, 425, 426, 427, 428],
      "AcquisitionTime": ["163151.682500", "163153.172500", "163154.662500", "163156.152500", "163157.642500", "163159.132500", "163200.622500", "163202.112500", "163203.602500", "163205.092500", "163206.582500", "163208.072500", "163209.562500", "163211.052500", "163212.542500", "163214.032500", "163215.522500", "163217.012500", "163218.502500", "163219.992500", "163221.482500", "163222.972500", "163224.462500", "163225.952500", "163227.442500", "163228.932500", "163230.422500", "163231.912500", "163233.402500", "163234.892500", "163236.382500", "163237.872500", "163239.362500", "163240.852500", "163242.342500", "163243.832500", "163245.322500", "163246.812500", "163248.302500", "163249.792500", "163251.282500", "163252.772500", "163254.262500", "163255.752500", "163257.242500", "163258.732500", "163300.222500", "163301.712500", "163303.202500", "163304.692500", "163306.182500", "163307.672500", "163309.162500", "163310.652500", "163312.142500", "163313.632500", "163315.122500", "163316.612500", "163318.102500", "163319.592500", "163321.082500", "163322.572500", "163324.062500", "163325.552500", "163327.042500", "163328.532500", "163330.022500", "163331.512500", "163333.002500", "163334.492500", "163335.982500", "163337.472500", "163338.962500", "163340.452500", "163341.942500", "163343.432500", "163344.922500", "163346.412500", "163347.902500", "163349.392500", "163350.882500", "163352.372500", "163353.862500", "163355.352500", "163356.842500", "163358.332500", "163359.822500", "163401.312500", "163402.802500", "163404.292500", "163405.782500", "163407.272500", "163408.762500", "163410.252500", "163411.742500", "163413.232500", "163414.722500", "163416.212500", "163417.702500", "163419.192500", "163420.682500", "163422.172500", "163423.662500", "163425.152500", "163426.642500", "163428.132500", "163429.622500", "163431.112500", "163432.602500", "163434.092500", "163435.582500", "163437.072500", "163438.562500", "163440.052500", "163441.542500", "163443.032500", "163444.522500", "163446.012500", "163447.502500", "163448.992500", "163450.482500", "163451.972500", "163453.462500", "163454.952500", "163456.442500", "163457.932500", "163459.422500", "163500.912500", "163502.402500", "163503.892500", "163505.382500", "163506.872500", "163508.362500", "163509.852500", "163511.342500", "163512.832500", "163514.322500", "163515.812500", "163517.302500", "163518.792500", "163520.282500", "163521.772500", "163523.262500", "163524.752500", "163526.242500", "163527.732500", "163529.222500", "163530.712500", "163532.202500", "163533.692500", "163535.182500", "163536.672500", "163538.162500", "163539.652500", "163541.142500", "163542.632500", "163544.122500", "163545.612500", "163547.102500", "163548.592500", "163550.082500", "163551.572500", "163553.062500", "163554.552500", "163556.042500", "163557.532500", "163559.022500", "163600.512500", "163602.002500", "163603.492500", "163604.982500", "163606.472500", "163607.962500", "163609.452500", "163610.942500", "163612.432500", "163613.922500", "163615.412500", "163616.902500", "163618.392500", "163619.882500", "163621.372500", "163622.862500", "163624.352500", "163625.842500", "163627.332500", "163628.822500", "163630.312500", "163631.802500", "163633.292500", "163634.782500", "163636.272500", "163637.762500", "163639.252500", "163640.742500", "163642.232500", "163643.722500", "163645.212500", "163646.702500", "163648.192500", "163649.682500", "163651.172500", "163652.662500", "163654.152500", "163655.642500", "163657.132500", "163658.622500", "163700.112500", "163701.602500", "163703.092500", "163704.582500", "163706.072500", "163707.562500", "163709.052500", "163710.542500", "163712.032500", "163713.522500", "163715.012500", "163716.502500", "163717.992500", "163719.482500", "163720.972500", "163722.462500", "163723.952500", "163725.442500", "163726.932500", "163728.422500", "163729.912500", "163731.402500", "163732.892500", "163734.382500", "163735.872500", "163737.362500", "163738.852500", "163740.342500", "163741.832500", "163743.322500", "163744.812500", "163746.302500", "163747.792500", "163749.282500", "163750.772500", "163752.262500", "163753.752500", "163755.242500", "163756.732500", "163758.222500", "163759.712500", "163801.202500", "163802.692500", "163804.182500", "163805.672500", "163807.162500", "163808.652500", "163810.142500", "163811.632500", "163813.122500", "163814.612500", "163816.102500", "163817.592500", "163819.082500", "163820.572500", "163822.062500", "163823.552500", "163825.042500", "163826.532500", "163828.022500", "163829.512500", "163831.002500", "163832.492500", "163833.982500", "163835.472500", "163836.962500", "163838.452500", "163839.942500", "163841.432500", "163842.922500", "163844.412500", "163845.902500", "163847.392500", "163848.882500", "163850.372500", "163851.862500", "163853.352500", "163854.842500", "163856.332500", "163857.822500", "163859.312500", "163900.802500", "163902.292500", "163903.782500", "163905.272500", "163906.762500", "163908.252500", "163909.742500", "163911.232500", "163912.722500", "163914.212500", "163915.702500", "163917.192500", "163918.682500", "163920.172500", "163921.662500", "163923.152500", "163924.642500", "163926.132500", "163927.622500", "163929.112500", "163930.602500", "163932.092500", "163933.582500", "163935.072500", "163936.562500", "163938.052500", "163939.542500", "163941.032500", "163942.522500", "163944.012500", "163945.502500", "163946.992500", "163948.482500", "163949.972500", "163951.462500", "163952.952500", "163954.442500", "163955.932500", "163957.422500", "163958.912500", "164000.402500", "164001.892500", "164003.382500", "164004.872500", "164006.362500", "164007.852500", "164009.342500", "164010.832500", "164012.322500", "164013.812500", "164015.302500", "164016.792500", "164018.282500", "164019.772500", "164021.262500", "164022.752500", "164024.242500", "164025.732500", "164027.222500", "164028.712500", "164030.202500", "164031.692500", "164033.182500", "164034.672500", "164036.162500", "164037.652500", "164039.142500", "164040.632500", "164042.122500", "164043.612500", "164045.102500", "164046.592500", "164048.082500", "164049.572500", "164051.062500", "164052.552500", "164054.042500", "164055.532500", "164057.022500", "164058.512500", "164100.002500", "164101.492500", "164102.982500", "164104.472500", "164105.962500", "164107.452500", "164108.942500", "164110.432500", "164111.922500", "164113.412500", "164114.902500", "164116.392500", "164117.882500", "164119.372500", "164120.862500", "164122.352500", "164123.842500", "164125.332500", "164126.822500", "164128.312500", "164129.802500", "164131.292500", "164132.782500", "164134.272500", "164135.762500", "164137.252500", "164138.742500", "164140.232500", "164141.722500", "164143.212500", "164144.702500", "164146.192500", "164147.682500", "164149.172500", "164150.662500", "164152.152500", "164153.642500", "164155.132500", "164156.622500", "164158.112500", "164159.602500", "164201.092500", "164202.582500", "164204.072500", "164205.562500", "164207.052500", "164208.542500", "164210.032500", "164211.522500", "164213.012500", "164214.502500", "164215.992500", "164217.482500", "164218.972500", "164220.462500", "164221.952500", "164223.442500", "164224.932500", "164226.422500", "164227.912500"],
      "ContentTime": ["163304.274000", "163304.277000", "163304.280000", "163304.283000", "163304.286000", "163304.289000", "163304.296000", "163304.299000", "163304.302000", "163304.305000", "163304.315000", "163304.318000", "163304.321000", "163304.323000", "163304.326000", "163304.329000", "163304.332000", "163304.335000", "163304.337000", "163304.340000", "163304.343000", "163304.346000", "163304.349000", "163324.234000", "163324.242000", "163324.245000", "163324.248000", "163324.251000", "163324.254000", "163324.256000", "163324.259000", "163324.262000", "163324.265000", "163324.268000", "163324.270000", "163324.273000", "163324.276000", "163324.279000", "163324.283000", "163324.286000", "163324.289000", "163324.292000", "163324.308000", "163344.234000", "163344.237000", "163344.240000", "163344.243000", "163344.245000", "163344.248000", "163344.251000", "163344.254000", "163344.257000", "163344.259000", "163344.262000", "163344.265000", "163344.268000", "163344.271000", "163344.274000", "163344.276000", "163344.279000", "163344.282000", "163344.290000", "163344.293000", "163344.295000", "163404.234000", "163404.237000", "163404.240000", "163404.243000", "163404.245000", "163404.248000", "163404.251000", "163404.254000", "163404.257000", "163404.259000", "163404.262000", "163404.265000", "163404.268000", "163404.271000", "163404.274000", "163404.276000", "163404.279000", "163404.283000", "163404.285000", "163404.288000", "163444.234000", "163444.237000", "163444.240000", "163444.247000", "163444.250000", "163444.253000", "163444.255000", "163444.258000", "163444.261000", "163444.264000", "163444.267000", "163444.270000", "163444.272000", "163444.275000", "163444.278000", "163444.281000", "163444.283000", "163444.286000", "163444.289000", "163444.292000", "163444.295000", "163444.298000", "163444.300000", "163444.303000", "163444.306000", "163444.309000", "163444.312000", "163444.314000", "163444.317000", "163444.320000", "163444.323000", "163504.235000", "163504.238000", "163504.241000", "163504.252000", "163504.255000", "163504.258000", "163504.261000", "163504.264000", "163504.266000", "163504.269000", "163504.272000", "163504.275000", "163504.278000", "163544.234000", "163544.237000", "163544.240000", "163544.243000", "163544.245000", "163544.248000", "163544.251000", "163544.254000", "163544.257000", "163544.259000", "163544.262000", "163544.265000", "163544.268000", "163544.271000", "163544.274000", "163544.276000", "163544.279000", "163544.282000", "163544.285000", "163544.288000", "163544.291000", "163544.293000", "163544.296000", "163544.299000", "163544.302000", "163544.305000", "163544.307000", "163624.234000", "163624.237000", "163624.240000", "163624.243000", "163624.246000", "163624.248000", "163624.251000", "163624.254000", "163624.257000", "163624.260000", "163624.263000", "163624.265000", "163624.268000", "163624.271000", "163624.274000", "163624.277000", "163624.280000", "163624.282000", "163624.285000", "163624.288000", "163624.291000", "163624.294000", "163624.297000", "163624.300000", "163624.302000", "163624.305000", "163624.308000", "163704.234000", "163704.237000", "163704.240000", "163704.243000", "163704.246000", "163704.248000", "163704.251000", "163704.254000", "163704.257000", "163704.260000", "163704.263000", "163704.265000", "163704.268000", "163704.271000", "163704.274000", "163704.277000", "163704.280000", "163704.283000", "163704.286000", "163704.289000", "163704.291000", "163704.294000", "163704.297000", "163704.300000", "163704.303000", "163704.306000", "163704.325000", "163744.235000", "163744.238000", "163744.241000", "163744.244000", "163744.247000", "163744.249000", "163744.252000", "163744.255000", "163744.258000", "163744.267000", "163744.270000", "163744.273000", "163744.276000", "163744.279000", "163744.282000", "163744.285000", "163744.287000", "163744.290000", "163744.293000", "163744.296000", "163744.299000", "163744.302000", "163744.305000", "163744.308000", "163744.311000", "163744.313000", "163744.316000", "163824.234000", "163824.237000", "163824.240000", "163824.243000", "163824.246000", "163824.248000", "163824.251000", "163824.254000", "163824.257000", "163824.260000", "163824.262000", "163824.265000", "163824.269000", "163824.272000", "163824.275000", "163824.278000", "163824.281000", "163824.284000", "163824.286000", "163824.289000", "163824.292000", "163824.295000", "163824.298000", "163824.301000", "163824.304000", "163824.306000", "163904.234000", "163904.237000", "163904.240000", "163904.243000", "163904.246000", "163904.248000", "163904.251000", "163904.254000", "163904.257000", "163904.260000", "163904.263000", "163904.266000", "163904.269000", "163904.271000", "163904.274000", "163904.277000", "163904.280000", "163904.283000", "163904.286000", "163904.289000", "163904.291000", "163904.294000", "163904.297000", "163904.300000", "163904.303000", "163904.306000", "163904.309000", "163944.235000", "163944.238000", "163944.241000", "163944.244000", "163944.247000", "163944.249000", "163944.252000", "163944.255000", "163944.258000", "163944.261000", "163944.263000", "163944.266000", "163944.277000", "163944.280000", "163944.283000", "163944.285000", "163944.288000", "163944.291000", "163944.294000", "163944.297000", "163944.300000", "163944.303000", "163944.306000", "163944.309000", "163944.312000", "163944.314000", "163944.318000", "164024.234000", "164024.237000", "164024.240000", "164024.243000", "164024.246000", "164024.248000", "164024.251000", "164024.254000", "164024.257000", "164024.260000", "164024.263000", "164024.266000", "164024.269000", "164024.272000", "164024.274000", "164024.277000", "164024.280000", "164024.283000", "164024.286000", "164024.289000", "164024.291000", "164024.294000", "164024.297000", "164024.300000", "164024.303000", "164024.306000", "164024.309000", "164104.234000", "164104.237000", "164104.240000", "164104.243000", "164104.246000", "164104.248000", "164104.251000", "164104.254000", "164104.257000", "164104.260000", "164104.263000", "164104.266000", "164104.268000", "164104.271000", "164104.274000", "164104.277000", "164104.280000", "164104.283000", "164104.286000", "164104.289000", "164104.291000", "164104.294000", "164104.297000", "164104.300000", "164104.303000", "164104.306000", "164104.309000", "164144.234000", "164144.237000", "164144.240000", "164144.243000", "164144.246000", "164144.248000", "164144.251000", "164144.254000", "164144.257000", "164144.260000", "164144.263000", "164144.266000", "164144.272000", "164144.275000", "164144.278000", "164144.281000", "164144.283000", "164144.286000", "164144.289000", "164144.292000", "164144.295000", "164144.297000", "164144.310000", "164144.313000", "164144.316000", "164144.319000", "164144.322000", "164224.235000", "164224.238000", "164224.241000", "164224.244000", "164224.247000", "164224.249000", "164224.252000", "164224.255000", "164224.258000", "164224.261000", "164224.264000", "164224.267000", "164224.270000", "164224.273000", "164224.276000", "164224.278000", "164224.281000", "164224.285000", "164224.288000", "164224.291000", "164224.294000", "164224.297000", "164224.300000", "164224.302000", "164224.306000", "164224.308000", "164230.302000", "164230.305000", "164230.308000", "164230.311000", "164230.314000"],
      "InstanceCreationTime": ["163304.274000", "163304.277000", "163304.280000", "163304.283000", "163304.286000", "163304.289000", "163304.296000", "163304.299000", "163304.302000", "163304.305000", "163304.315000", "163304.318000", "163304.321000", "163304.323000", "163304.326000", "163304.329000", "163304.332000", "163304.335000", "163304.337000", "163304.340000", "163304.343000", "163304.346000", "163304.349000", "163324.234000", "163324.242000", "163324.245000", "163324.248000", "163324.251000", "163324.254000", "163324.256000", "163324.259000", "163324.262000", "163324.265000", "163324.268000", "163324.270000", "163324.273000", "163324.276000", "163324.279000", "163324.283000", "163324.286000", "163324.289000", "163324.292000", "163324.308000", "163344.234000", "163344.237000", "163344.240000", "163344.243000", "163344.245000", "163344.248000", "163344.251000", "163344.254000", "163344.257000", "163344.259000", "163344.262000", "163344.265000", "163344.268000", "163344.271000", "163344.274000", "163344.276000", "163344.279000", "163344.282000", "163344.290000", "163344.293000", "163344.295000", "163404.234000", "163404.237000", "163404.240000", "163404.243000", "163404.245000", "163404.248000", "163404.251000", "163404.254000", "163404.257000", "163404.259000", "163404.262000", "163404.265000", "163404.268000", "163404.271000", "163404.274000", "163404.276000", "163404.279000", "163404.283000", "163404.285000", "163404.288000", "163444.234000", "163444.237000", "163444.240000", "163444.247000", "163444.250000", "163444.253000", "163444.255000", "163444.258000", "163444.261000", "163444.264000", "163444.267000", "163444.270000", "163444.272000", "163444.275000", "163444.278000", "163444.281000", "163444.283000", "163444.286000", "163444.289000", "163444.292000", "163444.295000", "163444.298000", "163444.300000", "163444.303000", "163444.306000", "163444.309000", "163444.312000", "163444.314000", "163444.317000", "163444.320000", "163444.323000", "163504.235000", "163504.238000", "163504.241000", "163504.252000", "163504.255000", "163504.258000", "163504.261000", "163504.264000", "163504.266000", "163504.269000", "163504.272000", "163504.275000", "163504.278000", "163544.234000", "163544.237000", "163544.240000", "163544.243000", "163544.245000", "163544.248000", "163544.251000", "163544.254000", "163544.257000", "163544.259000", "163544.262000", "163544.265000", "163544.268000", "163544.271000", "163544.274000", "163544.276000", "163544.279000", "163544.282000", "163544.285000", "163544.288000", "163544.291000", "163544.293000", "163544.296000", "163544.299000", "163544.302000", "163544.305000", "163544.307000", "163624.234000", "163624.237000", "163624.240000", "163624.243000", "163624.246000", "163624.248000", "163624.251000", "163624.254000", "163624.257000", "163624.260000", "163624.263000", "163624.265000", "163624.268000", "163624.271000", "163624.274000", "163624.277000", "163624.280000", "163624.282000", "163624.285000", "163624.288000", "163624.291000", "163624.294000", "163624.297000", "163624.300000", "163624.302000", "163624.305000", "163624.308000", "163704.234000", "163704.237000", "163704.240000", "163704.243000", "163704.246000", "163704.248000", "163704.251000", "163704.254000", "163704.257000", "163704.260000", "163704.263000", "163704.265000", "163704.268000", "163704.271000", "163704.274000", "163704.277000", "163704.280000", "163704.283000", "163704.286000", "163704.289000", "163704.291000", "163704.294000", "163704.297000", "163704.300000", "163704.303000", "163704.306000", "163704.325000", "163744.235000", "163744.238000", "163744.241000", "163744.244000", "163744.247000", "163744.249000", "163744.252000", "163744.255000", "163744.258000", "163744.267000", "163744.270000", "163744.273000", "163744.276000", "163744.279000", "163744.282000", "163744.285000", "163744.287000", "163744.290000", "163744.293000", "163744.296000", "163744.299000", "163744.302000", "163744.305000", "163744.308000", "163744.311000", "163744.313000", "163744.316000", "163824.234000", "163824.237000", "163824.240000", "163824.243000", "163824.246000", "163824.248000", "163824.251000", "163824.254000", "163824.257000", "163824.260000", "163824.262000", "163824.265000", "163824.269000", "163824.272000", "163824.275000", "163824.278000", "163824.281000", "163824.284000", "163824.286000", "163824.289000", "163824.292000", "163824.295000", "163824.298000", "163824.301000", "163824.304000", "163824.306000", "163904.234000", "163904.237000", "163904.240000", "163904.243000", "163904.246000", "163904.248000", "163904.251000", "163904.254000", "163904.257000", "163904.260000", "163904.263000", "163904.266000", "163904.269000", "163904.271000", "163904.274000", "163904.277000", "163904.280000", "163904.283000", "163904.286000", "163904.289000", "163904.291000", "163904.294000", "163904.297000", "163904.300000", "163904.303000", "163904.306000", "163904.309000", "163944.235000", "163944.238000", "163944.241000", "163944.244000", "163944.247000", "163944.249000", "163944.252000", "163944.255000", "163944.258000", "163944.261000", "163944.263000", "163944.266000", "163944.277000", "163944.280000", "163944.283000", "163944.285000", "163944.288000", "163944.291000", "163944.294000", "163944.297000", "163944.300000", "163944.303000", "163944.306000", "163944.309000", "163944.312000", "163944.314000", "163944.318000", "164024.234000", "164024.237000", "164024.240000", "164024.243000", "164024.246000", "164024.248000", "164024.251000", "164024.254000", "164024.257000", "164024.260000", "164024.263000", "164024.266000", "164024.269000", "164024.272000", "164024.274000", "164024.277000", "164024.280000", "164024.283000", "164024.286000", "164024.289000", "164024.291000", "164024.294000", "164024.297000", "164024.300000", "164024.303000", "164024.306000", "164024.309000", "164104.234000", "164104.237000", "164104.240000", "164104.243000", "164104.246000", "164104.248000", "164104.251000", "164104.254000", "164104.257000", "164104.260000", "164104.263000", "164104.266000", "164104.268000", "164104.271000", "164104.274000", "164104.277000", "164104.280000", "164104.283000", "164104.286000", "164104.289000", "164104.291000", "164104.294000", "164104.297000", "164104.300000", "164104.303000", "164104.306000", "164104.309000", "164144.234000", "164144.237000", "164144.240000", "164144.243000", "164144.246000", "164144.248000", "164144.251000", "164144.254000", "164144.257000", "164144.260000", "164144.263000", "164144.266000", "164144.272000", "164144.275000", "164144.278000", "164144.281000", "164144.283000", "164144.286000", "164144.289000", "164144.292000", "164144.295000", "164144.297000", "164144.310000", "164144.313000", "164144.316000", "164144.319000", "164144.322000", "164224.235000", "164224.238000", "164224.241000", "164224.244000", "164224.247000", "164224.249000", "164224.252000", "164224.255000", "164224.258000", "164224.261000", "164224.264000", "164224.267000", "164224.270000", "164224.273000", "164224.276000", "164224.278000", "164224.281000", "164224.285000", "164224.288000", "164224.291000", "164224.294000", "164224.297000", "164224.300000", "164224.302000", "164224.306000", "164224.308000", "164230.302000", "164230.305000", "164230.308000", "164230.311000", "164230.314000"],
