{
  "AcquisitionMatrixPE": 104,
  "AcquisitionNumber": 1,
  "AcquisitionTime": "16:17:9.105000",
  "BandwidthPerPixelPhaseEncode": 17.17,
  "BaseResolution": 104,
  "BodyPartExamined": "BRAIN",
  "CoilCombinationMethod": "Sum of Squares",
  "ConsistencyInfo": "N4_VE11C_LATEST_20160120",
  "ConversionSoftware": "dcm2niix",
  "ConversionSoftwareVersion": "v1.0.20230411",
  "DerivedVendorReportedEchoSpacing": 0.000560011,
  "DeviceSerialNumber": "167006",
  "DwellTime": 2.1e-06,
  "EchoTime": 0.037,
  "EchoTrainLength": 104,
  "EffectiveEchoSpacing": 0.000560011,
  "FlipAngle": 52,
  "HeudiconvVersion": "0.5.3.post861+ge7d3c7f",
  "ImageComments": "Unaliased MB4/PE3/LB",
  "ImageOrientationPatientDICOM": [0.998662, -0.0379575, -0.0351214, 0.0237092, 0.939636, -0.341353],
  "ImageOrientationText": "Tra>Cor(-19.9)>Sag(-2.6)",
  "ImageType": [
    "ORIGINAL",
    "PRIMARY",
    "M",
    "MB",
    "ND",
    "MOSAIC"
],
  "ImagingFrequency": 123.249715,
  "InPlanePhaseEncodingDirectionDICOM": "COL",
  "InstitutionAddress": "Chemin Queen-Mary 4565,Montreal,District,CA,H3W 1W5",
  "InstitutionName": "Institut Universitaire de Geriatrie de Montreal",
  "InstitutionalDepartmentName": "Department",
  "MRAcquisitionType": "2D",
  "MagneticFieldStrength": 3,
  "Manufacturer": "Siemens",
  "ManufacturersModelName": "Prisma_fit",
  "MatrixCoilMode": "SENSE",
  "Modality": "MR",
  "MultibandAccelerationFactor": 4,
  "NonlinearGradientCorrection": false,
  "PartialFourier": 1,
  "PatientPosition": "HFS",
  "PercentPhaseFOV": 100,
  "PercentSampling": 100,
  "PhaseEncodingDirection": "j",
  "PhaseEncodingSteps": 104,
  "PhaseResolution": 1,
  "PixelBandwidth": 2290,
  "ProcedureStepDescription": "video^friends",
  "ProtocolName": "func_task-friends-s07e22b",
  "PulseSequenceDetails": "%CustomerSeq%\\cmrr_mbep2d_bold",
  "ReceiveCoilActiveElements": "HC1-7;NC1,2",
  "ReceiveCoilName": "HeadNeck_64",
  "ReconMatrixPE": 104,
  "RepetitionTime": 1.49,
  "SAR": 0.0477247,
  "ScanOptions": "FS",
  "ScanningSequence": "EP",
  "SequenceName": "epfid2d1_104",
  "SequenceVariant": "SK\\SS",
  "SeriesDescription": "func_task-friends-s07e22b",
  "SeriesNumber": 12,
  "ShimSetting": [594, -7288, -8837, 480, 41, -261, -88, 38],
  "SliceThickness": 2,
  "SliceTiming": [0, 0.7825, 0.0975, 0.88, 0.195, 0.98, 0.2925, 1.0775, 0.39, 1.175, 0.49, 1.2725, 0.5875, 1.37, 0.685, 0, 0.7825, 0.0975, 0.88, 0.195, 0.98, 0.2925, 1.0775, 0.39, 1.175, 0.49, 1.2725, 0.5875, 1.37, 0.685, 0, 0.7825, 0.0975, 0.88, 0.195, 0.98, 0.2925, 1.0775, 0.39, 1.175, 0.49, 1.2725, 0.5875, 1.37, 0.685, 0, 0.7825, 0.0975, 0.88, 0.195, 0.98, 0.2925, 1.0775, 0.39, 1.175, 0.49, 1.2725, 0.5875, 1.37, 0.685],
  "SoftwareVersions": "syngo MR E11",
  "SpacingBetweenSlices": 2,
  "StationName": "MRC35049",
  "TaskName": "s07e22b",
  "TotalReadoutTime": 0.0576811,
  "TxRefAmp": 236.428,
  "WipMemBlock": "fbe439ba-5a2d-4896-a7bd-aa8755e9d5d7||Sequence: R017 ve11c/master r/75a17815+; Jun 28 2022 16:32:11 by eja",
  "dcmmeta_affine": [
    [-1.9973238706588745, 0.04741831123828888, -0.09191657602787018, 101.06745910644531],
    [0.07591502368450165, 1.8792721033096313, -0.6801274418830872, -77.570068359375],
    [-0.07024288177490234, 0.682706356048584, 1.8785574436187744, -70.08938598632812],
    [0.0, 0.0, 0.0, 1.0]
],
  "dcmmeta_reorient_transform": [
    [0.0, -1.0, 0.0, 103.0],
    [1.0, 0.0, 0.0, 0.0],
    [0.0, 0.0, 1.0, 0.0],
    [0.0, 0.0, 0.0, 1.0]
],
  "dcmmeta_shape": [104, 104, 60, 505],
  "dcmmeta_slice_dim": 2,
  "dcmmeta_version": 0.6,
  "global": {
    "const": {
      "AcquisitionMatrix": [104, 0, 0, 104],
      "AngioFlag": "N",
      "BitsAllocated": 16,
      "BitsStored": 16,
      "BodyPartExamined": "BRAIN",
      "Columns": 832,
      "EchoNumbers": 1,
      "EchoTime": 37.0,
      "EchoTrainLength": 104,
      "FlipAngle": 52.0,
      "HighBit": 15,
      "ImageOrientationPatient": [0.99866196064189, -0.037957511913, -0.0351214415459, 0.02370915489289, 0.93963604311426, -0.3413531638272],
      "ImagePositionPatient": [-850.23771957695, -772.41692827929, 274.30287951347],
      "ImageType": [
        "ORIGINAL",
        "PRIMARY",
        "M",
        "MB",
        "ND",
        "MOSAIC"
],
      "ImagedNucleus": "1H",
      "ImagingFrequency": 123.249715,
      "InPlanePhaseEncodingDirection": "COL",
      "MRAcquisitionType": "2D",
      "MagneticFieldStrength": 3.0,
      "Manufacturer": "SIEMENS",
      "ManufacturerModelName": "Prisma_fit",
      "Modality": "MR",
      "NumberOfAverages": 1.0,
      "NumberOfPhaseEncodingSteps": 104,
      "PercentPhaseFieldOfView": 100.0,
      "PercentSampling": 100.0,
      "PerformedProcedureStepStartTime": "155928.674000",
      "PhotometricInterpretation": "MONOCHROME2",
      "PixelBandwidth": 2290.0,
      "PixelRepresentation": 0,
      "PixelSpacing": [2.0, 2.0],
      "ProtocolName": "func_task-friends-s07e22b",
      "RepetitionTime": 1490.0,
      "Rows": 832,
      "SAR": 0.04772470794687,
      "SamplesPerPixel": 1,
      "ScanOptions": "FS",
      "ScanningSequence": "EP",
      "SequenceName": "epfid2d1_104",
      "SequenceVariant": [
        "SK",
        "SS"
],
      "SeriesDescription": "func_task-friends-s07e22b",
      "SeriesNumber": 12,
      "SeriesTime": "161759.507000",
      "SliceLocation": -44.099589288756,
      "SliceThickness": 2.0,
      "SmallestImagePixelValue": 0,
      "SoftwareVersions": "syngo MR E11",
      "SpacingBetweenSlices": 2.0000000083573,
      "SpecificCharacterSet": "ISO_IR 100",
      "StudyID": "1",
      "StudyTime": "155928.593000",
      "TransmitCoilName": "Body",
      "VariableFlipAngleFlag": "N",
      "WindowCenterWidthExplanation": "Algo1",
      "dBdt": 0.0},
    "slices": {}
  },
  "time": {
    "samples": {
      "AcquisitionNumber": [1, 2, 3, 4, 5, 6, 7, 8, 9, 10, 11, 12, 13, 14, 15, 16, 17, 18, 19, 20, 21, 22, 23, 24, 25, 26, 27, 28, 29, 30, 31, 32, 33, 34, 35, 36, 37, 38, 39, 40, 41, 42, 43, 44, 45, 46, 47, 48, 49, 50, 51, 52, 53, 54, 55, 56, 57, 58, 59, 60, 61, 62, 63, 64, 65, 66, 67, 68, 69, 70, 71, 72, 73, 74, 75, 76, 77, 78, 79, 80, 81, 82, 83, 84, 85, 86, 87, 88, 89, 90, 91, 92, 93, 94, 95, 96, 97, 98, 99, 100, 101, 102, 103, 104, 105, 106, 107, 108, 109, 110, 111, 112, 113, 114, 115, 116, 117, 118, 119, 120, 121, 122, 123, 124, 125, 126, 127, 128, 129, 130, 131, 132, 133, 134, 135, 136, 137, 138, 139, 140, 141, 142, 143, 144, 145, 146, 147, 148, 149, 150, 151, 152, 153, 154, 155, 156, 157, 158, 159, 160, 161, 162, 163, 164, 165, 166, 167, 168, 169, 170, 171, 172, 173, 174, 175, 176, 177, 178, 179, 180, 181, 182, 183, 184, 185, 186, 187, 188, 189, 190, 191, 192, 193, 194, 195, 196, 197, 198, 199, 200, 201, 202, 203, 204, 205, 206, 207, 208, 209, 210, 211, 212, 213, 214, 215, 216, 217, 218, 219, 220, 221, 222, 223, 224, 225, 226, 227, 228, 229, 230, 231, 232, 233, 234, 235, 236, 237, 238, 239, 240, 241, 242, 243, 244, 245, 246, 247, 248, 249, 250, 251, 252, 253, 254, 255, 256, 257, 258, 259, 260, 261, 262, 263, 264, 265, 266, 267, 268, 269, 270, 271, 272, 273, 274, 275, 276, 277, 278, 279, 280, 281, 282, 283, 284, 285, 286, 287, 288, 289, 290, 291, 292, 293, 294, 295, 296, 297, 298, 299, 300, 301, 302, 303, 304, 305, 306, 307, 308, 309, 310, 311, 312, 313, 314, 315, 316, 317, 318, 319, 320, 321, 322, 323, 324, 325, 326, 327, 328, 329, 330, 331, 332, 333, 334, 335, 336, 337, 338, 339, 340, 341, 342, 343, 344, 345, 346, 347, 348, 349, 350, 351, 352, 353, 354, 355, 356, 357, 358, 359, 360, 361, 362, 363, 364, 365, 366, 367, 368, 369, 370, 371, 372, 373, 374, 375, 376, 377, 378, 379, 380, 381, 382, 383, 384, 385, 386, 387, 388, 389, 390, 391, 392, 393, 394, 395, 396, 397, 398, 399, 400, 401, 402, 403, 404, 405, 406, 407, 408, 409, 410, 411, 412, 413, 414, 415, 416, 417, 418, 419, 420, 421, 422, 423, 424, 425, 426, 427, 428, 429, 430, 431, 432, 433, 434, 435, 436, 437, 438, 439, 440, 441, 442, 443, 444, 445, 446, 447, 448, 449, 450, 451, 452, 453, 454, 455, 456, 457, 458, 459, 460, 461, 462, 463, 464, 465, 466, 467, 468, 469, 470, 471, 472, 473, 474, 475, 476, 477, 478, 479, 480, 481, 482, 483, 484, 485, 486, 487, 488, 489, 490, 491, 492, 493, 494, 495, 496, 497, 498, 499, 500, 501, 502, 503, 504, 505],
      "AcquisitionTime": ["161709.105000", "161710.595000", "161712.085000", "161713.575000", "161715.065000", "161716.555000", "161718.045000", "161719.535000", "161721.025000", "161722.515000", "161724.005000", "161725.495000", "161726.985000", "161728.475000", "161729.965000", "161731.455000", "161732.945000", "161734.435000", "161735.925000", "161737.415000", "161738.905000", "161740.395000", "161741.885000", "161743.375000", "161744.865000", "161746.355000", "161747.845000", "161749.335000", "161750.825000", "161752.315000", "161753.805000", "161755.295000", "161756.785000", "161758.275000", "161759.765000", "161801.255000", "161802.745000", "161804.235000", "161805.725000", "161807.215000", "161808.705000", "161810.195000", "161811.685000", "161813.175000", "161814.665000", "161816.155000", "161817.645000", "161819.135000", "161820.625000", "161822.115000", "161823.605000", "161825.095000", "161826.585000", "161828.075000", "161829.565000", "161831.055000", "161832.545000", "161834.035000", "161835.525000", "161837.015000", "161838.505000", "161839.995000", "161841.485000", "161842.975000", "161844.465000", "161845.955000", "161847.445000", "161848.935000", "161850.425000", "161851.915000", "161853.405000", "161854.895000", "161856.385000", "161857.875000", "161859.365000", "161900.855000", "161902.345000", "161903.835000", "161905.325000", "161906.815000", "161908.305000", "161909.795000", "161911.285000", "161912.775000", "161914.265000", "161915.755000", "161917.245000", "161918.735000", "161920.225000", "161921.715000", "161923.205000", "161924.695000", "161926.185000", "161927.675000", "161929.165000", "161930.655000", "161932.145000", "161933.635000", "161935.125000", "161936.615000", "161938.105000", "161939.595000", "161941.085000", "161942.575000", "161944.065000", "161945.555000", "161947.045000", "161948.535000", "161950.025000", "161951.515000", "161953.005000", "161954.495000", "161955.985000", "161957.475000", "161958.965000", "162000.455000", "162001.945000", "162003.435000", "162004.925000", "162006.415000", "162007.905000", "162009.395000", "162010.885000", "162012.375000", "162013.865000", "162015.355000", "162016.845000", "162018.335000", "162019.825000", "162021.315000", "162022.805000", "162024.295000", "162025.785000", "162027.275000", "162028.765000", "162030.255000", "162031.745000", "162033.235000", "162034.725000", "162036.215000", "162037.705000", "162039.195000", "162040.685000", "162042.175000", "162043.665000", "162045.155000", "162046.645000", "162048.135000", "162049.625000", "162051.115000", "162052.605000", "162054.095000", "162055.585000", "162057.075000", "162058.565000", "162100.055000", "162101.545000", "162103.035000", "162104.525000", "162106.015000", "162107.505000", "162108.995000", "162110.485000", "162111.975000", "162113.465000", "162114.955000", "162116.445000", "162117.935000", "162119.425000", "162120.915000", "162122.405000", "162123.895000", "162125.385000", "162126.875000", "162128.365000", "162129.855000", "162131.345000", "162132.835000", "162134.325000", "162135.815000", "162137.305000", "162138.795000", "162140.285000", "162141.775000", "162143.265000", "162144.755000", "162146.245000", "162147.735000", "162149.225000", "162150.715000", "162152.205000", "162153.695000", "162155.185000", "162156.675000", "162158.165000", "162159.655000", "162201.145000", "162202.635000", "162204.125000", "162205.615000", "162207.105000", "162208.595000", "162210.085000", "162211.575000", "162213.065000", "162214.555000", "162216.045000", "162217.535000", "162219.025000", "162220.515000", "162222.005000", "162223.495000", "162224.985000", "162226.475000", "162227.965000", "162229.455000", "162230.945000", "162232.435000", "162233.925000", "162235.415000", "162236.905000", "162238.395000", "162239.885000", "162241.375000", "162242.865000", "162244.355000", "162245.845000", "162247.335000", "162248.825000", "162250.315000", "162251.805000", "162253.295000", "162254.785000", "162256.275000", "162257.765000", "162259.255000", "162300.745000", "162302.235000", "162303.725000", "162305.215000", "162306.705000", "162308.195000", "162309.685000", "162311.175000", "162312.665000", "162314.155000", "162315.645000", "162317.135000", "162318.625000", "162320.115000", "162321.605000", "162323.095000", "162324.585000", "162326.075000", "162327.565000", "162329.055000", "162330.545000", "162332.035000", "162333.525000", "162335.015000", "162336.505000", "162337.995000", "162339.485000", "162340.975000", "162342.465000", "162343.955000", "162345.445000", "162346.935000", "162348.425000", "162349.915000", "162351.405000", "162352.895000", "162354.385000", "162355.875000", "162357.365000", "162358.855000", "162400.345000", "162401.835000", "162403.325000", "162404.815000", "162406.305000", "162407.795000", "162409.285000", "162410.775000", "162412.265000", "162413.755000", "162415.245000", "162416.735000", "162418.225000", "162419.715000", "162421.205000", "162422.695000", "162424.185000", "162425.675000", "162427.165000", "162428.655000", "162430.145000", "162431.635000", "162433.125000", "162434.615000", "162436.105000", "162437.595000", "162439.085000", "162440.575000", "162442.065000", "162443.555000", "162445.045000", "162446.535000", "162448.025000", "162449.515000", "162451.005000", "162452.495000", "162453.985000", "162455.475000", "162456.965000", "162458.455000", "162459.945000", "162501.435000", "162502.925000", "162504.415000", "162505.905000", "162507.395000", "162508.885000", "162510.375000", "162511.865000", "162513.355000", "162514.845000", "162516.335000", "162517.825000", "162519.315000", "162520.805000", "162522.295000", "162523.785000", "162525.275000", "162526.765000", "162528.255000", "162529.745000", "162531.235000", "162532.725000", "162534.215000", "162535.705000", "162537.195000", "162538.685000", "162540.175000", "162541.665000", "162543.155000", "162544.645000", "162546.135000", "162547.625000", "162549.115000", "162550.605000", "162552.095000", "162553.585000", "162555.075000", "162556.565000", "162558.055000", "162559.545000", "162601.035000", "162602.525000", "162604.015000", "162605.505000", "162606.995000", "162608.485000", "162609.975000", "162611.465000", "162612.955000", "162614.445000", "162615.935000", "162617.425000", "162618.915000", "162620.405000", "162621.895000", "162623.385000", "162624.875000", "162626.365000", "162627.855000", "162629.345000", "162630.835000", "162632.325000", "162633.815000", "162635.305000", "162636.795000", "162638.285000", "162639.775000", "162641.265000", "162642.755000", "162644.245000", "162645.735000", "162647.225000", "162648.715000", "162650.205000", "162651.695000", "162653.185000", "162654.675000", "162656.165000", "162657.655000", "162659.145000", "162700.635000", "162702.125000", "162703.615000", "162705.105000", "162706.595000", "162708.085000", "162709.575000", "162711.065000", "162712.555000", "162714.045000", "162715.535000", "162717.025000", "162718.515000", "162720.005000", "162721.495000", "162722.985000", "162724.475000", "162725.965000", "162727.455000", "162728.945000", "162730.435000", "162731.925000", "162733.415000", "162734.905000", "162736.395000", "162737.885000", "162739.375000", "162740.865000", "162742.355000", "162743.845000", "162745.335000", "162746.825000", "162748.315000", "162749.805000", "162751.295000", "162752.785000", "162754.275000", "162755.765000", "162757.255000", "162758.745000", "162800.235000", "162801.725000", "162803.215000", "162804.705000", "162806.195000", "162807.685000", "162809.175000", "162810.665000", "162812.155000", "162813.645000", "162815.135000", "162816.625000", "162818.115000", "162819.605000", "162821.095000", "162822.585000", "162824.075000", "162825.565000", "162827.055000", "162828.545000", "162830.035000", "162831.525000", "162833.015000", "162834.505000", "162835.995000", "162837.485000", "162838.975000", "162840.465000", "162841.955000", "162843.445000", "162844.935000", "162846.425000", "162847.915000", "162849.405000", "162850.895000", "162852.385000", "162853.875000", "162855.365000", "162856.855000", "162858.345000", "162859.835000", "162901.325000", "162902.815000", "162904.305000", "162905.795000", "162907.285000", "162908.775000", "162910.265000", "162911.755000", "162913.245000", "162914.735000", "162916.225000", "162917.715000", "162919.205000", "162920.695000", "162922.185000", "162923.675000", "162925.165000", "162926.655000", "162928.145000", "162929.635000", "162931.125000", "162932.615000", "162934.105000", "162935.595000", "162937.085000", "162938.575000", "162940.065000"],
      "ContentTime": ["161759.510000", "161759.513000", "161819.484000", "161819.487000", "161819.490000", "161819.493000", "161819.496000", "161819.499000", "161819.502000", "161819.505000", "161819.508000", "161819.511000", "161819.514000", "161819.517000", "161819.520000", "161819.523000", "161819.526000", "161819.529000", "161819.532000", "161819.535000", "161819.538000", "161819.541000", "161839.484000", "161839.487000", "161839.490000", "161839.493000", "161839.496000", "161839.499000", "161839.502000", "161839.505000", "161839.507000", "161839.510000", "161839.513000", "161839.516000", "161839.519000", "161839.522000", "161839.525000", "161839.528000", "161839.531000", "161839.546000", "161839.549000", "161839.552000", "161859.484000", "161859.487000", "161859.490000", "161859.493000", "161859.496000", "161859.499000", "161859.502000", "161859.505000", "161859.508000", "161859.510000", "161859.513000", "161859.516000", "161859.519000", "161859.522000", "161859.525000", "161859.528000", "161859.531000", "161859.534000", "161859.537000", "161859.540000", "161919.484000", "161919.487000", "161919.490000", "161919.493000", "161919.496000", "161919.499000", "161919.502000", "161919.505000", "161919.507000", "161919.510000", "161919.513000", "161919.516000", "161919.519000", "161919.522000", "161919.525000", "161919.529000", "161919.533000", "161919.536000", "161919.540000", "161919.544000", "161959.484000", "161959.487000", "161959.496000", "161959.499000", "161959.502000", "161959.505000", "161959.508000", "161959.511000", "161959.514000", "161959.517000", "161959.520000", "161959.523000", "161959.525000", "161959.528000", "161959.531000", "161959.534000", "161959.537000", "161959.540000", "161959.543000", "161959.546000", "161959.549000", "161959.552000", "161959.555000", "161959.558000", "161959.561000", "161959.564000", "161959.567000", "161959.570000", "161959.573000", "161959.576000", "161959.579000", "162039.484000", "162039.487000", "162039.490000", "162039.493000", "162039.496000", "162039.499000", "162039.502000", "162039.505000", "162039.508000", "162039.511000", "162039.514000", "162039.517000", "162039.519000", "162039.522000", "162039.525000", "162039.528000", "162039.531000", "162039.534000", "162039.537000", "162039.540000", "162039.543000", "162039.546000", "162039.549000", "162039.552000", "162039.555000", "162039.558000", "162039.560000", "162119.484000", "162119.487000", "162119.490000", "162119.493000", "162119.496000", "162119.499000", "162119.502000", "162119.505000", "162119.508000", "162119.511000", "162119.514000", "162119.517000", "162119.520000", "162119.522000", "162119.525000", "162119.528000", "162119.531000", "162119.542000", "162119.545000", "162119.548000", "162119.551000", "162119.554000", "162119.556000", "162119.559000", "162119.562000", "162119.565000", "162119.568000", "162159.484000", "162159.487000", "162159.490000", "162159.493000", "162159.496000", "162159.499000", "162159.502000", "162159.505000", "162159.508000", "162159.511000", "162159.513000", "162159.516000", "162159.519000", "162159.522000", "162159.525000", "162159.528000", "162159.531000", "162159.534000", "162159.537000", "162159.540000", "162159.543000", "162159.546000", "162159.549000", "162159.552000", "162159.555000", "162159.558000", "162159.560000", "162239.484000", "162239.487000", "162239.490000", "162239.493000", "162239.496000", "162239.499000", "162239.502000", "162239.505000", "162239.508000", "162239.511000", "162239.514000", "162239.517000", "162239.529000", "162239.532000", "162239.535000", "162239.538000", "162239.541000", "162239.544000", "162239.547000", "162239.550000", "162239.553000", "162239.555000", "162239.560000", "162239.562000", "162239.565000", "162239.568000", "162239.571000", "162319.484000", "162319.487000", "162319.490000", "162319.493000", "162319.496000", "162319.499000", "162319.502000", "162319.505000", "162319.508000", "162319.511000", "162319.514000", "162319.517000", "162319.520000", "162319.523000", "162319.525000", "162319.528000", "162319.531000", "162319.534000", "162319.537000", "162319.540000", "162319.543000", "162319.546000", "162319.549000", "162319.552000", "162319.555000", "162319.558000", "162319.561000", "162359.484000", "162359.487000", "162359.490000", "162359.493000", "162359.496000", "162359.499000", "162359.502000", "162359.505000", "162359.508000", "162359.510000", "162359.513000", "162359.516000", "162359.519000", "162359.522000", "162359.525000", "162359.528000", "162359.531000", "162359.534000", "162359.537000", "162359.540000", "162359.543000", "162359.546000", "162359.549000", "162359.552000", "162359.555000", "162359.557000", "162359.560000", "162439.484000", "162439.487000", "162439.490000", "162439.493000", "162439.496000", "162439.499000", "162439.502000", "162439.505000", "162439.508000", "162439.511000", "162439.514000", "162439.517000", "162439.519000", "162439.522000", "162439.525000", "162439.528000", "162439.531000", "162439.534000", "162439.537000", "162439.540000", "162439.544000", "162439.547000", "162439.550000", "162439.553000", "162439.556000", "162439.559000", "162519.484000", "162519.487000", "162519.490000", "162519.493000", "162519.496000", "162519.499000", "162519.502000", "162519.505000", "162519.508000", "162519.511000", "162519.520000", "162519.523000", "162519.526000", "162519.529000", "162519.531000", "162519.534000", "162519.537000", "162519.540000", "162519.543000", "162519.546000", "162519.549000", "162519.552000", "162519.555000", "162519.558000", "162519.561000", "162519.564000", "162519.567000", "162559.484000", "162559.487000", "162559.490000", "162559.493000", "162559.496000", "162559.499000", "162559.502000", "162559.505000", "162559.508000", "162559.511000", "162559.514000", "162559.517000", "162559.520000", "162559.523000", "162559.525000", "162559.528000", "162559.531000", "162559.534000", "162559.537000", "162559.540000", "162559.543000", "162559.546000", "162559.549000", "162559.552000", "162559.555000", "162559.558000", "162559.560000", "162639.484000", "162639.487000", "162639.490000", "162639.493000", "162639.496000", "162639.499000", "162639.502000", "162639.505000", "162639.508000", "162639.511000", "162639.514000", "162639.517000", "162639.520000", "162639.522000", "162639.525000", "162639.528000", "162639.531000", "162639.534000", "162639.537000", "162639.540000", "162639.543000", "162639.546000", "162639.549000", "162639.552000", "162639.555000", "162639.558000", "162639.561000", "162719.484000", "162719.487000", "162719.490000", "162719.493000", "162719.496000", "162719.499000", "162719.502000", "162719.505000", "162719.508000", "162719.511000", "162719.514000", "162719.517000", "162719.520000", "162719.523000", "162719.526000", "162719.529000", "162719.532000", "162719.534000", "162719.537000", "162719.540000", "162719.543000", "162719.546000", "162719.549000", "162719.552000", "162719.555000", "162719.558000", "162719.561000", "162739.484000", "162739.487000", "162739.490000", "162739.493000", "162739.496000", "162739.499000", "162739.502000", "162739.505000", "162739.508000", "162739.511000", "162739.514000", "162739.516000", "162739.519000", "162819.484000", "162819.487000", "162819.490000", "162819.493000", "162819.496000", "162819.499000", "162819.502000", "162819.505000", "162819.508000", "162819.511000", "162819.514000", "162819.517000", "162819.520000", "162819.522000", "162819.525000", "162819.528000", "162819.531000", "162819.534000", "162819.537000", "162819.540000", "162819.543000", "162819.546000", "162819.549000", "162819.552000", "162819.555000", "162819.558000", "162819.561000", "162859.484000", "162859.487000", "162859.490000", "162859.493000", "162859.496000", "162859.499000", "162859.502000", "162859.505000", "162859.508000", "162859.511000", "162859.514000", "162859.517000", "162859.520000", "162859.523000", "162859.526000", "162859.529000", "162859.531000", "162859.534000", "162859.537000", "162859.540000", "162859.543000", "162859.546000", "162859.549000", "162859.552000", "162859.555000", "162859.558000", "162859.561000", "162939.484000", "162939.487000", "162939.490000", "162939.493000", "162939.496000", "162939.499000", "162939.502000", "162939.505000", "162939.508000", "162939.511000", "162939.514000", "162939.517000", "162939.520000", "162939.522000", "162939.525000", "162939.528000", "162939.531000", "162939.534000", "162939.537000", "162939.540000", "162939.543000", "162939.546000", "162939.549000", "162939.552000", "162939.555000", "162939.558000", "162939.561000", "162942.189000", "162942.193000"],
