{
  "AcquisitionMatrixPE": 104,
  "AcquisitionNumber": 1,
  "AcquisitionTime": "16:29:54.882500",
  "BandwidthPerPixelPhaseEncode": 17.17,
  "BaseResolution": 104,
  "BodyPartExamined": "BRAIN",
  "CoilString": "HC1-7;NC1_2",
  "ConsistencyInfo": "N4_VE11C_LATEST_20160120",
  "ConversionSoftware": "dcm2niix",
  "ConversionSoftwareVersion": "v1.0.20190902",
  "DerivedVendorReportedEchoSpacing": 0.000560011,
  "DeviceSerialNumber": "167006",
  "DwellTime": 2.1e-06,
  "EchoTime": 0.037,
  "EchoTrainLength": 104,
  "EffectiveEchoSpacing": 0.000560011,
  "FlipAngle": 52,
  "ImageComments": "Unaliased_MB4_PE3_LB",
  "ImageOrientationPatientDICOM": [0.999692, -0.0229474, -0.00948101, 0.0181478, 0.935922, -0.351739],
  "ImageType": [
    "ORIGINAL",
    "PRIMARY",
    "M",
    "MB",
    "ND",
    "MOSAIC"
],
  "ImagingFrequency": 123.259,
  "InPlanePhaseEncodingDirectionDICOM": "COL",
  "InstitutionAddress": "Chemin_Queen-Mary_4565_Montreal_District_CA_H3W_1W5",
  "InstitutionName": "IUGM",
  "InstitutionalDepartmentName": "Department",
  "MRAcquisitionType": "2D",
  "MagneticFieldStrength": 3,
  "Manufacturer": "Siemens",
  "ManufacturersModelName": "Prisma_fit",
  "Modality": "MR",
  "MultibandAccelerationFactor": 4,
  "PartialFourier": 1,
  "PatientPosition": "HFS",
  "PercentPhaseFOV": 100,
  "PhaseEncodingDirection": "j",
  "PhaseEncodingSteps": 104,
  "PhaseResolution": 1,
  "PixelBandwidth": 2290,
  "ProcedureStepDescription": "video_friends",
  "ProtocolName": "func_task-friends-s05e08b",
  "PulseSequenceDetails": "%CustomerSeq%_cmrr_mbep2d_bold",
  "ReceiveCoilActiveElements": "HC1-7;NC1,2",
  "ReceiveCoilName": "HeadNeck_64",
  "ReconMatrixPE": 104,
  "RepetitionTime": 1.49,
  "SAR": 0.0293712,
  "ScanOptions": "FS",
  "ScanningSequence": "EP",
  "SequenceName": "epfid2d1_104",
  "SequenceVariant": "SK_SS",
  "SeriesDescription": "func_task-friends-s05e08b",
  "SeriesNumber": 19,
  "ShimSetting": [636, -7245, -8887, 661, 57, -249, -72, -16],
  "SliceThickness": 2,
  "SliceTiming": [0, 0.785, 0.1, 0.8825, 0.1975, 0.98, 0.295, 1.08, 0.3925, 1.1775, 0.49, 1.275, 0.59, 1.3725, 0.6875, 0, 0.785, 0.1, 0.8825, 0.1975, 0.98, 0.295, 1.08, 0.3925, 1.1775, 0.49, 1.275, 0.59, 1.3725, 0.6875, 0, 0.785, 0.1, 0.8825, 0.1975, 0.98, 0.295, 1.08, 0.3925, 1.1775, 0.49, 1.275, 0.59, 1.3725, 0.6875, 0, 0.785, 0.1, 0.8825, 0.1975, 0.98, 0.295, 1.08, 0.3925, 1.1775, 0.49, 1.275, 0.59, 1.3725, 0.6875],
  "SoftwareVersions": "syngo_MR_E11",
  "SpacingBetweenSlices": 2,
  "StationName": "MRC35049",
  "TaskName": "s05e08b",
  "TotalReadoutTime": 0.0576811,
  "TxRefAmp": 221.097,
  "WipMemBlock": "2ffcd167-2021-4a57-935e-7a49a431b1cd||Sequence: R016 ve11c/master r/e634e98; Dec 19 2017 11:00:25 by eja",
  "dcmmeta_affine": [
    [-1.9993834495544434, 0.03629552572965622, -0.03388996422290802, 101.1307144165039],
    [0.045894842594861984, 1.87184476852417, -0.7029160857200623, -74.91178131103516],
    [-0.018962020054459572, 0.7034770846366882, 1.872100591659546, -83.67430877685547],
    [0.0, 0.0, 0.0, 1.0]
],
  "dcmmeta_reorient_transform": [
    [0.0, -1.0, 0.0, 103.0],
    [1.0, 0.0, 0.0, 0.0],
    [0.0, 0.0, 1.0, 0.0],
    [0.0, 0.0, 0.0, 1.0]
],
  "dcmmeta_shape": [104, 104, 60, 480],
  "dcmmeta_slice_dim": 2,
  "dcmmeta_version": 0.6,
  "global": {
    "const": {
      "AcquisitionMatrix": [104, 0, 0, 104],
      "AngioFlag": "N",
      "BitsAllocated": 16,
      "BitsStored": 16,
      "BodyPartExamined": "BRAIN",
      "Columns": 832,
      "EchoNumbers": 1,
      "EchoTime": 37.0,
      "EchoTrainLength": 104,
      "FlipAngle": 52.0,
      "HighBit": 15,
      "ImageOrientationPatient": [0.99969171564809, -0.0229474206944, -0.0094810098644, 0.01814776225761, 0.935922358844, -0.3517385349104],
      "ImagePositionPatient": [-845.8562927302, -782.53397796249, 251.7516603066],
      "ImageType": [
        "ORIGINAL",
        "PRIMARY",
        "M",
        "MB",
        "ND",
        "MOSAIC"
],
      "ImagedNucleus": "1H",
      "ImagingFrequency": 123.259008,
      "InPlanePhaseEncodingDirection": "COL",
      "MRAcquisitionType": "2D",
      "MagneticFieldStrength": 3.0,
      "Manufacturer": "SIEMENS",
      "ManufacturerModelName": "Prisma_fit",
      "Modality": "MR",
      "NumberOfAverages": 1.0,
      "NumberOfPhaseEncodingSteps": 104,
      "PercentPhaseFieldOfView": 100.0,
      "PercentSampling": 100.0,
      "PerformedProcedureStepStartTime": "150039.986000",
      "PhotometricInterpretation": "MONOCHROME2",
      "PixelBandwidth": 2290.0,
      "PixelRepresentation": 0,
      "PixelSpacing": [2.0, 2.0],
      "ProtocolName": "func_task-friends-s05e08b",
      "RepetitionTime": 1490.0,
      "Rows": 832,
      "SAR": 0.0293711538573,
      "SamplesPerPixel": 1,
      "ScanOptions": "FS",
      "ScanningSequence": "EP",
      "SequenceName": "epfid2d1_104",
      "SequenceVariant": [
        "SK",
        "SS"
],
      "SeriesDescription": "func_task-friends-s05e08b",
      "SeriesNumber": 19,
      "SeriesTime": "163111.586000",
      "SliceLocation": -53.708667044919,
      "SliceThickness": 2.0,
      "SmallestImagePixelValue": 0,
      "SoftwareVersions": "syngo MR E11",
      "SpacingBetweenSlices": 2.0000000185418,
      "SpecificCharacterSet": "ISO_IR 100",
      "StudyID": "1",
      "StudyTime": "150039.884000",
      "TransmitCoilName": "Body",
      "VariableFlipAngleFlag": "N",
      "WindowCenterWidthExplanation": "Algo1",
      "dBdt": 0.0},
    "slices": {}
  },
  "time": {
    "samples": {
      "AcquisitionNumber": [1, 2, 3, 4, 5, 6, 7, 8, 9, 10, 11, 12, 13, 14, 15, 16, 17, 18, 19, 20, 21, 22, 23, 24, 25, 26, 27, 28, 29, 30, 31, 32, 33, 34, 35, 36, 37, 38, 39, 40, 41, 42, 43, 44, 45, 46, 47, 48, 49, 50, 51, 52, 53, 54, 55, 56, 57, 58, 59, 60, 61, 62, 63, 64, 65, 66, 67, 68, 69, 70, 71, 72, 73, 74, 75, 76, 77, 78, 79, 80, 81, 82, 83, 84, 85, 86, 87, 88, 89, 90, 91, 92, 93, 94, 95, 96, 97, 98, 99, 100, 101, 102, 103, 104, 105, 106, 107, 108, 109, 110, 111, 112, 113, 114, 115, 116, 117, 118, 119, 120, 121, 122, 123, 124, 125, 126, 127, 128, 129, 130, 131, 132, 133, 134, 135, 136, 137, 138, 139, 140, 141, 142, 143, 144, 145, 146, 147, 148, 149, 150, 151, 152, 153, 154, 155, 156, 157, 158, 159, 160, 161, 162, 163, 164, 165, 166, 167, 168, 169, 170, 171, 172, 173, 174, 175, 176, 177, 178, 179, 180, 181, 182, 183, 184, 185, 186, 187, 188, 189, 190, 191, 192, 193, 194, 195, 196, 197, 198, 199, 200, 201, 202, 203, 204, 205, 206, 207, 208, 209, 210, 211, 212, 213, 214, 215, 216, 217, 218, 219, 220, 221, 222, 223, 224, 225, 226, 227, 228, 229, 230, 231, 232, 233, 234, 235, 236, 237, 238, 239, 240, 241, 242, 243, 244, 245, 246, 247, 248, 249, 250, 251, 252, 253, 254, 255, 256, 257, 258, 259, 260, 261, 262, 263, 264, 265, 266, 267, 268, 269, 270, 271, 272, 273, 274, 275, 276, 277, 278, 279, 280, 281, 282, 283, 284, 285, 286, 287, 288, 289, 290, 291, 292, 293, 294, 295, 296, 297, 298, 299, 300, 301, 302, 303, 304, 305, 306, 307, 308, 309, 310, 311, 312, 313, 314, 315, 316, 317, 318, 319, 320, 321, 322, 323, 324, 325, 326, 327, 328, 329, 330, 331, 332, 333, 334, 335, 336, 337, 338, 339, 340, 341, 342, 343, 344, 345, 346, 347, 348, 349, 350, 351, 352, 353, 354, 355, 356, 357, 358, 359, 360, 361, 362, 363, 364, 365, 366, 367, 368, 369, 370, 371, 372, 373, 374, 375, 376, 377, 378, 379, 380, 381, 382, 383, 384, 385, 386, 387, 388, 389, 390, 391, 392, 393, 394, 395, 396, 397, 398, 399, 400, 401, 402, 403, 404, 405, 406, 407, 408, 409, 410, 411, 412, 413, 414, 415, 416, 417, 418, 419, 420, 421, 422, 423, 424, 425, 426, 427, 428, 429, 430, 431, 432, 433, 434, 435, 436, 437, 438, 439, 440, 441, 442, 443, 444, 445, 446, 447, 448, 449, 450, 451, 452, 453, 454, 455, 456, 457, 458, 459, 460, 461, 462, 463, 464, 465, 466, 467, 468, 469, 470, 471, 472, 473, 474, 475, 476, 477, 478, 479, 480],
      "AcquisitionTime": ["162954.882500", "162956.372500", "162957.862500", "162959.352500", "163000.842500", "163002.332500", "163003.822500", "163005.312500", "163006.802500", "163008.292500", "163009.782500", "163011.272500", "163012.762500", "163014.252500", "163015.742500", "163017.232500", "163018.722500", "163020.212500", "163021.702500", "163023.192500", "163024.682500", "163026.172500", "163027.662500", "163029.152500", "163030.642500", "163032.132500", "163033.622500", "163035.112500", "163036.602500", "163038.092500", "163039.582500", "163041.072500", "163042.562500", "163044.052500", "163045.542500", "163047.032500", "163048.522500", "163050.012500", "163051.502500", "163052.992500", "163054.482500", "163055.972500", "163057.462500", "163058.952500", "163100.442500", "163101.932500", "163103.422500", "163104.912500", "163106.402500", "163107.892500", "163109.382500", "163110.872500", "163112.362500", "163113.852500", "163115.342500", "163116.832500", "163118.322500", "163119.812500", "163121.302500", "163122.792500", "163124.282500", "163125.772500", "163127.262500", "163128.752500", "163130.242500", "163131.732500", "163133.222500", "163134.712500", "163136.202500", "163137.692500", "163139.182500", "163140.672500", "163142.162500", "163143.652500", "163145.142500", "163146.632500", "163148.122500", "163149.612500", "163151.102500", "163152.592500", "163154.082500", "163155.572500", "163157.062500", "163158.552500", "163200.042500", "163201.532500", "163203.022500", "163204.512500", "163206.002500", "163207.492500", "163208.982500", "163210.472500", "163211.962500", "163213.452500", "163214.942500", "163216.432500", "163217.922500", "163219.412500", "163220.902500", "163222.392500", "163223.882500", "163225.372500", "163226.862500", "163228.352500", "163229.842500", "163231.332500", "163232.822500", "163234.312500", "163235.802500", "163237.292500", "163238.782500", "163240.272500", "163241.762500", "163243.252500", "163244.742500", "163246.232500", "163247.722500", "163249.212500", "163250.702500", "163252.192500", "163253.682500", "163255.172500", "163256.662500", "163258.152500", "163259.642500", "163301.132500", "163302.622500", "163304.112500", "163305.602500", "163307.092500", "163308.582500", "163310.072500", "163311.562500", "163313.052500", "163314.542500", "163316.032500", "163317.522500", "163319.012500", "163320.502500", "163321.992500", "163323.482500", "163324.972500", "163326.462500", "163327.952500", "163329.442500", "163330.932500", "163332.422500", "163333.912500", "163335.402500", "163336.892500", "163338.382500", "163339.872500", "163341.362500", "163342.852500", "163344.342500", "163345.832500", "163347.322500", "163348.812500", "163350.302500", "163351.792500", "163353.282500", "163354.772500", "163356.262500", "163357.752500", "163359.242500", "163400.732500", "163402.222500", "163403.712500", "163405.202500", "163406.692500", "163408.182500", "163409.672500", "163411.162500", "163412.652500", "163414.142500", "163415.632500", "163417.122500", "163418.612500", "163420.102500", "163421.592500", "163423.082500", "163424.572500", "163426.062500", "163427.552500", "163429.042500", "163430.532500", "163432.022500", "163433.512500", "163435.002500", "163436.492500", "163437.982500", "163439.472500", "163440.962500", "163442.452500", "163443.942500", "163445.432500", "163446.922500", "163448.412500", "163449.902500", "163451.392500", "163452.882500", "163454.372500", "163455.862500", "163457.352500", "163458.842500", "163500.332500", "163501.822500", "163503.312500", "163504.802500", "163506.292500", "163507.782500", "163509.272500", "163510.762500", "163512.252500", "163513.742500", "163515.232500", "163516.722500", "163518.212500", "163519.702500", "163521.192500", "163522.682500", "163524.172500", "163525.662500", "163527.152500", "163528.642500", "163530.132500", "163531.622500", "163533.112500", "163534.602500", "163536.092500", "163537.582500", "163539.072500", "163540.562500", "163542.052500", "163543.542500", "163545.032500", "163546.522500", "163548.012500", "163549.502500", "163550.992500", "163552.482500", "163553.972500", "163555.462500", "163556.952500", "163558.442500", "163559.932500", "163601.422500", "163602.912500", "163604.402500", "163605.892500", "163607.382500", "163608.872500", "163610.362500", "163611.852500", "163613.342500", "163614.832500", "163616.322500", "163617.812500", "163619.302500", "163620.792500", "163622.282500", "163623.772500", "163625.262500", "163626.752500", "163628.242500", "163629.732500", "163631.222500", "163632.712500", "163634.202500", "163635.692500", "163637.182500", "163638.672500", "163640.162500", "163641.652500", "163643.142500", "163644.632500", "163646.122500", "163647.612500", "163649.102500", "163650.592500", "163652.082500", "163653.572500", "163655.062500", "163656.552500", "163658.042500", "163659.532500", "163701.022500", "163702.512500", "163704.002500", "163705.492500", "163706.982500", "163708.472500", "163709.962500", "163711.452500", "163712.942500", "163714.432500", "163715.922500", "163717.412500", "163718.902500", "163720.392500", "163721.882500", "163723.372500", "163724.862500", "163726.352500", "163727.842500", "163729.332500", "163730.822500", "163732.312500", "163733.802500", "163735.292500", "163736.782500", "163738.272500", "163739.762500", "163741.252500", "163742.742500", "163744.232500", "163745.722500", "163747.212500", "163748.702500", "163750.192500", "163751.682500", "163753.172500", "163754.662500", "163756.152500", "163757.642500", "163759.132500", "163800.622500", "163802.112500", "163803.602500", "163805.092500", "163806.582500", "163808.072500", "163809.562500", "163811.052500", "163812.542500", "163814.032500", "163815.522500", "163817.012500", "163818.502500", "163819.992500", "163821.482500", "163822.972500", "163824.462500", "163825.952500", "163827.442500", "163828.932500", "163830.422500", "163831.912500", "163833.402500", "163834.892500", "163836.382500", "163837.872500", "163839.362500", "163840.852500", "163842.342500", "163843.832500", "163845.322500", "163846.812500", "163848.302500", "163849.792500", "163851.282500", "163852.772500", "163854.262500", "163855.752500", "163857.242500", "163858.732500", "163900.222500", "163901.712500", "163903.202500", "163904.692500", "163906.182500", "163907.672500", "163909.162500", "163910.652500", "163912.142500", "163913.632500", "163915.122500", "163916.612500", "163918.102500", "163919.592500", "163921.082500", "163922.572500", "163924.062500", "163925.552500", "163927.042500", "163928.532500", "163930.022500", "163931.512500", "163933.002500", "163934.492500", "163935.982500", "163937.472500", "163938.962500", "163940.452500", "163941.942500", "163943.432500", "163944.922500", "163946.412500", "163947.902500", "163949.392500", "163950.882500", "163952.372500", "163953.862500", "163955.352500", "163956.842500", "163958.332500", "163959.822500", "164001.312500", "164002.802500", "164004.292500", "164005.782500", "164007.272500", "164008.762500", "164010.252500", "164011.742500", "164013.232500", "164014.722500", "164016.212500", "164017.702500", "164019.192500", "164020.682500", "164022.172500", "164023.662500", "164025.152500", "164026.642500", "164028.132500", "164029.622500", "164031.112500", "164032.602500", "164034.092500", "164035.582500", "164037.072500", "164038.562500", "164040.052500", "164041.542500", "164043.032500", "164044.522500", "164046.012500", "164047.502500", "164048.992500", "164050.482500", "164051.972500", "164053.462500", "164054.952500", "164056.442500", "164057.932500", "164059.422500", "164100.912500", "164102.402500", "164103.892500", "164105.382500", "164106.872500", "164108.362500", "164109.852500", "164111.342500", "164112.832500", "164114.322500", "164115.812500", "164117.302500", "164118.792500", "164120.282500", "164121.772500", "164123.262500", "164124.752500", "164126.242500", "164127.732500", "164129.222500", "164130.712500", "164132.202500", "164133.692500", "164135.182500", "164136.672500", "164138.162500", "164139.652500", "164141.142500", "164142.632500", "164144.122500", "164145.612500", "164147.102500", "164148.592500"],
      "ContentTime": ["163111.588000", "163111.592000", "163111.594000", "163111.597000", "163111.600000", "163111.603000", "163111.606000", "163111.609000", "163111.612000", "163111.615000", "163111.618000", "163111.621000", "163111.624000", "163111.627000", "163111.630000", "163111.633000", "163111.636000", "163111.639000", "163111.642000", "163111.644000", "163111.648000", "163111.650000", "163111.653000", "163131.552000", "163131.555000", "163131.558000", "163131.561000", "163131.564000", "163131.567000", "163131.570000", "163131.573000", "163131.575000", "163131.578000", "163131.581000", "163131.584000", "163131.587000", "163131.590000", "163131.593000", "163131.596000", "163131.599000", "163131.602000", "163131.605000", "163131.608000", "163151.552000", "163151.555000", "163151.558000", "163151.561000", "163151.564000", "163151.567000", "163151.570000", "163151.573000", "163151.576000", "163151.578000", "163151.581000", "163151.584000", "163151.587000", "163151.590000", "163151.593000", "163151.596000", "163151.599000", "163151.602000", "163151.605000", "163151.608000", "163151.611000", "163211.552000", "163211.555000", "163211.558000", "163211.561000", "163211.564000", "163211.567000", "163211.570000", "163211.573000", "163211.576000", "163211.579000", "163211.582000", "163211.585000", "163211.588000", "163211.603000", "163211.606000", "163211.609000", "163211.612000", "163211.615000", "163211.618000", "163211.621000", "163231.559000", "163231.562000", "163231.565000", "163231.568000", "163231.571000", "163231.574000", "163231.577000", "163231.580000", "163231.583000", "163231.586000", "163231.589000", "163231.591000", "163231.598000", "163231.601000", "163231.604000", "163231.607000", "163231.610000", "163231.613000", "163231.616000", "163231.619000", "163311.552000", "163311.555000", "163311.558000", "163311.561000", "163311.564000", "163311.567000", "163311.570000", "163311.585000", "163311.588000", "163311.591000", "163311.594000", "163311.597000", "163311.600000", "163311.603000", "163311.607000", "163311.610000", "163311.613000", "163311.616000", "163311.619000", "163311.622000", "163311.624000", "163311.627000", "163311.630000", "163311.633000", "163311.636000", "163311.639000", "163311.642000", "163351.552000", "163351.555000", "163351.558000", "163351.561000", "163351.564000", "163351.567000", "163351.570000", "163351.573000", "163351.576000", "163351.579000", "163351.582000", "163351.585000", "163351.587000", "163351.590000", "163351.593000", "163351.596000", "163351.599000", "163351.602000", "163351.605000", "163351.608000", "163351.611000", "163351.614000", "163351.617000", "163351.619000", "163351.622000", "163351.625000", "163351.628000", "163431.552000", "163431.555000", "163431.558000", "163431.561000", "163431.564000", "163431.567000", "163431.570000", "163431.572000", "163431.575000", "163431.578000", "163431.581000", "163431.584000", "163431.587000", "163431.590000", "163431.593000", "163431.596000", "163431.599000", "163431.602000", "163431.605000", "163431.608000", "163431.610000", "163431.613000", "163431.616000", "163431.619000", "163431.631000", "163431.635000", "163431.637000", "163511.551000", "163511.554000", "163511.557000", "163511.560000", "163511.563000", "163511.566000", "163511.569000", "163511.572000", "163511.574000", "163511.577000", "163511.580000", "163511.583000", "163511.586000", "163511.589000", "163511.592000", "163511.595000", "163511.598000", "163511.601000", "163511.603000", "163511.606000", "163511.609000", "163511.612000", "163511.615000", "163511.618000", "163511.621000", "163511.624000", "163511.627000", "163551.552000", "163551.555000", "163551.558000", "163551.561000", "163551.564000", "163551.567000", "163551.570000", "163551.573000", "163551.576000", "163551.579000", "163551.581000", "163551.584000", "163551.587000", "163551.590000", "163551.593000", "163551.596000", "163551.599000", "163551.602000", "163551.605000", "163551.608000", "163551.611000", "163551.614000", "163551.616000", "163551.619000", "163551.622000", "163551.625000", "163551.628000", "163631.552000", "163631.555000", "163631.558000", "163631.561000", "163631.564000", "163631.567000", "163631.570000", "163631.573000", "163631.576000", "163631.579000", "163631.582000", "163631.585000", "163631.588000", "163631.590000", "163631.593000", "163631.596000", "163631.599000", "163631.602000", "163631.605000", "163631.608000", "163631.611000", "163631.614000", "163631.617000", "163631.620000", "163631.622000", "163631.625000", "163631.628000", "163711.552000", "163711.555000", "163711.558000", "163711.561000", "163711.564000", "163711.567000", "163711.570000", "163711.573000", "163711.576000", "163711.579000", "163711.581000", "163711.584000", "163711.587000", "163711.590000", "163711.593000", "163711.596000", "163711.599000", "163711.602000", "163711.605000", "163711.608000", "163711.611000", "163711.615000", "163711.618000", "163711.621000", "163711.624000", "163711.627000", "163751.552000", "163751.555000", "163751.558000", "163751.561000", "163751.564000", "163751.567000", "163751.570000", "163751.573000", "163751.576000", "163751.579000", "163751.582000", "163751.585000", "163751.588000", "163751.590000", "163751.593000", "163751.596000", "163751.599000", "163751.602000", "163751.605000", "163751.608000", "163751.611000", "163751.614000", "163751.617000", "163751.620000", "163751.622000", "163751.625000", "163751.628000", "163831.552000", "163831.555000", "163831.558000", "163831.561000", "163831.564000", "163831.567000", "163831.570000", "163831.573000", "163831.576000", "163831.579000", "163831.582000", "163831.585000", "163831.588000", "163831.590000", "163831.593000", "163831.596000", "163831.599000", "163831.602000", "163831.605000", "163831.608000", "163831.611000", "163831.614000", "163831.617000", "163831.620000", "163831.623000", "163831.625000", "163831.628000", "163911.552000", "163911.555000", "163911.558000", "163911.561000", "163911.564000", "163911.567000", "163911.570000", "163911.573000", "163911.576000", "163911.579000", "163911.581000", "163911.584000", "163911.587000", "163911.590000", "163911.593000", "163911.596000", "163911.599000", "163911.602000", "163911.605000", "163911.631000", "163911.634000", "163911.637000", "163911.640000", "163911.643000", "163911.646000", "163911.649000", "163911.651000", "163951.551000", "163951.555000", "163951.558000", "163951.561000", "163951.564000", "163951.567000", "163951.570000", "163951.573000", "163951.576000", "163951.579000", "163951.582000", "163951.585000", "163951.587000", "163951.590000", "163951.593000", "163951.596000", "163951.599000", "163951.602000", "163951.605000", "163951.608000", "163951.611000", "163951.614000", "163951.617000", "163951.620000", "163951.623000", "163951.626000", "163951.629000", "164031.552000", "164031.555000", "164031.558000", "164031.561000", "164031.564000", "164031.567000", "164031.570000", "164031.573000", "164031.576000", "164031.579000", "164031.582000", "164031.585000", "164031.587000", "164031.590000", "164031.593000", "164031.596000", "164031.599000", "164031.602000", "164031.605000", "164031.608000", "164031.611000", "164031.614000", "164031.617000", "164031.619000", "164031.622000", "164031.625000", "164031.628000", "164111.552000", "164111.555000", "164111.558000", "164111.561000", "164111.564000", "164111.567000", "164111.570000", "164111.573000", "164111.575000", "164111.578000", "164111.581000", "164111.584000", "164111.587000", "164111.590000", "164111.593000", "164111.596000", "164111.599000", "164111.602000", "164111.605000", "164111.607000", "164111.610000", "164111.613000", "164111.616000", "164111.619000", "164111.622000", "164111.625000", "164111.628000", "164150.297000", "164150.300000", "164150.303000", "164150.306000", "164150.309000", "164150.312000", "164150.315000", "164150.318000", "164150.321000", "164150.324000", "164150.327000", "164150.330000", "164150.333000", "164150.336000", "164150.339000", "164150.342000", "164150.345000", "164150.348000", "164150.350000", "164150.353000", "164150.356000", "164150.359000", "164150.362000", "164150.365000", "164150.368000", "164150.371000"],
