{
  "AcquisitionMatrixPE": 104,
  "AcquisitionNumber": 1,
  "AcquisitionTime": "15:39:20.687500",
  "BandwidthPerPixelPhaseEncode": 17.17,
  "BaseResolution": 104,
  "BodyPartExamined": "BRAIN",
  "CoilString": "HC1-7;NC1_2",
  "ConsistencyInfo": "N4_VE11C_LATEST_20160120",
  "ConversionSoftware": "dcm2niix",
  "ConversionSoftwareVersion": "v1.0.20190902",
  "DerivedVendorReportedEchoSpacing": 0.000560011,
  "DeviceSerialNumber": "167006",
  "DwellTime": 2.1e-06,
  "EchoTime": 0.037,
  "EchoTrainLength": 104,
  "EffectiveEchoSpacing": 0.000560011,
  "FlipAngle": 52,
  "ImageComments": "Unaliased_MB4_PE3_LB",
  "ImageOrientationPatientDICOM": [0.999692, -0.0229474, -0.00948101, 0.0181478, 0.935922, -0.351739],
  "ImageType": [
    "ORIGINAL",
    "PRIMARY",
    "M",
    "MB",
    "ND",
    "MOSAIC"
],
  "ImagingFrequency": 123.259,
  "InPlanePhaseEncodingDirectionDICOM": "COL",
  "InstitutionAddress": "Chemin_Queen-Mary_4565_Montreal_District_CA_H3W_1W5",
  "InstitutionName": "IUGM",
  "InstitutionalDepartmentName": "Department",
  "MRAcquisitionType": "2D",
  "MagneticFieldStrength": 3,
  "Manufacturer": "Siemens",
  "ManufacturersModelName": "Prisma_fit",
  "Modality": "MR",
  "MultibandAccelerationFactor": 4,
  "PartialFourier": 1,
  "PatientPosition": "HFS",
  "PercentPhaseFOV": 100,
  "PhaseEncodingDirection": "j",
  "PhaseEncodingSteps": 104,
  "PhaseResolution": 1,
  "PixelBandwidth": 2290,
  "ProcedureStepDescription": "video_friends",
  "ProtocolName": "func_task-friends-s05e06b",
  "PulseSequenceDetails": "%CustomerSeq%_cmrr_mbep2d_bold",
  "ReceiveCoilActiveElements": "HC1-7;NC1,2",
  "ReceiveCoilName": "HeadNeck_64",
  "ReconMatrixPE": 104,
  "RepetitionTime": 1.49,
  "SAR": 0.0293743,
  "ScanOptions": "FS",
  "ScanningSequence": "EP",
  "SequenceName": "epfid2d1_104",
  "SequenceVariant": "SK_SS",
  "SeriesDescription": "func_task-friends-s05e06b",
  "SeriesNumber": 11,
  "ShimSetting": [636, -7245, -8887, 661, 57, -249, -72, -16],
  "SliceThickness": 2,
  "SliceTiming": [0, 0.7825, 0.0975, 0.88, 0.195, 0.98, 0.2925, 1.0775, 0.39, 1.175, 0.49, 1.2725, 0.5875, 1.37, 0.685, 0, 0.7825, 0.0975, 0.88, 0.195, 0.98, 0.2925, 1.0775, 0.39, 1.175, 0.49, 1.2725, 0.5875, 1.37, 0.685, 0, 0.7825, 0.0975, 0.88, 0.195, 0.98, 0.2925, 1.0775, 0.39, 1.175, 0.49, 1.2725, 0.5875, 1.37, 0.685, 0, 0.7825, 0.0975, 0.88, 0.195, 0.98, 0.2925, 1.0775, 0.39, 1.175, 0.49, 1.2725, 0.5875, 1.37, 0.685],
  "SoftwareVersions": "syngo_MR_E11",
  "SpacingBetweenSlices": 2,
  "StationName": "MRC35049",
  "TaskName": "s05e06b",
  "TotalReadoutTime": 0.0576811,
  "TxRefAmp": 221.097,
  "WipMemBlock": "846303f1-ecb1-4a35-9c57-a89a4441187a||Sequence: R016 ve11c/master r/e634e98; Dec 19 2017 11:00:25 by eja",
  "dcmmeta_affine": [
    [-1.9993834495544434, 0.03629552572965622, -0.03388996422290802, 101.1307144165039],
    [0.045894842594861984, 1.87184476852417, -0.7029160857200623, -74.91178131103516],
    [-0.018962020054459572, 0.7034770846366882, 1.872100591659546, -83.67430877685547],
    [0.0, 0.0, 0.0, 1.0]
],
  "dcmmeta_reorient_transform": [
    [0.0, -1.0, 0.0, 103.0],
    [1.0, 0.0, 0.0, 0.0],
    [0.0, 0.0, 1.0, 0.0],
    [0.0, 0.0, 0.0, 1.0]
],
  "dcmmeta_shape": [104, 104, 60, 493],
  "dcmmeta_slice_dim": 2,
  "dcmmeta_version": 0.6,
  "global": {
    "const": {
      "AcquisitionMatrix": [104, 0, 0, 104],
      "AngioFlag": "N",
      "BitsAllocated": 16,
      "BitsStored": 16,
      "BodyPartExamined": "BRAIN",
      "Columns": 832,
      "EchoNumbers": 1,
      "EchoTime": 37.0,
      "EchoTrainLength": 104,
      "FlipAngle": 52.0,
      "HighBit": 15,
      "ImageOrientationPatient": [0.99969171564809, -0.0229474206944, -0.0094810098644, 0.01814776225761, 0.935922358844, -0.3517385349104],
      "ImagePositionPatient": [-845.8562927302, -782.53397796249, 251.7516603066],
      "ImageType": [
        "ORIGINAL",
        "PRIMARY",
        "M",
        "MB",
        "ND",
        "MOSAIC"
],
      "ImagedNucleus": "1H",
      "ImagingFrequency": 123.25899,
      "InPlanePhaseEncodingDirection": "COL",
      "MRAcquisitionType": "2D",
      "MagneticFieldStrength": 3.0,
      "Manufacturer": "SIEMENS",
      "ManufacturerModelName": "Prisma_fit",
      "Modality": "MR",
      "NumberOfAverages": 1.0,
      "NumberOfPhaseEncodingSteps": 104,
      "PercentPhaseFieldOfView": 100.0,
      "PercentSampling": 100.0,
      "PerformedProcedureStepStartTime": "150039.986000",
      "PhotometricInterpretation": "MONOCHROME2",
      "PixelBandwidth": 2290.0,
      "PixelRepresentation": 0,
      "PixelSpacing": [2.0, 2.0],
      "ProtocolName": "func_task-friends-s05e06b",
      "RepetitionTime": 1490.0,
      "Rows": 832,
      "SAR": 0.02937434487336,
      "SamplesPerPixel": 1,
      "ScanOptions": "FS",
      "ScanningSequence": "EP",
      "SequenceName": "epfid2d1_104",
      "SequenceVariant": [
        "SK",
        "SS"
],
      "SeriesDescription": "func_task-friends-s05e06b",
      "SeriesNumber": 11,
      "SeriesTime": "154051.527000",
      "SliceLocation": -53.708667044919,
      "SliceThickness": 2.0,
      "SmallestImagePixelValue": 0,
      "SoftwareVersions": "syngo MR E11",
      "SpacingBetweenSlices": 2.0000000185418,
      "SpecificCharacterSet": "ISO_IR 100",
      "StudyID": "1",
      "StudyTime": "150039.884000",
      "TransmitCoilName": "Body",
      "VariableFlipAngleFlag": "N",
      "WindowCenterWidthExplanation": "Algo1",
      "dBdt": 0.0},
    "slices": {}
  },
  "time": {
    "samples": {
      "AcquisitionNumber": [1, 2, 3, 4, 5, 6, 7, 8, 9, 10, 11, 12, 13, 14, 15, 16, 17, 18, 19, 20, 21, 22, 23, 24, 25, 26, 27, 28, 29, 30, 31, 32, 33, 34, 35, 36, 37, 38, 39, 40, 41, 42, 43, 44, 45, 46, 47, 48, 49, 50, 51, 52, 53, 54, 55, 56, 57, 58, 59, 60, 61, 62, 63, 64, 65, 66, 67, 68, 69, 70, 71, 72, 73, 74, 75, 76, 77, 78, 79, 80, 81, 82, 83, 84, 85, 86, 87, 88, 89, 90, 91, 92, 93, 94, 95, 96, 97, 98, 99, 100, 101, 102, 103, 104, 105, 106, 107, 108, 109, 110, 111, 112, 113, 114, 115, 116, 117, 118, 119, 120, 121, 122, 123, 124, 125, 126, 127, 128, 129, 130, 131, 132, 133, 134, 135, 136, 137, 138, 139, 140, 141, 142, 143, 144, 145, 146, 147, 148, 149, 150, 151, 152, 153, 154, 155, 156, 157, 158, 159, 160, 161, 162, 163, 164, 165, 166, 167, 168, 169, 170, 171, 172, 173, 174, 175, 176, 177, 178, 179, 180, 181, 182, 183, 184, 185, 186, 187, 188, 189, 190, 191, 192, 193, 194, 195, 196, 197, 198, 199, 200, 201, 202, 203, 204, 205, 206, 207, 208, 209, 210, 211, 212, 213, 214, 215, 216, 217, 218, 219, 220, 221, 222, 223, 224, 225, 226, 227, 228, 229, 230, 231, 232, 233, 234, 235, 236, 237, 238, 239, 240, 241, 242, 243, 244, 245, 246, 247, 248, 249, 250, 251, 252, 253, 254, 255, 256, 257, 258, 259, 260, 261, 262, 263, 264, 265, 266, 267, 268, 269, 270, 271, 272, 273, 274, 275, 276, 277, 278, 279, 280, 281, 282, 283, 284, 285, 286, 287, 288, 289, 290, 291, 292, 293, 294, 295, 296, 297, 298, 299, 300, 301, 302, 303, 304, 305, 306, 307, 308, 309, 310, 311, 312, 313, 314, 315, 316, 317, 318, 319, 320, 321, 322, 323, 324, 325, 326, 327, 328, 329, 330, 331, 332, 333, 334, 335, 336, 337, 338, 339, 340, 341, 342, 343, 344, 345, 346, 347, 348, 349, 350, 351, 352, 353, 354, 355, 356, 357, 358, 359, 360, 361, 362, 363, 364, 365, 366, 367, 368, 369, 370, 371, 372, 373, 374, 375, 376, 377, 378, 379, 380, 381, 382, 383, 384, 385, 386, 387, 388, 389, 390, 391, 392, 393, 394, 395, 396, 397, 398, 399, 400, 401, 402, 403, 404, 405, 406, 407, 408, 409, 410, 411, 412, 413, 414, 415, 416, 417, 418, 419, 420, 421, 422, 423, 424, 425, 426, 427, 428, 429, 430, 431, 432, 433, 434, 435, 436, 437, 438, 439, 440, 441, 442, 443, 444, 445, 446, 447, 448, 449, 450, 451, 452, 453, 454, 455, 456, 457, 458, 459, 460, 461, 462, 463, 464, 465, 466, 467, 468, 469, 470, 471, 472, 473, 474, 475, 476, 477, 478, 479, 480, 481, 482, 483, 484, 485, 486, 487, 488, 489, 490, 491, 492, 493],
      "AcquisitionTime": ["153920.687500", "153922.177500", "153923.667500", "153925.157500", "153926.647500", "153928.137500", "153929.627500", "153931.117500", "153932.607500", "153934.097500", "153935.587500", "153937.077500", "153938.567500", "153940.057500", "153941.547500", "153943.037500", "153944.527500", "153946.017500", "153947.507500", "153948.997500", "153950.487500", "153951.977500", "153953.467500", "153954.957500", "153956.447500", "153957.937500", "153959.427500", "154000.917500", "154002.407500", "154003.897500", "154005.387500", "154006.877500", "154008.367500", "154009.857500", "154011.347500", "154012.837500", "154014.327500", "154015.817500", "154017.307500", "154018.797500", "154020.287500", "154021.777500", "154023.267500", "154024.757500", "154026.247500", "154027.737500", "154029.227500", "154030.717500", "154032.207500", "154033.697500", "154035.187500", "154036.677500", "154038.167500", "154039.657500", "154041.147500", "154042.637500", "154044.127500", "154045.617500", "154047.107500", "154048.597500", "154050.087500", "154051.577500", "154053.067500", "154054.557500", "154056.047500", "154057.537500", "154059.027500", "154100.517500", "154102.007500", "154103.497500", "154104.987500", "154106.477500", "154107.967500", "154109.457500", "154110.947500", "154112.437500", "154113.927500", "154115.417500", "154116.907500", "154118.397500", "154119.887500", "154121.377500", "154122.867500", "154124.357500", "154125.847500", "154127.337500", "154128.827500", "154130.317500", "154131.807500", "154133.297500", "154134.787500", "154136.277500", "154137.767500", "154139.257500", "154140.747500", "154142.237500", "154143.727500", "154145.217500", "154146.707500", "154148.197500", "154149.687500", "154151.177500", "154152.667500", "154154.157500", "154155.647500", "154157.137500", "154158.627500", "154200.117500", "154201.607500", "154203.097500", "154204.587500", "154206.077500", "154207.567500", "154209.057500", "154210.547500", "154212.037500", "154213.527500", "154215.017500", "154216.507500", "154217.997500", "154219.487500", "154220.977500", "154222.467500", "154223.957500", "154225.447500", "154226.937500", "154228.427500", "154229.917500", "154231.407500", "154232.897500", "154234.387500", "154235.877500", "154237.367500", "154238.857500", "154240.347500", "154241.837500", "154243.327500", "154244.817500", "154246.307500", "154247.797500", "154249.287500", "154250.777500", "154252.267500", "154253.757500", "154255.247500", "154256.737500", "154258.227500", "154259.717500", "154301.207500", "154302.697500", "154304.187500", "154305.677500", "154307.167500", "154308.657500", "154310.147500", "154311.637500", "154313.127500", "154314.617500", "154316.107500", "154317.597500", "154319.087500", "154320.577500", "154322.067500", "154323.557500", "154325.047500", "154326.537500", "154328.027500", "154329.517500", "154331.007500", "154332.497500", "154333.987500", "154335.477500", "154336.967500", "154338.457500", "154339.947500", "154341.437500", "154342.927500", "154344.417500", "154345.907500", "154347.397500", "154348.887500", "154350.377500", "154351.867500", "154353.357500", "154354.847500", "154356.337500", "154357.827500", "154359.317500", "154400.807500", "154402.297500", "154403.787500", "154405.277500", "154406.767500", "154408.257500", "154409.747500", "154411.237500", "154412.727500", "154414.217500", "154415.707500", "154417.197500", "154418.687500", "154420.177500", "154421.667500", "154423.157500", "154424.647500", "154426.137500", "154427.627500", "154429.117500", "154430.607500", "154432.097500", "154433.587500", "154435.077500", "154436.567500", "154438.057500", "154439.547500", "154441.037500", "154442.527500", "154444.017500", "154445.507500", "154446.997500", "154448.487500", "154449.977500", "154451.467500", "154452.957500", "154454.447500", "154455.937500", "154457.427500", "154458.917500", "154500.407500", "154501.897500", "154503.387500", "154504.877500", "154506.367500", "154507.857500", "154509.347500", "154510.837500", "154512.327500", "154513.817500", "154515.307500", "154516.797500", "154518.287500", "154519.777500", "154521.267500", "154522.757500", "154524.247500", "154525.737500", "154527.227500", "154528.717500", "154530.207500", "154531.697500", "154533.187500", "154534.677500", "154536.167500", "154537.657500", "154539.147500", "154540.637500", "154542.127500", "154543.617500", "154545.107500", "154546.597500", "154548.087500", "154549.577500", "154551.067500", "154552.557500", "154554.047500", "154555.537500", "154557.027500", "154558.517500", "154600.007500", "154601.497500", "154602.987500", "154604.477500", "154605.967500", "154607.457500", "154608.947500", "154610.437500", "154611.927500", "154613.417500", "154614.907500", "154616.397500", "154617.887500", "154619.377500", "154620.867500", "154622.357500", "154623.847500", "154625.337500", "154626.827500", "154628.317500", "154629.807500", "154631.297500", "154632.787500", "154634.277500", "154635.767500", "154637.257500", "154638.747500", "154640.237500", "154641.727500", "154643.217500", "154644.707500", "154646.197500", "154647.687500", "154649.177500", "154650.667500", "154652.157500", "154653.647500", "154655.137500", "154656.627500", "154658.117500", "154659.607500", "154701.097500", "154702.587500", "154704.077500", "154705.567500", "154707.057500", "154708.547500", "154710.037500", "154711.527500", "154713.017500", "154714.507500", "154715.997500", "154717.487500", "154718.977500", "154720.467500", "154721.957500", "154723.447500", "154724.937500", "154726.427500", "154727.917500", "154729.407500", "154730.897500", "154732.387500", "154733.877500", "154735.367500", "154736.857500", "154738.347500", "154739.837500", "154741.327500", "154742.817500", "154744.307500", "154745.797500", "154747.287500", "154748.777500", "154750.267500", "154751.757500", "154753.247500", "154754.737500", "154756.227500", "154757.717500", "154759.207500", "154800.697500", "154802.187500", "154803.677500", "154805.167500", "154806.657500", "154808.147500", "154809.637500", "154811.127500", "154812.617500", "154814.107500", "154815.597500", "154817.087500", "154818.577500", "154820.067500", "154821.557500", "154823.047500", "154824.537500", "154826.027500", "154827.517500", "154829.007500", "154830.497500", "154831.987500", "154833.477500", "154834.967500", "154836.457500", "154837.947500", "154839.437500", "154840.927500", "154842.417500", "154843.907500", "154845.397500", "154846.887500", "154848.377500", "154849.867500", "154851.357500", "154852.847500", "154854.337500", "154855.827500", "154857.317500", "154858.807500", "154900.297500", "154901.787500", "154903.277500", "154904.767500", "154906.257500", "154907.747500", "154909.237500", "154910.727500", "154912.217500", "154913.707500", "154915.197500", "154916.687500", "154918.177500", "154919.667500", "154921.157500", "154922.647500", "154924.137500", "154925.627500", "154927.117500", "154928.607500", "154930.097500", "154931.587500", "154933.077500", "154934.567500", "154936.057500", "154937.547500", "154939.037500", "154940.527500", "154942.017500", "154943.507500", "154944.997500", "154946.487500", "154947.977500", "154949.467500", "154950.957500", "154952.447500", "154953.937500", "154955.427500", "154956.917500", "154958.407500", "154959.897500", "155001.387500", "155002.877500", "155004.367500", "155005.857500", "155007.347500", "155008.837500", "155010.327500", "155011.817500", "155013.307500", "155014.797500", "155016.287500", "155017.777500", "155019.267500", "155020.757500", "155022.247500", "155023.737500", "155025.227500", "155026.717500", "155028.207500", "155029.697500", "155031.187500", "155032.677500", "155034.167500", "155035.657500", "155037.147500", "155038.637500", "155040.127500", "155041.617500", "155043.107500", "155044.597500", "155046.087500", "155047.577500", "155049.067500", "155050.557500", "155052.047500", "155053.537500", "155055.027500", "155056.517500", "155058.007500", "155059.497500", "155100.987500", "155102.477500", "155103.967500", "155105.457500", "155106.947500", "155108.437500", "155109.927500", "155111.417500", "155112.907500", "155114.397500", "155115.887500", "155117.377500", "155118.867500", "155120.357500", "155121.847500", "155123.337500", "155124.827500", "155126.317500", "155127.807500", "155129.297500", "155130.787500", "155132.277500", "155133.767500"],
      "ContentTime": ["154051.530000", "154051.534000", "154051.537000", "154051.540000", "154051.542000", "154051.546000", "154051.549000", "154051.551000", "154051.554000", "154051.557000", "154051.560000", "154051.563000", "154051.566000", "154051.569000", "154051.572000", "154051.575000", "154051.578000", "154051.581000", "154051.584000", "154051.587000", "154051.590000", "154051.593000", "154051.596000", "154051.599000", "154051.602000", "154051.605000", "154051.608000", "154051.611000", "154051.613000", "154051.616000", "154051.619000", "154051.622000", "154051.625000", "154051.628000", "154051.631000", "154051.634000", "154111.480000", "154111.483000", "154111.486000", "154111.489000", "154111.492000", "154111.495000", "154111.498000", "154111.501000", "154111.504000", "154111.507000", "154111.510000", "154111.513000", "154111.516000", "154111.519000", "154111.527000", "154111.530000", "154111.533000", "154111.536000", "154111.539000", "154111.542000", "154131.480000", "154131.483000", "154131.486000", "154131.489000", "154131.492000", "154131.495000", "154131.498000", "154131.501000", "154131.504000", "154131.507000", "154131.509000", "154131.512000", "154131.515000", "154131.518000", "154131.521000", "154131.524000", "154131.527000", "154131.530000", "154131.533000", "154131.536000", "154151.479000", "154151.482000", "154151.485000", "154151.488000", "154151.491000", "154151.494000", "154151.497000", "154151.499000", "154151.503000", "154151.505000", "154151.508000", "154151.511000", "154151.514000", "154151.517000", "154151.520000", "154151.523000", "154151.526000", "154151.529000", "154151.532000", "154151.535000", "154231.480000", "154231.483000", "154231.486000", "154231.489000", "154231.492000", "154231.495000", "154231.498000", "154231.501000", "154231.504000", "154231.507000", "154231.510000", "154231.513000", "154231.516000", "154231.519000", "154231.522000", "154231.525000", "154231.527000", "154231.530000", "154231.533000", "154231.536000", "154231.539000", "154231.542000", "154231.545000", "154231.548000", "154231.551000", "154231.554000", "154231.557000", "154231.560000", "154231.563000", "154231.566000", "154231.569000", "154311.480000", "154311.483000", "154311.486000", "154311.489000", "154311.492000", "154311.495000", "154311.498000", "154311.501000", "154311.504000", "154311.507000", "154311.510000", "154311.513000", "154311.515000", "154311.519000", "154311.521000", "154311.524000", "154311.527000", "154311.530000", "154311.533000", "154311.536000", "154311.539000", "154311.542000", "154311.545000", "154311.548000", "154311.551000", "154311.554000", "154311.557000", "154351.480000", "154351.483000", "154351.486000", "154351.489000", "154351.492000", "154351.495000", "154351.498000", "154351.501000", "154351.504000", "154351.507000", "154351.510000", "154351.513000", "154351.516000", "154351.519000", "154351.521000", "154351.535000", "154351.538000", "154351.541000", "154351.544000", "154351.547000", "154351.550000", "154351.553000", "154351.555000", "154351.558000", "154351.567000", "154351.570000", "154351.573000", "154431.480000", "154431.483000", "154431.486000", "154431.489000", "154431.492000", "154431.495000", "154431.498000", "154431.501000", "154431.504000", "154431.507000", "154431.510000", "154431.513000", "154431.516000", "154431.519000", "154431.522000", "154431.525000", "154431.528000", "154431.531000", "154431.533000", "154431.537000", "154431.539000", "154431.542000", "154431.545000", "154431.548000", "154431.551000", "154431.554000", "154431.557000", "154511.480000", "154511.483000", "154511.486000", "154511.489000", "154511.492000", "154511.495000", "154511.498000", "154511.501000", "154511.504000", "154511.507000", "154511.510000", "154511.513000", "154511.516000", "154511.519000", "154511.522000", "154511.525000", "154511.528000", "154511.531000", "154511.534000", "154511.537000", "154511.540000", "154511.542000", "154511.545000", "154511.548000", "154511.551000", "154511.554000", "154511.557000", "154551.480000", "154551.483000", "154551.486000", "154551.489000", "154551.492000", "154551.495000", "154551.498000", "154551.501000", "154551.504000", "154551.507000", "154551.510000", "154551.513000", "154551.516000", "154551.519000", "154551.522000", "154551.525000", "154551.528000", "154551.531000", "154551.534000", "154551.537000", "154551.540000", "154551.543000", "154551.545000", "154551.549000", "154551.551000", "154551.554000", "154611.480000", "154611.483000", "154611.486000", "154611.489000", "154611.492000", "154611.495000", "154611.498000", "154611.501000", "154611.504000", "154611.507000", "154611.510000", "154611.513000", "154611.516000", "154611.519000", "154651.480000", "154651.483000", "154651.486000", "154651.489000", "154651.492000", "154651.495000", "154651.498000", "154651.501000", "154651.504000", "154651.507000", "154651.510000", "154651.513000", "154651.516000", "154651.519000", "154651.522000", "154651.525000", "154651.528000", "154651.531000", "154651.534000", "154651.536000", "154651.539000", "154651.542000", "154651.545000", "154651.548000", "154651.551000", "154651.554000", "154651.557000", "154731.480000", "154731.483000", "154731.486000", "154731.489000", "154731.492000", "154731.495000", "154731.498000", "154731.501000", "154731.504000", "154731.507000", "154731.510000", "154731.513000", "154731.518000", "154731.521000", "154731.524000", "154731.527000", "154731.530000", "154731.533000", "154731.536000", "154731.539000", "154731.542000", "154731.545000", "154731.548000", "154731.551000", "154731.554000", "154731.557000", "154731.560000", "154811.480000", "154811.483000", "154811.486000", "154811.489000", "154811.492000", "154811.495000", "154811.498000", "154811.501000", "154811.505000", "154811.508000", "154811.511000", "154811.514000", "154811.517000", "154811.520000", "154811.523000", "154811.526000", "154811.528000", "154811.532000", "154811.534000", "154811.537000", "154811.540000", "154811.543000", "154811.546000", "154811.560000", "154811.563000", "154811.566000", "154851.479000", "154851.482000", "154851.485000", "154851.488000", "154851.491000", "154851.494000", "154851.497000", "154851.500000", "154851.503000", "154851.506000", "154851.509000", "154851.512000", "154851.515000", "154851.518000", "154851.521000", "154851.524000", "154851.527000", "154851.530000", "154851.533000", "154851.536000", "154851.539000", "154851.542000", "154851.545000", "154851.548000", "154851.551000", "154851.554000", "154851.557000", "154931.480000", "154931.483000", "154931.486000", "154931.489000", "154931.492000", "154931.495000", "154931.498000", "154931.501000", "154931.504000", "154931.507000", "154931.510000", "154931.513000", "154931.516000", "154931.519000", "154931.522000", "154931.525000", "154931.528000", "154931.531000", "154931.534000", "154931.537000", "154931.540000", "154931.543000", "154931.546000", "154931.549000", "154931.552000", "154931.555000", "154931.558000", "155011.480000", "155011.483000", "155011.486000", "155011.489000", "155011.492000", "155011.495000", "155011.498000", "155011.501000", "155011.504000", "155011.507000", "155011.510000", "155011.513000", "155011.516000", "155011.519000", "155011.522000", "155011.525000", "155011.528000", "155011.531000", "155011.534000", "155011.537000", "155011.540000", "155011.543000", "155011.546000", "155011.549000", "155011.552000", "155011.554000", "155011.557000", "155051.480000", "155051.483000", "155051.486000", "155051.489000", "155051.492000", "155051.495000", "155051.498000", "155051.501000", "155051.504000", "155051.507000", "155051.510000", "155051.513000", "155051.516000", "155051.519000", "155051.522000", "155051.525000", "155051.528000", "155051.531000", "155051.534000", "155051.537000", "155051.540000", "155051.543000", "155051.546000", "155051.549000", "155051.551000", "155051.554000", "155051.557000", "155131.480000", "155131.483000", "155131.486000", "155131.489000", "155131.492000", "155131.495000", "155131.498000", "155131.501000", "155131.504000", "155131.507000", "155131.510000", "155131.513000", "155131.516000", "155131.519000", "155131.522000", "155131.525000", "155131.528000", "155131.531000", "155131.534000", "155131.537000", "155131.540000", "155131.543000", "155131.546000", "155131.549000", "155131.551000", "155131.554000", "155131.557000", "155135.832000", "155135.835000", "155135.838000"],
