{
  "AcquisitionMatrixPE": 104,
  "AcquisitionNumber": 1,
  "AcquisitionTime": "16:04:2.162500",
  "BandwidthPerPixelPhaseEncode": 17.17,
  "BaseResolution": 104,
  "BodyPartExamined": "BRAIN",
  "CoilString": "HC1-7;NC1_2",
  "ConsistencyInfo": "N4_VE11C_LATEST_20160120",
  "ConversionSoftware": "dcm2niix",
  "ConversionSoftwareVersion": "v1.0.20190902",
  "DerivedVendorReportedEchoSpacing": 0.000560011,
  "DeviceSerialNumber": "167006",
  "DwellTime": 2.1e-06,
  "EchoTime": 0.037,
  "EchoTrainLength": 104,
  "EffectiveEchoSpacing": 0.000560011,
  "FlipAngle": 52,
  "ImageComments": "Unaliased_MB4_PE3_LB",
  "ImageOrientationPatientDICOM": [0.999692, -0.0229474, -0.00948101, 0.0181478, 0.935922, -0.351739],
  "ImageType": [
    "ORIGINAL",
    "PRIMARY",
    "M",
    "MB",
    "ND",
    "MOSAIC"
],
  "ImagingFrequency": 123.259,
  "InPlanePhaseEncodingDirectionDICOM": "COL",
  "InstitutionAddress": "Chemin_Queen-Mary_4565_Montreal_District_CA_H3W_1W5",
  "InstitutionName": "IUGM",
  "InstitutionalDepartmentName": "Department",
  "MRAcquisitionType": "2D",
  "MagneticFieldStrength": 3,
  "Manufacturer": "Siemens",
  "ManufacturersModelName": "Prisma_fit",
  "Modality": "MR",
  "MultibandAccelerationFactor": 4,
  "PartialFourier": 1,
  "PatientPosition": "HFS",
  "PercentPhaseFOV": 100,
  "PhaseEncodingDirection": "j",
  "PhaseEncodingSteps": 104,
  "PhaseResolution": 1,
  "PixelBandwidth": 2290,
  "ProcedureStepDescription": "video_friends",
  "ProtocolName": "func_task-friends-s05e07b",
  "PulseSequenceDetails": "%CustomerSeq%_cmrr_mbep2d_bold",
  "ReceiveCoilActiveElements": "HC1-7;NC1,2",
  "ReceiveCoilName": "HeadNeck_64",
  "ReconMatrixPE": 104,
  "RepetitionTime": 1.49,
  "SAR": 0.0293743,
  "ScanOptions": "FS",
  "ScanningSequence": "EP",
  "SequenceName": "epfid2d1_104",
  "SequenceVariant": "SK_SS",
  "SeriesDescription": "func_task-friends-s05e07b",
  "SeriesNumber": 15,
  "ShimSetting": [636, -7245, -8887, 661, 57, -249, -72, -16],
  "SliceThickness": 2,
  "SliceTiming": [0, 0.785, 0.0975, 0.8825, 0.1975, 0.98, 0.295, 1.0775, 0.3925, 1.1775, 0.49, 1.275, 0.5875, 1.3725, 0.6875, 0, 0.785, 0.0975, 0.8825, 0.1975, 0.98, 0.295, 1.0775, 0.3925, 1.1775, 0.49, 1.275, 0.5875, 1.3725, 0.6875, 0, 0.785, 0.0975, 0.8825, 0.1975, 0.98, 0.295, 1.0775, 0.3925, 1.1775, 0.49, 1.275, 0.5875, 1.3725, 0.6875, 0, 0.785, 0.0975, 0.8825, 0.1975, 0.98, 0.295, 1.0775, 0.3925, 1.1775, 0.49, 1.275, 0.5875, 1.3725, 0.6875],
  "SoftwareVersions": "syngo_MR_E11",
  "SpacingBetweenSlices": 2,
  "StationName": "MRC35049",
  "TaskName": "s05e07b",
  "TotalReadoutTime": 0.0576811,
  "TxRefAmp": 221.097,
  "WipMemBlock": "e6bd1140-e56a-4a00-9466-abda345d5b81||Sequence: R016 ve11c/master r/e634e98; Dec 19 2017 11:00:25 by eja",
  "dcmmeta_affine": [
    [-1.9993834495544434, 0.03629552572965622, -0.03388996422290802, 101.1307144165039],
    [0.045894842594861984, 1.87184476852417, -0.7029160857200623, -74.91178131103516],
    [-0.018962020054459572, 0.7034770846366882, 1.872100591659546, -83.67430877685547],
    [0.0, 0.0, 0.0, 1.0]
],
  "dcmmeta_reorient_transform": [
    [0.0, -1.0, 0.0, 103.0],
    [1.0, 0.0, 0.0, 0.0],
    [0.0, 0.0, 1.0, 0.0],
    [0.0, 0.0, 0.0, 1.0]
],
  "dcmmeta_shape": [104, 104, 60, 493],
  "dcmmeta_slice_dim": 2,
  "dcmmeta_version": 0.6,
  "global": {
    "const": {
      "AcquisitionMatrix": [104, 0, 0, 104],
      "AngioFlag": "N",
      "BitsAllocated": 16,
      "BitsStored": 16,
      "BodyPartExamined": "BRAIN",
      "Columns": 832,
      "EchoNumbers": 1,
      "EchoTime": 37.0,
      "EchoTrainLength": 104,
      "FlipAngle": 52.0,
      "HighBit": 15,
      "ImageOrientationPatient": [0.99969171564809, -0.0229474206944, -0.0094810098644, 0.01814776225761, 0.935922358844, -0.3517385349104],
      "ImagePositionPatient": [-845.8562927302, -782.53397796249, 251.7516603066],
      "ImageType": [
        "ORIGINAL",
        "PRIMARY",
        "M",
        "MB",
        "ND",
        "MOSAIC"
],
      "ImagedNucleus": "1H",
      "ImagingFrequency": 123.259001,
      "InPlanePhaseEncodingDirection": "COL",
      "MRAcquisitionType": "2D",
      "MagneticFieldStrength": 3.0,
      "Manufacturer": "SIEMENS",
      "ManufacturerModelName": "Prisma_fit",
      "Modality": "MR",
      "NumberOfAverages": 1.0,
      "NumberOfPhaseEncodingSteps": 104,
      "PercentPhaseFieldOfView": 100.0,
      "PercentSampling": 100.0,
      "PerformedProcedureStepStartTime": "150039.986000",
      "PhotometricInterpretation": "MONOCHROME2",
      "PixelBandwidth": 2290.0,
      "PixelRepresentation": 0,
      "PixelSpacing": [2.0, 2.0],
      "ProtocolName": "func_task-friends-s05e07b",
      "RepetitionTime": 1490.0,
      "Rows": 832,
      "SAR": 0.02937434487336,
      "SamplesPerPixel": 1,
      "ScanOptions": "FS",
      "ScanningSequence": "EP",
      "SequenceName": "epfid2d1_104",
      "SequenceVariant": [
        "SK",
        "SS"
],
      "SeriesDescription": "func_task-friends-s05e07b",
      "SeriesNumber": 15,
      "SeriesTime": "160520.083000",
      "SliceLocation": -53.708667044919,
      "SliceThickness": 2.0,
      "SmallestImagePixelValue": 0,
      "SoftwareVersions": "syngo MR E11",
      "SpacingBetweenSlices": 2.0000000185418,
      "SpecificCharacterSet": "ISO_IR 100",
      "StudyID": "1",
      "StudyTime": "150039.884000",
      "TransmitCoilName": "Body",
      "VariableFlipAngleFlag": "N",
      "WindowCenterWidthExplanation": "Algo1",
      "dBdt": 0.0},
    "slices": {}
  },
  "time": {
    "samples": {
      "AcquisitionNumber": [1, 2, 3, 4, 5, 6, 7, 8, 9, 10, 11, 12, 13, 14, 15, 16, 17, 18, 19, 20, 21, 22, 23, 24, 25, 26, 27, 28, 29, 30, 31, 32, 33, 34, 35, 36, 37, 38, 39, 40, 41, 42, 43, 44, 45, 46, 47, 48, 49, 50, 51, 52, 53, 54, 55, 56, 57, 58, 59, 60, 61, 62, 63, 64, 65, 66, 67, 68, 69, 70, 71, 72, 73, 74, 75, 76, 77, 78, 79, 80, 81, 82, 83, 84, 85, 86, 87, 88, 89, 90, 91, 92, 93, 94, 95, 96, 97, 98, 99, 100, 101, 102, 103, 104, 105, 106, 107, 108, 109, 110, 111, 112, 113, 114, 115, 116, 117, 118, 119, 120, 121, 122, 123, 124, 125, 126, 127, 128, 129, 130, 131, 132, 133, 134, 135, 136, 137, 138, 139, 140, 141, 142, 143, 144, 145, 146, 147, 148, 149, 150, 151, 152, 153, 154, 155, 156, 157, 158, 159, 160, 161, 162, 163, 164, 165, 166, 167, 168, 169, 170, 171, 172, 173, 174, 175, 176, 177, 178, 179, 180, 181, 182, 183, 184, 185, 186, 187, 188, 189, 190, 191, 192, 193, 194, 195, 196, 197, 198, 199, 200, 201, 202, 203, 204, 205, 206, 207, 208, 209, 210, 211, 212, 213, 214, 215, 216, 217, 218, 219, 220, 221, 222, 223, 224, 225, 226, 227, 228, 229, 230, 231, 232, 233, 234, 235, 236, 237, 238, 239, 240, 241, 242, 243, 244, 245, 246, 247, 248, 249, 250, 251, 252, 253, 254, 255, 256, 257, 258, 259, 260, 261, 262, 263, 264, 265, 266, 267, 268, 269, 270, 271, 272, 273, 274, 275, 276, 277, 278, 279, 280, 281, 282, 283, 284, 285, 286, 287, 288, 289, 290, 291, 292, 293, 294, 295, 296, 297, 298, 299, 300, 301, 302, 303, 304, 305, 306, 307, 308, 309, 310, 311, 312, 313, 314, 315, 316, 317, 318, 319, 320, 321, 322, 323, 324, 325, 326, 327, 328, 329, 330, 331, 332, 333, 334, 335, 336, 337, 338, 339, 340, 341, 342, 343, 344, 345, 346, 347, 348, 349, 350, 351, 352, 353, 354, 355, 356, 357, 358, 359, 360, 361, 362, 363, 364, 365, 366, 367, 368, 369, 370, 371, 372, 373, 374, 375, 376, 377, 378, 379, 380, 381, 382, 383, 384, 385, 386, 387, 388, 389, 390, 391, 392, 393, 394, 395, 396, 397, 398, 399, 400, 401, 402, 403, 404, 405, 406, 407, 408, 409, 410, 411, 412, 413, 414, 415, 416, 417, 418, 419, 420, 421, 422, 423, 424, 425, 426, 427, 428, 429, 430, 431, 432, 433, 434, 435, 436, 437, 438, 439, 440, 441, 442, 443, 444, 445, 446, 447, 448, 449, 450, 451, 452, 453, 454, 455, 456, 457, 458, 459, 460, 461, 462, 463, 464, 465, 466, 467, 468, 469, 470, 471, 472, 473, 474, 475, 476, 477, 478, 479, 480, 481, 482, 483, 484, 485, 486, 487, 488, 489, 490, 491, 492, 493],
      "AcquisitionTime": ["160402.162500", "160403.652500", "160405.142500", "160406.632500", "160408.122500", "160409.612500", "160411.102500", "160412.592500", "160414.082500", "160415.572500", "160417.062500", "160418.552500", "160420.042500", "160421.532500", "160423.022500", "160424.512500", "160426.002500", "160427.492500", "160428.982500", "160430.472500", "160431.962500", "160433.452500", "160434.942500", "160436.432500", "160437.922500", "160439.412500", "160440.902500", "160442.392500", "160443.882500", "160445.372500", "160446.862500", "160448.352500", "160449.842500", "160451.332500", "160452.822500", "160454.312500", "160455.802500", "160457.292500", "160458.782500", "160500.272500", "160501.762500", "160503.252500", "160504.742500", "160506.232500", "160507.722500", "160509.212500", "160510.702500", "160512.192500", "160513.682500", "160515.172500", "160516.662500", "160518.152500", "160519.642500", "160521.132500", "160522.622500", "160524.112500", "160525.602500", "160527.092500", "160528.582500", "160530.072500", "160531.562500", "160533.052500", "160534.542500", "160536.032500", "160537.522500", "160539.012500", "160540.502500", "160541.992500", "160543.482500", "160544.972500", "160546.462500", "160547.952500", "160549.442500", "160550.932500", "160552.422500", "160553.912500", "160555.402500", "160556.892500", "160558.382500", "160559.872500", "160601.362500", "160602.852500", "160604.342500", "160605.832500", "160607.322500", "160608.812500", "160610.302500", "160611.792500", "160613.282500", "160614.772500", "160616.262500", "160617.752500", "160619.242500", "160620.732500", "160622.222500", "160623.712500", "160625.202500", "160626.692500", "160628.182500", "160629.672500", "160631.162500", "160632.652500", "160634.142500", "160635.632500", "160637.122500", "160638.612500", "160640.102500", "160641.592500", "160643.082500", "160644.572500", "160646.062500", "160647.552500", "160649.042500", "160650.532500", "160652.022500", "160653.512500", "160655.002500", "160656.492500", "160657.982500", "160659.472500", "160700.962500", "160702.452500", "160703.942500", "160705.432500", "160706.922500", "160708.412500", "160709.902500", "160711.392500", "160712.882500", "160714.372500", "160715.862500", "160717.352500", "160718.842500", "160720.332500", "160721.822500", "160723.312500", "160724.802500", "160726.292500", "160727.782500", "160729.272500", "160730.762500", "160732.252500", "160733.742500", "160735.232500", "160736.722500", "160738.212500", "160739.702500", "160741.192500", "160742.682500", "160744.172500", "160745.662500", "160747.152500", "160748.642500", "160750.132500", "160751.622500", "160753.112500", "160754.602500", "160756.092500", "160757.582500", "160759.072500", "160800.562500", "160802.052500", "160803.542500", "160805.032500", "160806.522500", "160808.012500", "160809.502500", "160810.992500", "160812.482500", "160813.972500", "160815.462500", "160816.952500", "160818.442500", "160819.932500", "160821.422500", "160822.912500", "160824.402500", "160825.892500", "160827.382500", "160828.872500", "160830.362500", "160831.852500", "160833.342500", "160834.832500", "160836.322500", "160837.812500", "160839.302500", "160840.792500", "160842.282500", "160843.772500", "160845.262500", "160846.752500", "160848.242500", "160849.732500", "160851.222500", "160852.712500", "160854.202500", "160855.692500", "160857.182500", "160858.672500", "160900.162500", "160901.652500", "160903.142500", "160904.632500", "160906.122500", "160907.612500", "160909.102500", "160910.592500", "160912.082500", "160913.572500", "160915.062500", "160916.552500", "160918.042500", "160919.532500", "160921.022500", "160922.512500", "160924.002500", "160925.492500", "160926.982500", "160928.472500", "160929.962500", "160931.452500", "160932.942500", "160934.432500", "160935.922500", "160937.412500", "160938.902500", "160940.392500", "160941.882500", "160943.372500", "160944.862500", "160946.352500", "160947.842500", "160949.332500", "160950.822500", "160952.312500", "160953.802500", "160955.292500", "160956.782500", "160958.272500", "160959.762500", "161001.252500", "161002.742500", "161004.232500", "161005.722500", "161007.212500", "161008.702500", "161010.192500", "161011.682500", "161013.172500", "161014.662500", "161016.152500", "161017.642500", "161019.132500", "161020.622500", "161022.112500", "161023.602500", "161025.092500", "161026.582500", "161028.072500", "161029.562500", "161031.052500", "161032.542500", "161034.032500", "161035.522500", "161037.012500", "161038.502500", "161039.992500", "161041.482500", "161042.972500", "161044.462500", "161045.952500", "161047.442500", "161048.932500", "161050.422500", "161051.912500", "161053.402500", "161054.892500", "161056.382500", "161057.872500", "161059.362500", "161100.852500", "161102.342500", "161103.832500", "161105.322500", "161106.812500", "161108.302500", "161109.792500", "161111.282500", "161112.772500", "161114.262500", "161115.752500", "161117.242500", "161118.732500", "161120.222500", "161121.712500", "161123.202500", "161124.692500", "161126.182500", "161127.672500", "161129.162500", "161130.652500", "161132.142500", "161133.632500", "161135.122500", "161136.612500", "161138.102500", "161139.592500", "161141.082500", "161142.572500", "161144.062500", "161145.552500", "161147.042500", "161148.532500", "161150.022500", "161151.512500", "161153.002500", "161154.492500", "161155.982500", "161157.472500", "161158.962500", "161200.452500", "161201.942500", "161203.432500", "161204.922500", "161206.412500", "161207.902500", "161209.392500", "161210.882500", "161212.372500", "161213.862500", "161215.352500", "161216.842500", "161218.332500", "161219.822500", "161221.312500", "161222.802500", "161224.292500", "161225.782500", "161227.272500", "161228.762500", "161230.252500", "161231.742500", "161233.232500", "161234.722500", "161236.212500", "161237.702500", "161239.192500", "161240.682500", "161242.172500", "161243.662500", "161245.152500", "161246.642500", "161248.132500", "161249.622500", "161251.112500", "161252.602500", "161254.092500", "161255.582500", "161257.072500", "161258.562500", "161300.052500", "161301.542500", "161303.032500", "161304.522500", "161306.012500", "161307.502500", "161308.992500", "161310.482500", "161311.972500", "161313.462500", "161314.952500", "161316.442500", "161317.932500", "161319.422500", "161320.912500", "161322.402500", "161323.892500", "161325.382500", "161326.872500", "161328.362500", "161329.852500", "161331.342500", "161332.832500", "161334.322500", "161335.812500", "161337.302500", "161338.792500", "161340.282500", "161341.772500", "161343.262500", "161344.752500", "161346.242500", "161347.732500", "161349.222500", "161350.712500", "161352.202500", "161353.692500", "161355.182500", "161356.672500", "161358.162500", "161359.652500", "161401.142500", "161402.632500", "161404.122500", "161405.612500", "161407.102500", "161408.592500", "161410.082500", "161411.572500", "161413.062500", "161414.552500", "161416.042500", "161417.532500", "161419.022500", "161420.512500", "161422.002500", "161423.492500", "161424.982500", "161426.472500", "161427.962500", "161429.452500", "161430.942500", "161432.432500", "161433.922500", "161435.412500", "161436.902500", "161438.392500", "161439.882500", "161441.372500", "161442.862500", "161444.352500", "161445.842500", "161447.332500", "161448.822500", "161450.312500", "161451.802500", "161453.292500", "161454.782500", "161456.272500", "161457.762500", "161459.252500", "161500.742500", "161502.232500", "161503.722500", "161505.212500", "161506.702500", "161508.192500", "161509.682500", "161511.172500", "161512.662500", "161514.152500", "161515.642500", "161517.132500", "161518.622500", "161520.112500", "161521.602500", "161523.092500", "161524.582500", "161526.072500", "161527.562500", "161529.052500", "161530.542500", "161532.032500", "161533.522500", "161535.012500", "161536.502500", "161537.992500", "161539.482500", "161540.972500", "161542.462500", "161543.952500", "161545.442500", "161546.932500", "161548.422500", "161549.912500", "161551.402500", "161552.892500", "161554.382500", "161555.872500", "161557.362500", "161558.852500", "161600.342500", "161601.832500", "161603.322500", "161604.812500", "161606.302500", "161607.792500", "161609.282500", "161610.772500", "161612.262500", "161613.752500", "161615.242500"],
      "ContentTime": ["160520.085000", "160520.089000", "160520.092000", "160520.095000", "160520.098000", "160520.100000", "160520.103000", "160520.106000", "160520.109000", "160520.112000", "160520.115000", "160520.118000", "160520.121000", "160520.124000", "160520.127000", "160520.130000", "160520.133000", "160520.136000", "160520.139000", "160520.142000", "160520.145000", "160520.148000", "160520.151000", "160520.154000", "160520.156000", "160520.159000", "160540.059000", "160540.062000", "160540.065000", "160540.068000", "160540.071000", "160540.074000", "160540.077000", "160540.082000", "160540.085000", "160540.088000", "160540.091000", "160540.094000", "160540.097000", "160540.100000", "160540.103000", "160540.106000", "160540.108000", "160540.111000", "160540.114000", "160540.117000", "160600.059000", "160600.062000", "160600.065000", "160600.068000", "160600.071000", "160600.074000", "160600.077000", "160600.080000", "160600.083000", "160600.085000", "160600.097000", "160600.100000", "160600.102000", "160600.105000", "160600.108000", "160600.111000", "160600.114000", "160600.117000", "160600.120000", "160600.123000", "160620.059000", "160620.062000", "160620.065000", "160620.068000", "160620.071000", "160620.074000", "160620.077000", "160620.080000", "160620.084000", "160620.087000", "160620.089000", "160620.093000", "160620.096000", "160620.100000", "160620.103000", "160620.106000", "160620.110000", "160620.113000", "160620.116000", "160620.120000", "160700.060000", "160700.063000", "160700.066000", "160700.069000", "160700.072000", "160700.075000", "160700.078000", "160700.081000", "160700.084000", "160700.087000", "160700.089000", "160700.093000", "160700.095000", "160700.098000", "160700.101000", "160700.104000", "160700.107000", "160700.110000", "160700.113000", "160700.116000", "160700.119000", "160700.122000", "160700.125000", "160700.128000", "160700.131000", "160700.134000", "160700.137000", "160700.140000", "160700.143000", "160700.146000", "160700.169000", "160700.172000", "160740.059000", "160740.062000", "160740.065000", "160740.068000", "160740.071000", "160740.074000", "160740.077000", "160740.088000", "160740.091000", "160740.094000", "160740.097000", "160740.100000", "160740.103000", "160740.106000", "160740.109000", "160740.112000", "160740.115000", "160740.118000", "160740.121000", "160740.124000", "160740.127000", "160740.130000", "160740.133000", "160740.135000", "160740.138000", "160740.141000", "160740.144000", "160820.059000", "160820.062000", "160820.065000", "160820.068000", "160820.071000", "160820.074000", "160820.077000", "160820.080000", "160820.083000", "160820.086000", "160820.089000", "160820.092000", "160820.095000", "160820.098000", "160820.101000", "160820.103000", "160820.107000", "160820.109000", "160820.112000", "160820.115000", "160820.118000", "160820.121000", "160820.124000", "160820.127000", "160820.130000", "160820.133000", "160820.144000", "160900.060000", "160900.063000", "160900.066000", "160900.069000", "160900.072000", "160900.075000", "160900.078000", "160900.081000", "160900.084000", "160900.087000", "160900.090000", "160900.093000", "160900.096000", "160900.099000", "160900.102000", "160900.105000", "160900.108000", "160900.110000", "160900.113000", "160900.116000", "160900.119000", "160900.122000", "160900.125000", "160900.128000", "160900.131000", "160900.134000", "160900.137000", "160940.059000", "160940.062000", "160940.065000", "160940.068000", "160940.071000", "160940.074000", "160940.077000", "160940.080000", "160940.083000", "160940.086000", "160940.089000", "160940.092000", "160940.095000", "160940.098000", "160940.101000", "160940.111000", "160940.114000", "160940.117000", "160940.120000", "160940.123000", "160940.126000", "160940.128000", "160940.132000", "160940.135000", "160940.137000", "160940.140000", "160940.143000", "161020.059000", "161020.062000", "161020.065000", "161020.068000", "161020.071000", "161020.074000", "161020.077000", "161020.080000", "161020.083000", "161020.086000", "161020.089000", "161020.092000", "161020.095000", "161020.098000", "161020.101000", "161020.104000", "161020.107000", "161020.110000", "161020.113000", "161020.116000", "161020.119000", "161020.122000", "161020.125000", "161020.128000", "161020.131000", "161020.134000", "161020.137000", "161100.059000", "161100.062000", "161100.065000", "161100.068000", "161100.071000", "161100.074000", "161100.077000", "161100.080000", "161100.083000", "161100.086000", "161100.089000", "161100.092000", "161100.095000", "161100.098000", "161100.101000", "161100.104000", "161100.107000", "161100.110000", "161100.113000", "161100.116000", "161100.119000", "161100.122000", "161100.125000", "161100.128000", "161100.130000", "161100.133000", "161140.059000", "161140.062000", "161140.065000", "161140.068000", "161140.071000", "161140.074000", "161140.085000", "161140.088000", "161140.091000", "161140.094000", "161140.097000", "161140.100000", "161140.103000", "161140.106000", "161140.109000", "161140.112000", "161140.115000", "161140.118000", "161140.121000", "161140.124000", "161140.127000", "161140.130000", "161140.133000", "161140.136000", "161140.139000", "161140.142000", "161140.145000", "161220.059000", "161220.062000", "161220.065000", "161220.068000", "161220.071000", "161220.074000", "161220.077000", "161220.080000", "161220.083000", "161220.086000", "161220.090000", "161220.092000", "161220.095000", "161220.099000", "161220.101000", "161220.104000", "161220.107000", "161220.110000", "161220.113000", "161220.116000", "161220.119000", "161220.122000", "161220.125000", "161220.128000", "161220.131000", "161220.134000", "161220.137000", "161300.059000", "161300.062000", "161300.065000", "161300.068000", "161300.071000", "161300.074000", "161300.077000", "161300.080000", "161300.083000", "161300.086000", "161300.089000", "161300.092000", "161300.095000", "161300.098000", "161300.101000", "161300.104000", "161300.107000", "161300.110000", "161300.113000", "161300.116000", "161300.119000", "161300.122000", "161300.125000", "161300.128000", "161300.131000", "161300.134000", "161300.136000", "161340.060000", "161340.063000", "161340.066000", "161340.069000", "161340.072000", "161340.075000", "161340.078000", "161340.081000", "161340.084000", "161340.087000", "161340.090000", "161340.093000", "161340.096000", "161340.099000", "161340.102000", "161340.105000", "161340.108000", "161340.111000", "161340.114000", "161340.117000", "161340.120000", "161340.123000", "161340.125000", "161340.128000", "161340.131000", "161340.134000", "161340.137000", "161420.059000", "161420.062000", "161420.065000", "161420.068000", "161420.071000", "161420.074000", "161420.077000", "161420.080000", "161420.083000", "161420.086000", "161420.089000", "161420.092000", "161420.095000", "161420.098000", "161420.101000", "161420.104000", "161420.107000", "161420.110000", "161420.113000", "161420.116000", "161420.119000", "161420.122000", "161420.125000", "161420.128000", "161420.131000", "161420.134000", "161420.137000", "161500.059000", "161500.062000", "161500.065000", "161500.068000", "161500.071000", "161500.074000", "161500.077000", "161500.080000", "161500.083000", "161500.086000", "161500.089000", "161500.092000", "161500.099000", "161500.102000", "161500.105000", "161500.108000", "161500.111000", "161500.114000", "161500.117000", "161500.120000", "161500.123000", "161500.126000", "161500.128000", "161500.131000", "161500.134000", "161500.137000", "161540.059000", "161540.067000", "161540.070000", "161540.073000", "161540.076000", "161540.079000", "161540.081000", "161540.084000", "161540.087000", "161540.090000", "161540.093000", "161540.096000", "161540.099000", "161540.102000", "161540.105000", "161540.108000", "161540.111000", "161540.114000", "161540.117000", "161540.120000", "161540.122000", "161540.125000", "161540.128000", "161540.131000", "161540.134000", "161540.137000", "161540.140000", "161617.691000", "161617.694000", "161617.697000", "161617.700000", "161617.703000", "161617.706000", "161617.709000", "161617.712000", "161617.715000", "161617.718000", "161617.721000", "161617.724000", "161617.727000", "161617.730000", "161617.734000", "161617.737000", "161617.744000", "161617.748000", "161617.750000", "161617.753000", "161617.756000", "161617.759000", "161617.762000", "161617.765000", "161617.768000", "161617.771000"],
