{
  "AcquisitionMatrixPE": 104,
  "AcquisitionNumber": 1,
  "AcquisitionTime": "15:27:8.155000",
  "BandwidthPerPixelPhaseEncode": 17.17,
  "BaseResolution": 104,
  "BodyPartExamined": "BRAIN",
  "CoilString": "HC1-7;NC1_2",
  "ConsistencyInfo": "N4_VE11C_LATEST_20160120",
  "ConversionSoftware": "dcm2niix",
  "ConversionSoftwareVersion": "v1.0.20190902",
  "DerivedVendorReportedEchoSpacing": 0.000560011,
  "DeviceSerialNumber": "167006",
  "DwellTime": 2.1e-06,
  "EchoTime": 0.037,
  "EchoTrainLength": 104,
  "EffectiveEchoSpacing": 0.000560011,
  "FlipAngle": 52,
  "ImageComments": "Unaliased_MB4_PE3_LB",
  "ImageOrientationPatientDICOM": [0.999692, -0.0229474, -0.00948101, 0.0181478, 0.935922, -0.351739],
  "ImageType": [
    "ORIGINAL",
    "PRIMARY",
    "M",
    "MB",
    "ND",
    "MOSAIC"
],
  "ImagingFrequency": 123.259,
  "InPlanePhaseEncodingDirectionDICOM": "COL",
  "InstitutionAddress": "Chemin_Queen-Mary_4565_Montreal_District_CA_H3W_1W5",
  "InstitutionName": "IUGM",
  "InstitutionalDepartmentName": "Department",
  "MRAcquisitionType": "2D",
  "MagneticFieldStrength": 3,
  "Manufacturer": "Siemens",
  "ManufacturersModelName": "Prisma_fit",
  "Modality": "MR",
  "MultibandAccelerationFactor": 4,
  "PartialFourier": 1,
  "PatientPosition": "HFS",
  "PercentPhaseFOV": 100,
  "PhaseEncodingDirection": "j",
  "PhaseEncodingSteps": 104,
  "PhaseResolution": 1,
  "PixelBandwidth": 2290,
  "ProcedureStepDescription": "video_friends",
  "ProtocolName": "func_task-friends-s05e06a",
  "PulseSequenceDetails": "%CustomerSeq%_cmrr_mbep2d_bold",
  "ReceiveCoilActiveElements": "HC1-7;NC1,2",
  "ReceiveCoilName": "HeadNeck_64",
  "ReconMatrixPE": 104,
  "RepetitionTime": 1.49,
  "SAR": 0.0293656,
  "ScanOptions": "FS",
  "ScanningSequence": "EP",
  "SequenceName": "epfid2d1_104",
  "SequenceVariant": "SK_SS",
  "SeriesDescription": "func_task-friends-s05e06a",
  "SeriesNumber": 9,
  "ShimSetting": [636, -7245, -8887, 661, 57, -249, -72, -16],
  "SliceThickness": 2,
  "SliceTiming": [0, 0.7825, 0.0975, 0.88, 0.195, 0.98, 0.2925, 1.0775, 0.39, 1.175, 0.49, 1.2725, 0.5875, 1.37, 0.685, 0, 0.7825, 0.0975, 0.88, 0.195, 0.98, 0.2925, 1.0775, 0.39, 1.175, 0.49, 1.2725, 0.5875, 1.37, 0.685, 0, 0.7825, 0.0975, 0.88, 0.195, 0.98, 0.2925, 1.0775, 0.39, 1.175, 0.49, 1.2725, 0.5875, 1.37, 0.685, 0, 0.7825, 0.0975, 0.88, 0.195, 0.98, 0.2925, 1.0775, 0.39, 1.175, 0.49, 1.2725, 0.5875, 1.37, 0.685],
  "SoftwareVersions": "syngo_MR_E11",
  "SpacingBetweenSlices": 2,
  "StationName": "MRC35049",
  "TaskName": "s05e06a",
  "TotalReadoutTime": 0.0576811,
  "TxRefAmp": 221.097,
  "WipMemBlock": "f1184619-3227-4314-8938-cfaf13cb684c||Sequence: R016 ve11c/master r/e634e98; Dec 19 2017 11:00:25 by eja",
  "dcmmeta_affine": [
    [-1.9993834495544434, 0.03629552572965622, -0.03388996422290802, 101.1307144165039],
    [0.045894842594861984, 1.87184476852417, -0.7029160857200623, -74.91178131103516],
    [-0.018962020054459572, 0.7034770846366882, 1.872100591659546, -83.67430877685547],
    [0.0, 0.0, 0.0, 1.0]
],
  "dcmmeta_reorient_transform": [
    [0.0, -1.0, 0.0, 103.0],
    [1.0, 0.0, 0.0, 0.0],
    [0.0, 0.0, 1.0, 0.0],
    [0.0, 0.0, 0.0, 1.0]
],
  "dcmmeta_shape": [104, 104, 60, 459],
  "dcmmeta_slice_dim": 2,
  "dcmmeta_version": 0.6,
  "global": {
    "const": {
      "AcquisitionMatrix": [104, 0, 0, 104],
      "AngioFlag": "N",
      "BitsAllocated": 16,
      "BitsStored": 16,
      "BodyPartExamined": "BRAIN",
      "Columns": 832,
      "EchoNumbers": 1,
      "EchoTime": 37.0,
      "EchoTrainLength": 104,
      "FlipAngle": 52.0,
      "HighBit": 15,
      "ImageOrientationPatient": [0.99969171564809, -0.0229474206944, -0.0094810098644, 0.01814776225761, 0.935922358844, -0.3517385349104],
      "ImagePositionPatient": [-845.8562927302, -782.53397796249, 251.7516603066],
      "ImageType": [
        "ORIGINAL",
        "PRIMARY",
        "M",
        "MB",
        "ND",
        "MOSAIC"
],
      "ImagedNucleus": "1H",
      "ImagingFrequency": 123.25898,
      "InPlanePhaseEncodingDirection": "COL",
      "MRAcquisitionType": "2D",
      "MagneticFieldStrength": 3.0,
      "Manufacturer": "SIEMENS",
      "ManufacturerModelName": "Prisma_fit",
      "Modality": "MR",
      "NumberOfAverages": 1.0,
      "NumberOfPhaseEncodingSteps": 104,
      "PercentPhaseFieldOfView": 100.0,
      "PercentSampling": 100.0,
      "PerformedProcedureStepStartTime": "150039.986000",
      "PhotometricInterpretation": "MONOCHROME2",
      "PixelBandwidth": 2290.0,
      "PixelRepresentation": 0,
      "PixelSpacing": [2.0, 2.0],
      "ProtocolName": "func_task-friends-s05e06a",
      "RepetitionTime": 1490.0,
      "Rows": 832,
      "SAR": 0.02936562570776,
      "SamplesPerPixel": 1,
      "ScanOptions": "FS",
      "ScanningSequence": "EP",
      "SequenceName": "epfid2d1_104",
      "SequenceVariant": [
        "SK",
        "SS"
],
      "SeriesDescription": "func_task-friends-s05e06a",
      "SeriesNumber": 9,
      "SeriesTime": "152840.101000",
      "SliceLocation": -53.708667044919,
      "SliceThickness": 2.0,
      "SmallestImagePixelValue": 0,
      "SoftwareVersions": "syngo MR E11",
      "SpacingBetweenSlices": 2.0000000185418,
      "SpecificCharacterSet": "ISO_IR 100",
      "StudyID": "1",
      "StudyTime": "150039.884000",
      "TransmitCoilName": "Body",
      "VariableFlipAngleFlag": "N",
      "WindowCenterWidthExplanation": "Algo1",
      "dBdt": 0.0},
    "slices": {}
  },
  "time": {
    "samples": {
      "AcquisitionNumber": [1, 2, 3, 4, 5, 6, 7, 8, 9, 10, 11, 12, 13, 14, 15, 16, 17, 18, 19, 20, 21, 22, 23, 24, 25, 26, 27, 28, 29, 30, 31, 32, 33, 34, 35, 36, 37, 38, 39, 40, 41, 42, 43, 44, 45, 46, 47, 48, 49, 50, 51, 52, 53, 54, 55, 56, 57, 58, 59, 60, 61, 62, 63, 64, 65, 66, 67, 68, 69, 70, 71, 72, 73, 74, 75, 76, 77, 78, 79, 80, 81, 82, 83, 84, 85, 86, 87, 88, 89, 90, 91, 92, 93, 94, 95, 96, 97, 98, 99, 100, 101, 102, 103, 104, 105, 106, 107, 108, 109, 110, 111, 112, 113, 114, 115, 116, 117, 118, 119, 120, 121, 122, 123, 124, 125, 126, 127, 128, 129, 130, 131, 132, 133, 134, 135, 136, 137, 138, 139, 140, 141, 142, 143, 144, 145, 146, 147, 148, 149, 150, 151, 152, 153, 154, 155, 156, 157, 158, 159, 160, 161, 162, 163, 164, 165, 166, 167, 168, 169, 170, 171, 172, 173, 174, 175, 176, 177, 178, 179, 180, 181, 182, 183, 184, 185, 186, 187, 188, 189, 190, 191, 192, 193, 194, 195, 196, 197, 198, 199, 200, 201, 202, 203, 204, 205, 206, 207, 208, 209, 210, 211, 212, 213, 214, 215, 216, 217, 218, 219, 220, 221, 222, 223, 224, 225, 226, 227, 228, 229, 230, 231, 232, 233, 234, 235, 236, 237, 238, 239, 240, 241, 242, 243, 244, 245, 246, 247, 248, 249, 250, 251, 252, 253, 254, 255, 256, 257, 258, 259, 260, 261, 262, 263, 264, 265, 266, 267, 268, 269, 270, 271, 272, 273, 274, 275, 276, 277, 278, 279, 280, 281, 282, 283, 284, 285, 286, 287, 288, 289, 290, 291, 292, 293, 294, 295, 296, 297, 298, 299, 300, 301, 302, 303, 304, 305, 306, 307, 308, 309, 310, 311, 312, 313, 314, 315, 316, 317, 318, 319, 320, 321, 322, 323, 324, 325, 326, 327, 328, 329, 330, 331, 332, 333, 334, 335, 336, 337, 338, 339, 340, 341, 342, 343, 344, 345, 346, 347, 348, 349, 350, 351, 352, 353, 354, 355, 356, 357, 358, 359, 360, 361, 362, 363, 364, 365, 366, 367, 368, 369, 370, 371, 372, 373, 374, 375, 376, 377, 378, 379, 380, 381, 382, 383, 384, 385, 386, 387, 388, 389, 390, 391, 392, 393, 394, 395, 396, 397, 398, 399, 400, 401, 402, 403, 404, 405, 406, 407, 408, 409, 410, 411, 412, 413, 414, 415, 416, 417, 418, 419, 420, 421, 422, 423, 424, 425, 426, 427, 428, 429, 430, 431, 432, 433, 434, 435, 436, 437, 438, 439, 440, 441, 442, 443, 444, 445, 446, 447, 448, 449, 450, 451, 452, 453, 454, 455, 456, 457, 458, 459],
      "AcquisitionTime": ["152708.155000", "152709.645000", "152711.135000", "152712.625000", "152714.115000", "152715.605000", "152717.095000", "152718.585000", "152720.075000", "152721.565000", "152723.055000", "152724.545000", "152726.035000", "152727.525000", "152729.015000", "152730.505000", "152731.995000", "152733.485000", "152734.975000", "152736.465000", "152737.955000", "152739.445000", "152740.935000", "152742.425000", "152743.915000", "152745.405000", "152746.895000", "152748.385000", "152749.875000", "152751.365000", "152752.855000", "152754.345000", "152755.835000", "152757.325000", "152758.815000", "152800.305000", "152801.795000", "152803.285000", "152804.775000", "152806.265000", "152807.755000", "152809.245000", "152810.735000", "152812.225000", "152813.715000", "152815.205000", "152816.695000", "152818.185000", "152819.675000", "152821.165000", "152822.655000", "152824.145000", "152825.635000", "152827.125000", "152828.615000", "152830.105000", "152831.595000", "152833.085000", "152834.575000", "152836.065000", "152837.555000", "152839.045000", "152840.535000", "152842.025000", "152843.515000", "152845.005000", "152846.495000", "152847.985000", "152849.475000", "152850.965000", "152852.455000", "152853.945000", "152855.435000", "152856.925000", "152858.415000", "152859.905000", "152901.395000", "152902.885000", "152904.375000", "152905.865000", "152907.355000", "152908.845000", "152910.335000", "152911.825000", "152913.315000", "152914.805000", "152916.295000", "152917.785000", "152919.275000", "152920.765000", "152922.255000", "152923.745000", "152925.235000", "152926.725000", "152928.215000", "152929.705000", "152931.195000", "152932.685000", "152934.175000", "152935.665000", "152937.155000", "152938.645000", "152940.135000", "152941.625000", "152943.115000", "152944.605000", "152946.095000", "152947.585000", "152949.075000", "152950.565000", "152952.055000", "152953.545000", "152955.035000", "152956.525000", "152958.015000", "152959.505000", "153000.995000", "153002.485000", "153003.975000", "153005.465000", "153006.955000", "153008.445000", "153009.935000", "153011.425000", "153012.915000", "153014.405000", "153015.895000", "153017.385000", "153018.875000", "153020.365000", "153021.855000", "153023.345000", "153024.835000", "153026.325000", "153027.815000", "153029.305000", "153030.795000", "153032.285000", "153033.775000", "153035.265000", "153036.755000", "153038.245000", "153039.735000", "153041.225000", "153042.715000", "153044.205000", "153045.695000", "153047.185000", "153048.675000", "153050.165000", "153051.655000", "153053.145000", "153054.635000", "153056.125000", "153057.615000", "153059.105000", "153100.595000", "153102.085000", "153103.575000", "153105.065000", "153106.555000", "153108.045000", "153109.535000", "153111.025000", "153112.515000", "153114.005000", "153115.495000", "153116.985000", "153118.475000", "153119.965000", "153121.455000", "153122.945000", "153124.435000", "153125.925000", "153127.415000", "153128.905000", "153130.395000", "153131.885000", "153133.375000", "153134.865000", "153136.355000", "153137.845000", "153139.335000", "153140.825000", "153142.315000", "153143.805000", "153145.295000", "153146.785000", "153148.275000", "153149.765000", "153151.255000", "153152.745000", "153154.235000", "153155.725000", "153157.215000", "153158.705000", "153200.195000", "153201.685000", "153203.175000", "153204.665000", "153206.155000", "153207.645000", "153209.135000", "153210.625000", "153212.115000", "153213.605000", "153215.095000", "153216.585000", "153218.075000", "153219.565000", "153221.055000", "153222.545000", "153224.035000", "153225.525000", "153227.015000", "153228.505000", "153229.995000", "153231.485000", "153232.975000", "153234.465000", "153235.955000", "153237.445000", "153238.935000", "153240.425000", "153241.915000", "153243.405000", "153244.895000", "153246.385000", "153247.875000", "153249.365000", "153250.855000", "153252.345000", "153253.835000", "153255.325000", "153256.815000", "153258.305000", "153259.795000", "153301.285000", "153302.775000", "153304.265000", "153305.755000", "153307.245000", "153308.735000", "153310.225000", "153311.715000", "153313.205000", "153314.695000", "153316.185000", "153317.675000", "153319.165000", "153320.655000", "153322.145000", "153323.635000", "153325.125000", "153326.615000", "153328.105000", "153329.595000", "153331.085000", "153332.575000", "153334.065000", "153335.555000", "153337.045000", "153338.535000", "153340.025000", "153341.515000", "153343.005000", "153344.495000", "153345.985000", "153347.475000", "153348.965000", "153350.455000", "153351.945000", "153353.435000", "153354.925000", "153356.415000", "153357.905000", "153359.395000", "153400.885000", "153402.375000", "153403.865000", "153405.355000", "153406.845000", "153408.335000", "153409.825000", "153411.315000", "153412.805000", "153414.295000", "153415.785000", "153417.275000", "153418.765000", "153420.255000", "153421.745000", "153423.235000", "153424.725000", "153426.215000", "153427.705000", "153429.195000", "153430.685000", "153432.175000", "153433.665000", "153435.155000", "153436.645000", "153438.135000", "153439.625000", "153441.115000", "153442.605000", "153444.095000", "153445.585000", "153447.075000", "153448.565000", "153450.055000", "153451.545000", "153453.035000", "153454.525000", "153456.015000", "153457.505000", "153458.995000", "153500.485000", "153501.975000", "153503.465000", "153504.955000", "153506.445000", "153507.935000", "153509.425000", "153510.915000", "153512.405000", "153513.895000", "153515.385000", "153516.875000", "153518.365000", "153519.855000", "153521.345000", "153522.835000", "153524.325000", "153525.815000", "153527.305000", "153528.795000", "153530.285000", "153531.775000", "153533.265000", "153534.755000", "153536.245000", "153537.735000", "153539.225000", "153540.715000", "153542.205000", "153543.695000", "153545.185000", "153546.675000", "153548.165000", "153549.655000", "153551.145000", "153552.635000", "153554.125000", "153555.615000", "153557.105000", "153558.595000", "153600.085000", "153601.575000", "153603.065000", "153604.555000", "153606.045000", "153607.535000", "153609.025000", "153610.515000", "153612.005000", "153613.495000", "153614.985000", "153616.475000", "153617.965000", "153619.455000", "153620.945000", "153622.435000", "153623.925000", "153625.415000", "153626.905000", "153628.395000", "153629.885000", "153631.375000", "153632.865000", "153634.355000", "153635.845000", "153637.335000", "153638.825000", "153640.315000", "153641.805000", "153643.295000", "153644.785000", "153646.275000", "153647.765000", "153649.255000", "153650.745000", "153652.235000", "153653.725000", "153655.215000", "153656.705000", "153658.195000", "153659.685000", "153701.175000", "153702.665000", "153704.155000", "153705.645000", "153707.135000", "153708.625000", "153710.115000", "153711.605000", "153713.095000", "153714.585000", "153716.075000", "153717.565000", "153719.055000", "153720.545000", "153722.035000", "153723.525000", "153725.015000", "153726.505000", "153727.995000", "153729.485000", "153730.975000", "153732.465000", "153733.955000", "153735.445000", "153736.935000", "153738.425000", "153739.915000", "153741.405000", "153742.895000", "153744.385000", "153745.875000", "153747.365000", "153748.855000", "153750.345000", "153751.835000", "153753.325000", "153754.815000", "153756.305000", "153757.795000", "153759.285000", "153800.775000", "153802.265000", "153803.755000", "153805.245000", "153806.735000", "153808.225000", "153809.715000", "153811.205000", "153812.695000", "153814.185000", "153815.675000", "153817.165000", "153818.655000", "153820.145000", "153821.635000", "153823.125000", "153824.615000", "153826.105000", "153827.595000", "153829.085000", "153830.575000"],
      "ContentTime": ["152840.104000", "152840.107000", "152840.110000", "152840.113000", "152840.116000", "152840.119000", "152840.122000", "152840.125000", "152840.128000", "152840.132000", "152840.135000", "152840.138000", "152840.142000", "152840.146000", "152840.149000", "152840.153000", "152840.157000", "152840.160000", "152840.163000", "152840.165000", "152840.168000", "152840.171000", "152840.174000", "152840.177000", "152840.194000", "152840.198000", "152840.202000", "152840.205000", "152840.208000", "152840.211000", "152840.214000", "152840.217000", "152840.220000", "152840.223000", "152840.226000", "152840.229000", "152840.232000", "152840.236000", "152900.059000", "152900.062000", "152900.076000", "152900.079000", "152900.082000", "152900.085000", "152900.088000", "152900.091000", "152900.094000", "152900.097000", "152900.100000", "152900.103000", "152900.106000", "152900.109000", "152900.112000", "152900.115000", "152900.117000", "152900.121000", "152900.124000", "152900.127000", "152920.059000", "152920.062000", "152920.065000", "152920.068000", "152920.071000", "152920.074000", "152920.087000", "152920.090000", "152920.093000", "152920.096000", "152920.099000", "152920.102000", "152920.105000", "152920.108000", "152920.111000", "152920.114000", "152920.117000", "152920.120000", "152920.123000", "152920.126000", "152940.060000", "152940.063000", "152940.066000", "152940.070000", "152940.073000", "152940.076000", "152940.079000", "152940.082000", "152940.085000", "152940.088000", "152940.091000", "152940.094000", "152940.097000", "152940.100000", "152940.103000", "152940.106000", "152940.109000", "152940.111000", "152940.114000", "152940.117000", "152940.120000", "153020.059000", "153020.062000", "153020.065000", "153020.068000", "153020.071000", "153020.074000", "153020.077000", "153020.080000", "153020.082000", "153020.085000", "153020.088000", "153020.091000", "153020.094000", "153020.097000", "153020.100000", "153020.103000", "153020.106000", "153020.109000", "153020.112000", "153020.115000", "153020.118000", "153020.121000", "153020.124000", "153020.127000", "153020.130000", "153020.133000", "153020.136000", "153020.139000", "153020.142000", "153100.059000", "153100.062000", "153100.065000", "153100.068000", "153100.071000", "153100.074000", "153100.077000", "153100.080000", "153100.083000", "153100.086000", "153100.089000", "153100.092000", "153100.095000", "153100.098000", "153100.101000", "153100.104000", "153100.107000", "153100.110000", "153100.112000", "153100.115000", "153100.118000", "153100.121000", "153100.124000", "153100.127000", "153100.130000", "153100.133000", "153100.136000", "153140.059000", "153140.062000", "153140.065000", "153140.068000", "153140.071000", "153140.074000", "153140.077000", "153140.080000", "153140.083000", "153140.086000", "153140.089000", "153140.092000", "153140.095000", "153140.098000", "153140.101000", "153140.104000", "153140.107000", "153140.110000", "153140.113000", "153140.116000", "153140.119000", "153140.122000", "153140.125000", "153140.128000", "153140.131000", "153140.134000", "153140.137000", "153220.059000", "153220.063000", "153220.066000", "153220.069000", "153220.072000", "153220.075000", "153220.078000", "153220.081000", "153220.084000", "153220.087000", "153220.090000", "153220.093000", "153220.096000", "153220.099000", "153220.102000", "153220.105000", "153220.108000", "153220.111000", "153220.114000", "153220.117000", "153220.120000", "153220.123000", "153220.126000", "153220.129000", "153220.132000", "153220.135000", "153300.059000", "153300.062000", "153300.065000", "153300.068000", "153300.071000", "153300.074000", "153300.077000", "153300.080000", "153300.083000", "153300.086000", "153300.089000", "153300.092000", "153300.095000", "153300.098000", "153300.101000", "153300.104000", "153300.107000", "153300.110000", "153300.113000", "153300.115000", "153300.119000", "153300.122000", "153300.124000", "153300.127000", "153300.130000", "153300.133000", "153300.136000", "153340.059000", "153340.062000", "153340.065000", "153340.068000", "153340.071000", "153340.074000", "153340.077000", "153340.080000", "153340.083000", "153340.086000", "153340.089000", "153340.092000", "153340.095000", "153340.098000", "153340.101000", "153340.104000", "153340.107000", "153340.110000", "153340.113000", "153340.116000", "153340.119000", "153340.122000", "153340.125000", "153340.134000", "153340.137000", "153340.146000", "153340.149000", "153420.060000", "153420.063000", "153420.066000", "153420.069000", "153420.072000", "153420.075000", "153420.079000", "153420.082000", "153420.084000", "153420.087000", "153420.091000", "153420.094000", "153420.097000", "153420.099000", "153420.103000", "153420.105000", "153420.108000", "153420.111000", "153420.114000", "153420.117000", "153420.120000", "153420.123000", "153420.126000", "153420.129000", "153420.132000", "153420.135000", "153420.138000", "153500.059000", "153500.062000", "153500.065000", "153500.068000", "153500.071000", "153500.074000", "153500.077000", "153500.080000", "153500.083000", "153500.086000", "153500.089000", "153500.092000", "153500.095000", "153500.098000", "153500.101000", "153500.104000", "153500.107000", "153500.110000", "153500.113000", "153500.116000", "153500.119000", "153500.122000", "153500.125000", "153500.128000", "153500.131000", "153500.134000", "153500.137000", "153540.059000", "153540.062000", "153540.065000", "153540.068000", "153540.071000", "153540.074000", "153540.077000", "153540.080000", "153540.083000", "153540.086000", "153540.089000", "153540.092000", "153540.095000", "153540.098000", "153540.101000", "153540.104000", "153540.107000", "153540.110000", "153540.113000", "153540.115000", "153540.119000", "153540.121000", "153540.124000", "153540.127000", "153540.130000", "153540.133000", "153540.136000", "153620.059000", "153620.062000", "153620.065000", "153620.068000", "153620.071000", "153620.074000", "153620.077000", "153620.080000", "153620.083000", "153620.086000", "153620.089000", "153620.092000", "153620.095000", "153620.098000", "153620.101000", "153620.104000", "153620.108000", "153620.110000", "153620.113000", "153620.117000", "153620.119000", "153620.122000", "153620.125000", "153620.129000", "153620.131000", "153620.134000", "153620.137000", "153700.059000", "153700.062000", "153700.065000", "153700.068000", "153700.071000", "153700.074000", "153700.077000", "153700.080000", "153700.083000", "153700.086000", "153700.089000", "153700.092000", "153700.095000", "153700.098000", "153700.101000", "153700.104000", "153700.107000", "153700.110000", "153700.113000", "153700.115000", "153700.119000", "153700.121000", "153700.124000", "153700.127000", "153700.130000", "153700.133000", "153740.059000", "153740.062000", "153740.065000", "153740.068000", "153740.071000", "153740.074000", "153740.077000", "153740.080000", "153740.083000", "153740.086000", "153740.089000", "153740.092000", "153740.095000", "153740.098000", "153740.101000", "153740.104000", "153740.107000", "153740.110000", "153740.113000", "153740.115000", "153740.119000", "153740.122000", "153740.125000", "153740.127000", "153740.130000", "153740.133000", "153740.136000", "153820.059000", "153820.062000", "153820.065000", "153820.068000", "153820.071000", "153820.075000", "153820.078000", "153820.081000", "153820.084000", "153820.087000", "153820.090000", "153820.093000", "153820.096000", "153820.099000", "153820.102000", "153820.105000", "153820.108000", "153820.111000", "153820.113000", "153820.117000", "153820.119000", "153820.136000", "153820.139000", "153820.142000", "153820.145000", "153820.148000", "153820.151000", "153832.632000", "153832.635000", "153832.639000", "153832.642000", "153832.645000", "153832.648000", "153832.651000", "153832.654000", "153832.657000"],
