{
  "AcquisitionMatrixPE": 104,
  "AcquisitionNumber": 1,
  "AcquisitionTime": "16:18:10.032500",
  "BandwidthPerPixelPhaseEncode": 17.17,
  "BaseResolution": 104,
  "BodyPartExamined": "BRAIN",
  "CoilString": "HC1-7;NC1_2",
  "ConsistencyInfo": "N4_VE11C_LATEST_20160120",
  "ConversionSoftware": "dcm2niix",
  "ConversionSoftwareVersion": "v1.0.20190902",
  "DerivedVendorReportedEchoSpacing": 0.000560011,
  "DeviceSerialNumber": "167006",
  "DwellTime": 2.1e-06,
  "EchoTime": 0.037,
  "EchoTrainLength": 104,
  "EffectiveEchoSpacing": 0.000560011,
  "FlipAngle": 52,
  "ImageComments": "Unaliased_MB4_PE3_LB",
  "ImageOrientationPatientDICOM": [0.999692, -0.0229474, -0.00948101, 0.0181478, 0.935922, -0.351739],
  "ImageType": [
    "ORIGINAL",
    "PRIMARY",
    "M",
    "MB",
    "ND",
    "MOSAIC"
],
  "ImagingFrequency": 123.259,
  "InPlanePhaseEncodingDirectionDICOM": "COL",
  "InstitutionAddress": "Chemin_Queen-Mary_4565_Montreal_District_CA_H3W_1W5",
  "InstitutionName": "IUGM",
  "InstitutionalDepartmentName": "Department",
  "MRAcquisitionType": "2D",
  "MagneticFieldStrength": 3,
  "Manufacturer": "Siemens",
  "ManufacturersModelName": "Prisma_fit",
  "Modality": "MR",
  "MultibandAccelerationFactor": 4,
  "PartialFourier": 1,
  "PatientPosition": "HFS",
  "PercentPhaseFOV": 100,
  "PhaseEncodingDirection": "j",
  "PhaseEncodingSteps": 104,
  "PhaseResolution": 1,
  "PixelBandwidth": 2290,
  "ProcedureStepDescription": "video_friends",
  "ProtocolName": "func_task-friends-s05e08a",
  "PulseSequenceDetails": "%CustomerSeq%_cmrr_mbep2d_bold",
  "ReceiveCoilActiveElements": "HC1-7;NC1,2",
  "ReceiveCoilName": "HeadNeck_64",
  "ReconMatrixPE": 104,
  "RepetitionTime": 1.49,
  "SAR": 0.0293619,
  "ScanOptions": "FS",
  "ScanningSequence": "EP",
  "SequenceName": "epfid2d1_104",
  "SequenceVariant": "SK_SS",
  "SeriesDescription": "func_task-friends-s05e08a",
  "SeriesNumber": 17,
  "ShimSetting": [636, -7245, -8887, 661, 57, -249, -72, -16],
  "SliceThickness": 2,
  "SliceTiming": [0, 0.785, 0.0975, 0.8825, 0.1975, 0.98, 0.295, 1.0775, 0.3925, 1.1775, 0.49, 1.275, 0.5875, 1.3725, 0.6875, 0, 0.785, 0.0975, 0.8825, 0.1975, 0.98, 0.295, 1.0775, 0.3925, 1.1775, 0.49, 1.275, 0.5875, 1.3725, 0.6875, 0, 0.785, 0.0975, 0.8825, 0.1975, 0.98, 0.295, 1.0775, 0.3925, 1.1775, 0.49, 1.275, 0.5875, 1.3725, 0.6875, 0, 0.785, 0.0975, 0.8825, 0.1975, 0.98, 0.295, 1.0775, 0.3925, 1.1775, 0.49, 1.275, 0.5875, 1.3725, 0.6875],
  "SoftwareVersions": "syngo_MR_E11",
  "SpacingBetweenSlices": 2,
  "StationName": "MRC35049",
  "TaskName": "s05e08a",
  "TotalReadoutTime": 0.0576811,
  "TxRefAmp": 221.097,
  "WipMemBlock": "cae64b08-117f-496b-bb8d-5520028b7a1c||Sequence: R016 ve11c/master r/e634e98; Dec 19 2017 11:00:25 by eja",
  "dcmmeta_affine": [
    [-1.9993834495544434, 0.03629552572965622, -0.03388996422290802, 101.1307144165039],
    [0.045894842594861984, 1.87184476852417, -0.7029160857200623, -74.91178131103516],
    [-0.018962020054459572, 0.7034770846366882, 1.872100591659546, -83.67430877685547],
    [0.0, 0.0, 0.0, 1.0]
],
  "dcmmeta_reorient_transform": [
    [0.0, -1.0, 0.0, 103.0],
    [1.0, 0.0, 0.0, 0.0],
    [0.0, 0.0, 1.0, 0.0],
    [0.0, 0.0, 0.0, 1.0]
],
  "dcmmeta_shape": [104, 104, 60, 446],
  "dcmmeta_slice_dim": 2,
  "dcmmeta_version": 0.6,
  "global": {
    "const": {
      "AcquisitionMatrix": [104, 0, 0, 104],
      "AngioFlag": "N",
      "BitsAllocated": 16,
      "BitsStored": 16,
      "BodyPartExamined": "BRAIN",
      "Columns": 832,
      "EchoNumbers": 1,
      "EchoTime": 37.0,
      "EchoTrainLength": 104,
      "FlipAngle": 52.0,
      "HighBit": 15,
      "ImageOrientationPatient": [0.99969171564809, -0.0229474206944, -0.0094810098644, 0.01814776225761, 0.935922358844, -0.3517385349104],
      "ImagePositionPatient": [-845.8562927302, -782.53397796249, 251.7516603066],
      "ImageType": [
        "ORIGINAL",
        "PRIMARY",
        "M",
        "MB",
        "ND",
        "MOSAIC"
],
      "ImagedNucleus": "1H",
      "ImagingFrequency": 123.259008,
      "InPlanePhaseEncodingDirection": "COL",
      "MRAcquisitionType": "2D",
      "MagneticFieldStrength": 3.0,
      "Manufacturer": "SIEMENS",
      "ManufacturerModelName": "Prisma_fit",
      "Modality": "MR",
      "NumberOfAverages": 1.0,
      "NumberOfPhaseEncodingSteps": 104,
      "PercentPhaseFieldOfView": 100.0,
      "PercentSampling": 100.0,
      "PerformedProcedureStepStartTime": "150039.986000",
      "PhotometricInterpretation": "MONOCHROME2",
      "PixelBandwidth": 2290.0,
      "PixelRepresentation": 0,
      "PixelSpacing": [2.0, 2.0],
      "ProtocolName": "func_task-friends-s05e08a",
      "RepetitionTime": 1490.0,
      "Rows": 832,
      "SAR": 0.02936194497769,
      "SamplesPerPixel": 1,
      "ScanOptions": "FS",
      "ScanningSequence": "EP",
      "SequenceName": "epfid2d1_104",
      "SequenceVariant": [
        "SK",
        "SS"
],
      "SeriesDescription": "func_task-friends-s05e08a",
      "SeriesNumber": 17,
      "SeriesTime": "161931.505000",
      "SliceLocation": -53.708667044919,
      "SliceThickness": 2.0,
      "SmallestImagePixelValue": 0,
      "SoftwareVersions": "syngo MR E11",
      "SpacingBetweenSlices": 2.0000000185418,
      "SpecificCharacterSet": "ISO_IR 100",
      "StudyID": "1",
      "StudyTime": "150039.884000",
      "TransmitCoilName": "Body",
      "VariableFlipAngleFlag": "N",
      "WindowCenterWidthExplanation": "Algo1",
      "dBdt": 0.0},
    "slices": {}
  },
  "time": {
    "samples": {
      "AcquisitionNumber": [1, 2, 3, 4, 5, 6, 7, 8, 9, 10, 11, 12, 13, 14, 15, 16, 17, 18, 19, 20, 21, 22, 23, 24, 25, 26, 27, 28, 29, 30, 31, 32, 33, 34, 35, 36, 37, 38, 39, 40, 41, 42, 43, 44, 45, 46, 47, 48, 49, 50, 51, 52, 53, 54, 55, 56, 57, 58, 59, 60, 61, 62, 63, 64, 65, 66, 67, 68, 69, 70, 71, 72, 73, 74, 75, 76, 77, 78, 79, 80, 81, 82, 83, 84, 85, 86, 87, 88, 89, 90, 91, 92, 93, 94, 95, 96, 97, 98, 99, 100, 101, 102, 103, 104, 105, 106, 107, 108, 109, 110, 111, 112, 113, 114, 115, 116, 117, 118, 119, 120, 121, 122, 123, 124, 125, 126, 127, 128, 129, 130, 131, 132, 133, 134, 135, 136, 137, 138, 139, 140, 141, 142, 143, 144, 145, 146, 147, 148, 149, 150, 151, 152, 153, 154, 155, 156, 157, 158, 159, 160, 161, 162, 163, 164, 165, 166, 167, 168, 169, 170, 171, 172, 173, 174, 175, 176, 177, 178, 179, 180, 181, 182, 183, 184, 185, 186, 187, 188, 189, 190, 191, 192, 193, 194, 195, 196, 197, 198, 199, 200, 201, 202, 203, 204, 205, 206, 207, 208, 209, 210, 211, 212, 213, 214, 215, 216, 217, 218, 219, 220, 221, 222, 223, 224, 225, 226, 227, 228, 229, 230, 231, 232, 233, 234, 235, 236, 237, 238, 239, 240, 241, 242, 243, 244, 245, 246, 247, 248, 249, 250, 251, 252, 253, 254, 255, 256, 257, 258, 259, 260, 261, 262, 263, 264, 265, 266, 267, 268, 269, 270, 271, 272, 273, 274, 275, 276, 277, 278, 279, 280, 281, 282, 283, 284, 285, 286, 287, 288, 289, 290, 291, 292, 293, 294, 295, 296, 297, 298, 299, 300, 301, 302, 303, 304, 305, 306, 307, 308, 309, 310, 311, 312, 313, 314, 315, 316, 317, 318, 319, 320, 321, 322, 323, 324, 325, 326, 327, 328, 329, 330, 331, 332, 333, 334, 335, 336, 337, 338, 339, 340, 341, 342, 343, 344, 345, 346, 347, 348, 349, 350, 351, 352, 353, 354, 355, 356, 357, 358, 359, 360, 361, 362, 363, 364, 365, 366, 367, 368, 369, 370, 371, 372, 373, 374, 375, 376, 377, 378, 379, 380, 381, 382, 383, 384, 385, 386, 387, 388, 389, 390, 391, 392, 393, 394, 395, 396, 397, 398, 399, 400, 401, 402, 403, 404, 405, 406, 407, 408, 409, 410, 411, 412, 413, 414, 415, 416, 417, 418, 419, 420, 421, 422, 423, 424, 425, 426, 427, 428, 429, 430, 431, 432, 433, 434, 435, 436, 437, 438, 439, 440, 441, 442, 443, 444, 445, 446],
      "AcquisitionTime": ["161810.032500", "161811.522500", "161813.012500", "161814.502500", "161815.992500", "161817.482500", "161818.972500", "161820.462500", "161821.952500", "161823.442500", "161824.932500", "161826.422500", "161827.912500", "161829.402500", "161830.892500", "161832.382500", "161833.872500", "161835.362500", "161836.852500", "161838.342500", "161839.832500", "161841.322500", "161842.812500", "161844.302500", "161845.792500", "161847.282500", "161848.772500", "161850.262500", "161851.752500", "161853.242500", "161854.732500", "161856.222500", "161857.712500", "161859.202500", "161900.692500", "161902.182500", "161903.672500", "161905.162500", "161906.652500", "161908.142500", "161909.632500", "161911.122500", "161912.612500", "161914.102500", "161915.592500", "161917.082500", "161918.572500", "161920.062500", "161921.552500", "161923.042500", "161924.532500", "161926.022500", "161927.512500", "161929.002500", "161930.492500", "161931.982500", "161933.472500", "161934.962500", "161936.452500", "161937.942500", "161939.432500", "161940.922500", "161942.412500", "161943.902500", "161945.392500", "161946.882500", "161948.372500", "161949.862500", "161951.352500", "161952.842500", "161954.332500", "161955.822500", "161957.312500", "161958.802500", "162000.292500", "162001.782500", "162003.272500", "162004.762500", "162006.252500", "162007.742500", "162009.232500", "162010.722500", "162012.212500", "162013.702500", "162015.192500", "162016.682500", "162018.172500", "162019.662500", "162021.152500", "162022.642500", "162024.132500", "162025.622500", "162027.112500", "162028.602500", "162030.092500", "162031.582500", "162033.072500", "162034.562500", "162036.052500", "162037.542500", "162039.032500", "162040.522500", "162042.012500", "162043.502500", "162044.992500", "162046.482500", "162047.972500", "162049.462500", "162050.952500", "162052.442500", "162053.932500", "162055.422500", "162056.912500", "162058.402500", "162059.892500", "162101.382500", "162102.872500", "162104.362500", "162105.852500", "162107.342500", "162108.832500", "162110.322500", "162111.812500", "162113.302500", "162114.792500", "162116.282500", "162117.772500", "162119.262500", "162120.752500", "162122.242500", "162123.732500", "162125.222500", "162126.712500", "162128.202500", "162129.692500", "162131.182500", "162132.672500", "162134.162500", "162135.652500", "162137.142500", "162138.632500", "162140.122500", "162141.612500", "162143.102500", "162144.592500", "162146.082500", "162147.572500", "162149.062500", "162150.552500", "162152.042500", "162153.532500", "162155.022500", "162156.512500", "162158.002500", "162159.492500", "162200.982500", "162202.472500", "162203.962500", "162205.452500", "162206.942500", "162208.432500", "162209.922500", "162211.412500", "162212.902500", "162214.392500", "162215.882500", "162217.372500", "162218.862500", "162220.352500", "162221.842500", "162223.332500", "162224.822500", "162226.312500", "162227.802500", "162229.292500", "162230.782500", "162232.272500", "162233.762500", "162235.252500", "162236.742500", "162238.232500", "162239.722500", "162241.212500", "162242.702500", "162244.192500", "162245.682500", "162247.172500", "162248.662500", "162250.152500", "162251.642500", "162253.132500", "162254.622500", "162256.112500", "162257.602500", "162259.092500", "162300.582500", "162302.072500", "162303.562500", "162305.052500", "162306.542500", "162308.032500", "162309.522500", "162311.012500", "162312.502500", "162313.992500", "162315.482500", "162316.972500", "162318.462500", "162319.952500", "162321.442500", "162322.932500", "162324.422500", "162325.912500", "162327.402500", "162328.892500", "162330.382500", "162331.872500", "162333.362500", "162334.852500", "162336.342500", "162337.832500", "162339.322500", "162340.812500", "162342.302500", "162343.792500", "162345.282500", "162346.772500", "162348.262500", "162349.752500", "162351.242500", "162352.732500", "162354.222500", "162355.712500", "162357.202500", "162358.692500", "162400.182500", "162401.672500", "162403.162500", "162404.652500", "162406.142500", "162407.632500", "162409.122500", "162410.612500", "162412.102500", "162413.592500", "162415.082500", "162416.572500", "162418.062500", "162419.552500", "162421.042500", "162422.532500", "162424.022500", "162425.512500", "162427.002500", "162428.492500", "162429.982500", "162431.472500", "162432.962500", "162434.452500", "162435.942500", "162437.432500", "162438.922500", "162440.412500", "162441.902500", "162443.392500", "162444.882500", "162446.372500", "162447.862500", "162449.352500", "162450.842500", "162452.332500", "162453.822500", "162455.312500", "162456.802500", "162458.292500", "162459.782500", "162501.272500", "162502.762500", "162504.252500", "162505.742500", "162507.232500", "162508.722500", "162510.212500", "162511.702500", "162513.192500", "162514.682500", "162516.172500", "162517.662500", "162519.152500", "162520.642500", "162522.132500", "162523.622500", "162525.112500", "162526.602500", "162528.092500", "162529.582500", "162531.072500", "162532.562500", "162534.052500", "162535.542500", "162537.032500", "162538.522500", "162540.012500", "162541.502500", "162542.992500", "162544.482500", "162545.972500", "162547.462500", "162548.952500", "162550.442500", "162551.932500", "162553.422500", "162554.912500", "162556.402500", "162557.892500", "162559.382500", "162600.872500", "162602.362500", "162603.852500", "162605.342500", "162606.832500", "162608.322500", "162609.812500", "162611.302500", "162612.792500", "162614.282500", "162615.772500", "162617.262500", "162618.752500", "162620.242500", "162621.732500", "162623.222500", "162624.712500", "162626.202500", "162627.692500", "162629.182500", "162630.672500", "162632.162500", "162633.652500", "162635.142500", "162636.632500", "162638.122500", "162639.612500", "162641.102500", "162642.592500", "162644.082500", "162645.572500", "162647.062500", "162648.552500", "162650.042500", "162651.532500", "162653.022500", "162654.512500", "162656.002500", "162657.492500", "162658.982500", "162700.472500", "162701.962500", "162703.452500", "162704.942500", "162706.432500", "162707.922500", "162709.412500", "162710.902500", "162712.392500", "162713.882500", "162715.372500", "162716.862500", "162718.352500", "162719.842500", "162721.332500", "162722.822500", "162724.312500", "162725.802500", "162727.292500", "162728.782500", "162730.272500", "162731.762500", "162733.252500", "162734.742500", "162736.232500", "162737.722500", "162739.212500", "162740.702500", "162742.192500", "162743.682500", "162745.172500", "162746.662500", "162748.152500", "162749.642500", "162751.132500", "162752.622500", "162754.112500", "162755.602500", "162757.092500", "162758.582500", "162800.072500", "162801.562500", "162803.052500", "162804.542500", "162806.032500", "162807.522500", "162809.012500", "162810.502500", "162811.992500", "162813.482500", "162814.972500", "162816.462500", "162817.952500", "162819.442500", "162820.932500", "162822.422500", "162823.912500", "162825.402500", "162826.892500", "162828.382500", "162829.872500", "162831.362500", "162832.852500", "162834.342500", "162835.832500", "162837.322500", "162838.812500", "162840.302500", "162841.792500", "162843.282500", "162844.772500", "162846.262500", "162847.752500", "162849.242500", "162850.732500", "162852.222500", "162853.712500", "162855.202500", "162856.692500", "162858.182500", "162859.672500", "162901.162500", "162902.652500", "162904.142500", "162905.632500", "162907.122500", "162908.612500", "162910.102500", "162911.592500", "162913.082500"],
      "ContentTime": ["161931.508000", "161931.511000", "161931.514000", "161931.517000", "161931.520000", "161931.523000", "161931.526000", "161931.528000", "161931.531000", "161931.534000", "161931.537000", "161931.540000", "161931.543000", "161931.546000", "161931.549000", "161931.552000", "161931.555000", "161931.558000", "161931.560000", "161931.574000", "161931.577000", "161931.580000", "161931.583000", "161931.586000", "161931.589000", "161931.592000", "161931.595000", "161951.480000", "161951.483000", "161951.486000", "161951.489000", "161951.492000", "161951.495000", "161951.497000", "161951.500000", "161951.512000", "161951.515000", "161951.518000", "161951.521000", "161951.524000", "161951.527000", "161951.530000", "161951.533000", "161951.536000", "161951.539000", "161951.541000", "161951.544000", "162011.480000", "162011.483000", "162011.486000", "162011.489000", "162011.492000", "162011.495000", "162011.498000", "162011.500000", "162011.503000", "162011.506000", "162011.514000", "162011.517000", "162011.520000", "162011.523000", "162011.526000", "162011.529000", "162011.532000", "162011.535000", "162011.537000", "162011.540000", "162011.543000", "162031.480000", "162031.483000", "162031.486000", "162031.489000", "162031.492000", "162031.495000", "162031.498000", "162031.501000", "162031.504000", "162031.507000", "162031.510000", "162031.513000", "162031.516000", "162031.519000", "162031.521000", "162031.524000", "162031.532000", "162031.535000", "162031.538000", "162031.541000", "162111.480000", "162111.483000", "162111.486000", "162111.489000", "162111.492000", "162111.495000", "162111.498000", "162111.501000", "162111.504000", "162111.507000", "162111.510000", "162111.513000", "162111.516000", "162111.519000", "162111.522000", "162111.525000", "162111.528000", "162111.530000", "162111.534000", "162111.537000", "162111.539000", "162111.542000", "162111.545000", "162111.548000", "162111.551000", "162111.554000", "162111.557000", "162111.568000", "162111.571000", "162111.574000", "162111.577000", "162111.580000", "162111.583000", "162151.480000", "162151.483000", "162151.486000", "162151.489000", "162151.492000", "162151.495000", "162151.498000", "162151.501000", "162151.504000", "162151.507000", "162151.510000", "162151.513000", "162151.515000", "162151.518000", "162151.521000", "162151.524000", "162151.527000", "162151.530000", "162151.533000", "162151.536000", "162151.539000", "162151.542000", "162151.545000", "162151.548000", "162151.551000", "162151.553000", "162151.556000", "162231.480000", "162231.483000", "162231.486000", "162231.489000", "162231.492000", "162231.495000", "162231.498000", "162231.501000", "162231.504000", "162231.507000", "162231.510000", "162231.513000", "162231.516000", "162231.519000", "162231.522000", "162231.525000", "162231.528000", "162231.531000", "162231.534000", "162231.537000", "162231.540000", "162231.557000", "162231.561000", "162231.564000", "162231.566000", "162231.569000", "162231.573000", "162311.480000", "162311.483000", "162311.486000", "162311.489000", "162311.492000", "162311.495000", "162311.498000", "162311.502000", "162311.505000", "162311.508000", "162311.511000", "162311.514000", "162311.517000", "162311.520000", "162311.523000", "162311.526000", "162311.529000", "162311.532000", "162311.535000", "162311.538000", "162311.541000", "162311.544000", "162311.546000", "162311.550000", "162311.552000", "162311.555000", "162351.481000", "162351.484000", "162351.487000", "162351.490000", "162351.493000", "162351.496000", "162351.499000", "162351.502000", "162351.505000", "162351.508000", "162351.510000", "162351.514000", "162351.516000", "162351.519000", "162351.522000", "162351.525000", "162351.528000", "162351.531000", "162351.534000", "162351.537000", "162351.540000", "162351.543000", "162351.546000", "162351.549000", "162351.552000", "162351.555000", "162351.558000", "162431.480000", "162431.483000", "162431.486000", "162431.489000", "162431.492000", "162431.495000", "162431.498000", "162431.501000", "162431.504000", "162431.507000", "162431.510000", "162431.513000", "162431.516000", "162431.518000", "162431.521000", "162431.524000", "162431.528000", "162431.531000", "162431.534000", "162431.537000", "162431.539000", "162431.542000", "162431.545000", "162431.548000", "162431.551000", "162431.554000", "162431.557000", "162511.480000", "162511.483000", "162511.486000", "162511.489000", "162511.492000", "162511.495000", "162511.498000", "162511.501000", "162511.504000", "162511.507000", "162511.510000", "162511.513000", "162511.516000", "162511.519000", "162511.522000", "162511.525000", "162511.528000", "162511.531000", "162511.534000", "162511.537000", "162511.540000", "162511.543000", "162511.546000", "162511.549000", "162511.551000", "162511.554000", "162511.557000", "162551.480000", "162551.483000", "162551.486000", "162551.489000", "162551.492000", "162551.495000", "162551.498000", "162551.501000", "162551.504000", "162551.507000", "162551.510000", "162551.513000", "162551.516000", "162551.519000", "162551.521000", "162551.524000", "162551.527000", "162551.530000", "162551.533000", "162551.536000", "162551.539000", "162551.542000", "162551.545000", "162551.548000", "162551.551000", "162551.554000", "162551.557000", "162611.480000", "162611.483000", "162611.486000", "162611.489000", "162611.492000", "162611.495000", "162611.498000", "162611.501000", "162611.504000", "162611.507000", "162611.510000", "162611.513000", "162611.516000", "162651.480000", "162651.483000", "162651.486000", "162651.489000", "162651.492000", "162651.495000", "162651.498000", "162651.501000", "162651.504000", "162651.507000", "162651.510000", "162651.513000", "162651.516000", "162651.519000", "162651.522000", "162651.525000", "162651.528000", "162651.531000", "162651.534000", "162651.536000", "162651.539000", "162651.542000", "162651.545000", "162651.548000", "162651.556000", "162651.559000", "162651.562000", "162731.480000", "162731.483000", "162731.486000", "162731.489000", "162731.492000", "162731.495000", "162731.498000", "162731.501000", "162731.504000", "162731.507000", "162731.510000", "162731.513000", "162731.516000", "162731.519000", "162731.522000", "162731.525000", "162731.542000", "162731.545000", "162731.548000", "162731.551000", "162731.554000", "162731.557000", "162731.560000", "162731.563000", "162731.566000", "162731.569000", "162731.572000", "162811.479000", "162811.482000", "162811.485000", "162811.488000", "162811.491000", "162811.494000", "162811.497000", "162811.500000", "162811.503000", "162811.506000", "162811.509000", "162811.512000", "162811.515000", "162811.518000", "162811.521000", "162811.524000", "162811.527000", "162811.530000", "162811.533000", "162811.536000", "162811.538000", "162811.541000", "162811.544000", "162811.547000", "162811.550000", "162811.553000", "162811.556000", "162851.480000", "162851.483000", "162851.486000", "162851.489000", "162851.492000", "162851.495000", "162851.498000", "162851.501000", "162851.504000", "162851.507000", "162851.510000", "162851.513000", "162851.516000", "162851.519000", "162851.522000", "162851.525000", "162851.528000", "162851.531000", "162851.534000", "162851.537000", "162851.540000", "162851.543000", "162851.546000", "162851.549000", "162851.552000", "162851.555000", "162851.558000", "162915.263000", "162915.267000", "162915.278000", "162915.281000", "162915.284000", "162915.287000", "162915.290000", "162915.293000", "162915.296000", "162915.299000", "162915.302000", "162915.305000", "162915.308000", "162915.311000", "162915.314000", "162915.317000"],
