{
  "AcquisitionMatrixPE": 104,
  "AcquisitionNumber": 1,
  "AcquisitionTime": "11:31:20.747500",
  "BandwidthPerPixelPhaseEncode": 17.17,
  "BaseResolution": 104,
  "BodyPartExamined": "BRAIN",
  "CoilString": "HC1-7;NC1_2",
  "ConsistencyInfo": "N4_VE11C_LATEST_20160120",
  "ConversionSoftware": "dcm2niix",
  "ConversionSoftwareVersion": "v1.0.20190720  (JP2:OpenJPEG) GCC7.3.0",
  "DerivedVendorReportedEchoSpacing": 0.000560011,
  "DeviceSerialNumber": "167006",
  "DwellTime": 2.1e-06,
  "EchoTime": 0.037,
  "EchoTrainLength": 104,
  "EffectiveEchoSpacing": 0.000560011,
  "FlipAngle": 52,
  "ImageComments": "Unaliased_MB4_PE3_LB",
  "ImageOrientationPatientDICOM": [0.999596, -0.0282899, 0.00282482, 0.0277467, 0.949058, -0.313877],
  "ImageType": [
    "ORIGINAL",
    "PRIMARY",
    "M",
    "MB",
    "ND",
    "MOSAIC"
],
  "ImagingFrequency": 123.259,
  "InPlanePhaseEncodingDirectionDICOM": "COL",
  "InstitutionAddress": "Chemin_Queen-Mary_4565_Montreal_District_CA_H3W_1W5",
  "InstitutionName": "IUGM",
  "InstitutionalDepartmentName": "Department",
  "MRAcquisitionType": "2D",
  "MagneticFieldStrength": 3,
  "Manufacturer": "Siemens",
  "ManufacturersModelName": "Prisma_fit",
  "Modality": "MR",
  "MultibandAccelerationFactor": 4,
  "PartialFourier": 1,
  "PatientPosition": "HFS",
  "PercentPhaseFOV": 100,
  "PhaseEncodingDirection": "j",
  "PhaseEncodingSteps": 104,
  "PhaseResolution": 1,
  "PixelBandwidth": 2290,
  "ProcedureStepDescription": "video_friends",
  "ProtocolName": "func_task-s01e08b",
  "PulseSequenceDetails": "%CustomerSeq%_cmrr_mbep2d_bold",
  "ReceiveCoilActiveElements": "HC1-7;NC1,2",
  "ReceiveCoilName": "HeadNeck_64",
  "ReconMatrixPE": 104,
  "RepetitionTime": 1.49,
  "SAR": 0.0302498,
  "ScanOptions": "FS",
  "ScanningSequence": "EP",
  "SequenceName": "epfid2d1_104",
  "SequenceVariant": "SK_SS",
  "SeriesDescription": "func_task-s01e08b",
  "SeriesNumber": 14,
  "ShimSetting": [617, -7195, -8816, 676, 0, 58, 23, 11],
  "SliceThickness": 2,
  "SliceTiming": [0, 0.785, 0.0975, 0.8825, 0.1975, 0.98, 0.295, 1.0775, 0.3925, 1.1775, 0.49, 1.275, 0.5875, 1.3725, 0.6875, 0, 0.785, 0.0975, 0.8825, 0.1975, 0.98, 0.295, 1.0775, 0.3925, 1.1775, 0.49, 1.275, 0.5875, 1.3725, 0.6875, 0, 0.785, 0.0975, 0.8825, 0.1975, 0.98, 0.295, 1.0775, 0.3925, 1.1775, 0.49, 1.275, 0.5875, 1.3725, 0.6875, 0, 0.785, 0.0975, 0.8825, 0.1975, 0.98, 0.295, 1.0775, 0.3925, 1.1775, 0.49, 1.275, 0.5875, 1.3725, 0.6875],
  "SoftwareVersions": "syngo_MR_E11",
  "SpacingBetweenSlices": 2,
  "StationName": "MRC35049",
  "TaskName": "friends",
  "TotalReadoutTime": 0.0576811,
  "TxRefAmp": 209.382,
  "WipMemBlock": "5c7d7819-add7-4d12-9d24-5b8ed7f8f5af||Sequence: R016 ve11c/master r/e634e98; Dec 19 2017 11:00:25 by eja",
  "dcmmeta_affine": [
    [-1.9991915225982666, 0.05549333244562149, -0.012397310696542263, 102.35926818847656],
    [0.05657989904284477, 1.898116111755371, -0.6276574730873108, -82.37008666992188],
    [0.005649634636938572, 0.6277545094490051, 1.898918628692627, -67.58411407470703],
    [0.0, 0.0, 0.0, 1.0]
],
  "dcmmeta_reorient_transform": [
    [0.0, -1.0, 0.0, 103.0],
    [1.0, 0.0, 0.0, 0.0],
    [0.0, 0.0, 1.0, 0.0],
    [0.0, 0.0, 0.0, 1.0]
],
  "dcmmeta_shape": [104, 104, 60, 476],
  "dcmmeta_slice_dim": 2,
  "dcmmeta_version": 0.6,
  "global": {
    "const": {
      "AcquisitionMatrix": [104, 0, 0, 104],
      "AngioFlag": "N",
      "BitsAllocated": 16,
      "BitsStored": 16,
      "BodyPartExamined": "BRAIN",
      "Columns": 832,
      "EchoNumbers": 1,
      "EchoTime": 37.0,
      "EchoTrainLength": 104,
      "FlipAngle": 52.0,
      "HighBit": 15,
      "ImageOrientationPatient": [0.99959576789068, -0.0282899491389, 0.00282481729659, 0.02774666614241, 0.94905805734535, -0.3138772471936],
      "ImagePositionPatient": [-855.98037522357, -783.45505212702, 223.52076510697],
      "ImageType": [
        "ORIGINAL",
        "PRIMARY",
        "M",
        "MB",
        "ND",
        "MOSAIC"
],
      "ImagedNucleus": "1H",
      "ImagingFrequency": 123.259194,
      "InPlanePhaseEncodingDirection": "COL",
      "MRAcquisitionType": "2D",
      "MagneticFieldStrength": 3.0,
      "Manufacturer": "SIEMENS",
      "ManufacturerModelName": "Prisma_fit",
      "Modality": "MR",
      "NumberOfAverages": 1.0,
      "NumberOfPhaseEncodingSteps": 104,
      "PercentPhaseFieldOfView": 100.0,
      "PercentSampling": 100.0,
      "PerformedProcedureStepStartTime": "103534.420000",
      "PhotometricInterpretation": "MONOCHROME2",
      "PixelBandwidth": 2290.0,
      "PixelRepresentation": 0,
      "PixelSpacing": [2.0, 2.0],
      "ProtocolName": "func_task-s01e08b",
      "RepetitionTime": 1490.0,
      "Rows": 832,
      "SAR": 0.03024982909004,
      "SamplesPerPixel": 1,
      "ScanOptions": "FS",
      "ScanningSequence": "EP",
      "SequenceName": "epfid2d1_104",
      "SequenceVariant": [
        "SK",
        "SS"
],
      "SeriesDescription": "func_task-s01e08b",
      "SeriesNumber": 14,
      "SeriesTime": "113240.760000",
      "SliceLocation": -38.952760479449,
      "SliceThickness": 2.0,
      "SmallestImagePixelValue": 0,
      "SoftwareVersions": "syngo MR E11",
      "SpacingBetweenSlices": 1.9999999311766,
      "SpecificCharacterSet": "ISO_IR 100",
      "StudyID": "1",
      "StudyTime": "103534.288000",
      "TransmitCoilName": "Body",
      "VariableFlipAngleFlag": "N",
      "WindowCenterWidthExplanation": "Algo1",
      "dBdt": 0.0},
    "slices": {}
  },
  "time": {
    "samples": {
      "AcquisitionNumber": [1, 2, 3, 4, 5, 6, 7, 8, 9, 10, 11, 12, 13, 14, 15, 16, 17, 18, 19, 20, 21, 22, 23, 24, 25, 26, 27, 28, 29, 30, 31, 32, 33, 34, 35, 36, 37, 38, 39, 40, 41, 42, 43, 44, 45, 46, 47, 48, 49, 50, 51, 52, 53, 54, 55, 56, 57, 58, 59, 60, 61, 62, 63, 64, 65, 66, 67, 68, 69, 70, 71, 72, 73, 74, 75, 76, 77, 78, 79, 80, 81, 82, 83, 84, 85, 86, 87, 88, 89, 90, 91, 92, 93, 94, 95, 96, 97, 98, 99, 100, 101, 102, 103, 104, 105, 106, 107, 108, 109, 110, 111, 112, 113, 114, 115, 116, 117, 118, 119, 120, 121, 122, 123, 124, 125, 126, 127, 128, 129, 130, 131, 132, 133, 134, 135, 136, 137, 138, 139, 140, 141, 142, 143, 144, 145, 146, 147, 148, 149, 150, 151, 152, 153, 154, 155, 156, 157, 158, 159, 160, 161, 162, 163, 164, 165, 166, 167, 168, 169, 170, 171, 172, 173, 174, 175, 176, 177, 178, 179, 180, 181, 182, 183, 184, 185, 186, 187, 188, 189, 190, 191, 192, 193, 194, 195, 196, 197, 198, 199, 200, 201, 202, 203, 204, 205, 206, 207, 208, 209, 210, 211, 212, 213, 214, 215, 216, 217, 218, 219, 220, 221, 222, 223, 224, 225, 226, 227, 228, 229, 230, 231, 232, 233, 234, 235, 236, 237, 238, 239, 240, 241, 242, 243, 244, 245, 246, 247, 248, 249, 250, 251, 252, 253, 254, 255, 256, 257, 258, 259, 260, 261, 262, 263, 264, 265, 266, 267, 268, 269, 270, 271, 272, 273, 274, 275, 276, 277, 278, 279, 280, 281, 282, 283, 284, 285, 286, 287, 288, 289, 290, 291, 292, 293, 294, 295, 296, 297, 298, 299, 300, 301, 302, 303, 304, 305, 306, 307, 308, 309, 310, 311, 312, 313, 314, 315, 316, 317, 318, 319, 320, 321, 322, 323, 324, 325, 326, 327, 328, 329, 330, 331, 332, 333, 334, 335, 336, 337, 338, 339, 340, 341, 342, 343, 344, 345, 346, 347, 348, 349, 350, 351, 352, 353, 354, 355, 356, 357, 358, 359, 360, 361, 362, 363, 364, 365, 366, 367, 368, 369, 370, 371, 372, 373, 374, 375, 376, 377, 378, 379, 380, 381, 382, 383, 384, 385, 386, 387, 388, 389, 390, 391, 392, 393, 394, 395, 396, 397, 398, 399, 400, 401, 402, 403, 404, 405, 406, 407, 408, 409, 410, 411, 412, 413, 414, 415, 416, 417, 418, 419, 420, 421, 422, 423, 424, 425, 426, 427, 428, 429, 430, 431, 432, 433, 434, 435, 436, 437, 438, 439, 440, 441, 442, 443, 444, 445, 446, 447, 448, 449, 450, 451, 452, 453, 454, 455, 456, 457, 458, 459, 460, 461, 462, 463, 464, 465, 466, 467, 468, 469, 470, 471, 472, 473, 474, 475, 476],
      "AcquisitionTime": ["113120.747500", "113122.237500", "113123.727500", "113125.217500", "113126.707500", "113128.197500", "113129.687500", "113131.177500", "113132.667500", "113134.157500", "113135.647500", "113137.137500", "113138.627500", "113140.117500", "113141.607500", "113143.097500", "113144.587500", "113146.077500", "113147.567500", "113149.057500", "113150.547500", "113152.037500", "113153.527500", "113155.017500", "113156.507500", "113157.997500", "113159.487500", "113200.977500", "113202.467500", "113203.957500", "113205.447500", "113206.937500", "113208.427500", "113209.917500", "113211.407500", "113212.897500", "113214.387500", "113215.877500", "113217.367500", "113218.857500", "113220.347500", "113221.837500", "113223.327500", "113224.817500", "113226.307500", "113227.797500", "113229.287500", "113230.777500", "113232.267500", "113233.757500", "113235.247500", "113236.737500", "113238.227500", "113239.717500", "113241.207500", "113242.697500", "113244.187500", "113245.677500", "113247.167500", "113248.657500", "113250.147500", "113251.637500", "113253.127500", "113254.617500", "113256.107500", "113257.597500", "113259.087500", "113300.577500", "113302.067500", "113303.557500", "113305.047500", "113306.537500", "113308.027500", "113309.517500", "113311.007500", "113312.497500", "113313.987500", "113315.477500", "113316.967500", "113318.457500", "113319.947500", "113321.437500", "113322.927500", "113324.417500", "113325.907500", "113327.397500", "113328.887500", "113330.377500", "113331.867500", "113333.357500", "113334.847500", "113336.337500", "113337.827500", "113339.317500", "113340.807500", "113342.297500", "113343.787500", "113345.277500", "113346.767500", "113348.257500", "113349.747500", "113351.237500", "113352.727500", "113354.217500", "113355.707500", "113357.197500", "113358.687500", "113400.177500", "113401.667500", "113403.157500", "113404.647500", "113406.137500", "113407.627500", "113409.117500", "113410.607500", "113412.097500", "113413.587500", "113415.077500", "113416.567500", "113418.057500", "113419.547500", "113421.037500", "113422.527500", "113424.017500", "113425.507500", "113426.997500", "113428.487500", "113429.977500", "113431.467500", "113432.957500", "113434.447500", "113435.937500", "113437.427500", "113438.917500", "113440.407500", "113441.897500", "113443.387500", "113444.877500", "113446.367500", "113447.857500", "113449.347500", "113450.837500", "113452.327500", "113453.817500", "113455.307500", "113456.797500", "113458.287500", "113459.777500", "113501.267500", "113502.757500", "113504.247500", "113505.737500", "113507.227500", "113508.717500", "113510.207500", "113511.697500", "113513.187500", "113514.677500", "113516.167500", "113517.657500", "113519.147500", "113520.637500", "113522.127500", "113523.617500", "113525.107500", "113526.597500", "113528.087500", "113529.577500", "113531.067500", "113532.557500", "113534.047500", "113535.537500", "113537.027500", "113538.517500", "113540.007500", "113541.497500", "113542.987500", "113544.477500", "113545.967500", "113547.457500", "113548.947500", "113550.437500", "113551.927500", "113553.417500", "113554.907500", "113556.397500", "113557.887500", "113559.377500", "113600.867500", "113602.357500", "113603.847500", "113605.337500", "113606.827500", "113608.317500", "113609.807500", "113611.297500", "113612.787500", "113614.277500", "113615.767500", "113617.257500", "113618.747500", "113620.237500", "113621.727500", "113623.217500", "113624.707500", "113626.197500", "113627.687500", "113629.177500", "113630.667500", "113632.157500", "113633.647500", "113635.137500", "113636.627500", "113638.117500", "113639.607500", "113641.097500", "113642.587500", "113644.077500", "113645.567500", "113647.057500", "113648.547500", "113650.037500", "113651.527500", "113653.017500", "113654.507500", "113655.997500", "113657.487500", "113658.977500", "113700.467500", "113701.957500", "113703.447500", "113704.937500", "113706.427500", "113707.917500", "113709.407500", "113710.897500", "113712.387500", "113713.877500", "113715.367500", "113716.857500", "113718.347500", "113719.837500", "113721.327500", "113722.817500", "113724.307500", "113725.797500", "113727.287500", "113728.777500", "113730.267500", "113731.757500", "113733.247500", "113734.737500", "113736.227500", "113737.717500", "113739.207500", "113740.697500", "113742.187500", "113743.677500", "113745.167500", "113746.657500", "113748.147500", "113749.637500", "113751.127500", "113752.617500", "113754.107500", "113755.597500", "113757.087500", "113758.577500", "113800.067500", "113801.557500", "113803.047500", "113804.537500", "113806.027500", "113807.517500", "113809.007500", "113810.497500", "113811.987500", "113813.477500", "113814.967500", "113816.457500", "113817.947500", "113819.437500", "113820.927500", "113822.417500", "113823.907500", "113825.397500", "113826.887500", "113828.377500", "113829.867500", "113831.357500", "113832.847500", "113834.337500", "113835.827500", "113837.317500", "113838.807500", "113840.297500", "113841.787500", "113843.277500", "113844.767500", "113846.257500", "113847.747500", "113849.237500", "113850.727500", "113852.217500", "113853.707500", "113855.197500", "113856.687500", "113858.177500", "113859.667500", "113901.157500", "113902.647500", "113904.137500", "113905.627500", "113907.117500", "113908.607500", "113910.097500", "113911.587500", "113913.077500", "113914.567500", "113916.057500", "113917.547500", "113919.037500", "113920.527500", "113922.017500", "113923.507500", "113924.997500", "113926.487500", "113927.977500", "113929.467500", "113930.957500", "113932.447500", "113933.937500", "113935.427500", "113936.917500", "113938.407500", "113939.897500", "113941.387500", "113942.877500", "113944.367500", "113945.857500", "113947.347500", "113948.837500", "113950.327500", "113951.817500", "113953.307500", "113954.797500", "113956.287500", "113957.777500", "113959.267500", "114000.757500", "114002.247500", "114003.737500", "114005.227500", "114006.717500", "114008.207500", "114009.697500", "114011.187500", "114012.677500", "114014.167500", "114015.657500", "114017.147500", "114018.637500", "114020.127500", "114021.617500", "114023.107500", "114024.597500", "114026.087500", "114027.577500", "114029.067500", "114030.557500", "114032.047500", "114033.537500", "114035.027500", "114036.517500", "114038.007500", "114039.497500", "114040.987500", "114042.477500", "114043.967500", "114045.457500", "114046.947500", "114048.437500", "114049.927500", "114051.417500", "114052.907500", "114054.397500", "114055.887500", "114057.377500", "114058.867500", "114100.357500", "114101.847500", "114103.337500", "114104.827500", "114106.317500", "114107.807500", "114109.297500", "114110.787500", "114112.277500", "114113.767500", "114115.257500", "114116.747500", "114118.237500", "114119.727500", "114121.217500", "114122.707500", "114124.197500", "114125.687500", "114127.177500", "114128.667500", "114130.157500", "114131.647500", "114133.137500", "114134.627500", "114136.117500", "114137.607500", "114139.097500", "114140.587500", "114142.077500", "114143.567500", "114145.057500", "114146.547500", "114148.037500", "114149.527500", "114151.017500", "114152.507500", "114153.997500", "114155.487500", "114156.977500", "114158.467500", "114159.957500", "114201.447500", "114202.937500", "114204.427500", "114205.917500", "114207.407500", "114208.897500", "114210.387500", "114211.877500", "114213.367500", "114214.857500", "114216.347500", "114217.837500", "114219.327500", "114220.817500", "114222.307500", "114223.797500", "114225.287500", "114226.777500", "114228.267500", "114229.757500", "114231.247500", "114232.737500", "114234.227500", "114235.717500", "114237.207500", "114238.697500", "114240.187500", "114241.677500", "114243.167500", "114244.657500", "114246.147500", "114247.637500", "114249.127500", "114250.617500", "114252.107500", "114253.597500", "114255.087500", "114256.577500", "114258.067500", "114259.557500", "114301.047500", "114302.537500", "114304.027500", "114305.517500", "114307.007500", "114308.497500"],
      "ContentTime": ["113240.763000", "113240.766000", "113240.769000", "113240.772000", "113240.775000", "113240.778000", "113240.781000", "113240.784000", "113240.787000", "113240.790000", "113240.800000", "113240.803000", "113240.806000", "113240.808000", "113240.812000", "113240.814000", "113240.817000", "113240.820000", "113240.823000", "113240.826000", "113240.829000", "113240.832000", "113240.835000", "113300.726000", "113300.729000", "113300.732000", "113300.735000", "113300.738000", "113300.741000", "113300.744000", "113300.746000", "113300.749000", "113300.752000", "113300.755000", "113300.758000", "113300.761000", "113300.764000", "113300.767000", "113300.770000", "113300.773000", "113300.776000", "113300.779000", "113300.782000", "113320.726000", "113320.729000", "113320.732000", "113320.735000", "113320.738000", "113320.740000", "113320.743000", "113320.746000", "113320.749000", "113320.752000", "113320.755000", "113320.758000", "113320.761000", "113320.764000", "113320.767000", "113320.770000", "113320.774000", "113320.777000", "113320.780000", "113320.783000", "113340.726000", "113340.729000", "113340.732000", "113340.735000", "113340.738000", "113340.741000", "113340.744000", "113340.747000", "113340.749000", "113340.752000", "113340.755000", "113340.758000", "113340.761000", "113340.764000", "113340.767000", "113340.770000", "113340.773000", "113340.776000", "113340.778000", "113340.781000", "113340.784000", "113400.726000", "113400.729000", "113400.732000", "113400.735000", "113400.738000", "113400.741000", "113400.744000", "113400.753000", "113400.756000", "113400.759000", "113400.761000", "113400.764000", "113400.767000", "113400.770000", "113400.773000", "113400.776000", "113400.779000", "113400.782000", "113400.785000", "113400.788000", "113440.726000", "113440.729000", "113440.732000", "113440.736000", "113440.739000", "113440.742000", "113440.745000", "113440.748000", "113440.751000", "113440.754000", "113440.757000", "113440.760000", "113440.774000", "113440.777000", "113440.780000", "113440.783000", "113440.786000", "113440.789000", "113440.792000", "113440.795000", "113440.798000", "113440.801000", "113440.803000", "113440.806000", "113440.809000", "113440.812000", "113440.815000", "113440.818000", "113440.821000", "113520.726000", "113520.729000", "113520.732000", "113520.735000", "113520.738000", "113520.741000", "113520.757000", "113520.760000", "113520.763000", "113520.766000", "113520.769000", "113520.772000", "113520.774000", "113520.777000", "113520.780000", "113520.783000", "113520.786000", "113520.789000", "113520.792000", "113520.795000", "113520.798000", "113520.801000", "113520.804000", "113520.807000", "113520.810000", "113520.813000", "113520.816000", "113600.726000", "113600.729000", "113600.732000", "113600.735000", "113600.738000", "113600.741000", "113600.744000", "113600.747000", "113600.749000", "113600.752000", "113600.755000", "113600.758000", "113600.761000", "113600.764000", "113600.767000", "113600.770000", "113600.773000", "113600.776000", "113600.779000", "113600.781000", "113600.784000", "113600.787000", "113600.790000", "113600.793000", "113600.796000", "113600.799000", "113600.802000", "113640.726000", "113640.729000", "113640.738000", "113640.740000", "113640.743000", "113640.746000", "113640.749000", "113640.752000", "113640.755000", "113640.758000", "113640.761000", "113640.764000", "113640.767000", "113640.770000", "113640.773000", "113640.776000", "113640.779000", "113640.782000", "113640.785000", "113640.788000", "113640.790000", "113640.793000", "113640.797000", "113640.799000", "113640.802000", "113640.805000", "113640.808000", "113720.726000", "113720.736000", "113720.739000", "113720.742000", "113720.745000", "113720.748000", "113720.751000", "113720.754000", "113720.757000", "113720.760000", "113720.763000", "113720.766000", "113720.769000", "113720.772000", "113720.775000", "113720.778000", "113720.781000", "113720.784000", "113720.787000", "113720.789000", "113720.792000", "113720.795000", "113720.798000", "113720.801000", "113720.804000", "113720.807000", "113720.810000", "113800.726000", "113800.729000", "113800.732000", "113800.735000", "113800.738000", "113800.741000", "113800.744000", "113800.747000", "113800.749000", "113800.752000", "113800.755000", "113800.758000", "113800.761000", "113800.764000", "113800.767000", "113800.770000", "113800.780000", "113800.783000", "113800.786000", "113800.789000", "113800.792000", "113800.795000", "113800.798000", "113800.801000", "113800.804000", "113800.807000", "113800.810000", "113840.726000", "113840.729000", "113840.732000", "113840.735000", "113840.738000", "113840.741000", "113840.744000", "113840.747000", "113840.749000", "113840.752000", "113840.755000", "113840.758000", "113840.761000", "113840.764000", "113840.767000", "113840.770000", "113840.773000", "113840.776000", "113840.779000", "113840.782000", "113840.785000", "113840.787000", "113840.790000", "113840.793000", "113840.796000", "113840.799000", "113840.802000", "113920.726000", "113920.729000", "113920.732000", "113920.735000", "113920.738000", "113920.741000", "113920.744000", "113920.747000", "113920.750000", "113920.752000", "113920.755000", "113920.758000", "113920.761000", "113920.764000", "113920.767000", "113920.770000", "113920.773000", "113920.776000", "113920.790000", "113920.793000", "113920.796000", "113920.799000", "113920.802000", "113920.804000", "113920.807000", "113920.810000", "113940.726000", "113940.729000", "113940.732000", "113940.735000", "113940.738000", "113940.741000", "113940.744000", "113940.747000", "113940.749000", "113940.752000", "113940.755000", "113940.758000", "113940.761000", "113940.764000", "114020.726000", "114020.729000", "114020.732000", "114020.735000", "114020.738000", "114020.741000", "114020.744000", "114020.747000", "114020.749000", "114020.752000", "114020.755000", "114020.758000", "114020.761000", "114020.764000", "114020.767000", "114020.770000", "114020.773000", "114020.776000", "114020.779000", "114020.781000", "114020.784000", "114020.787000", "114020.790000", "114020.793000", "114020.796000", "114020.799000", "114020.802000", "114100.726000", "114100.729000", "114100.732000", "114100.735000", "114100.741000", "114100.744000", "114100.747000", "114100.749000", "114100.753000", "114100.755000", "114100.758000", "114100.761000", "114100.764000", "114100.767000", "114100.770000", "114100.773000", "114100.776000", "114100.779000", "114100.782000", "114100.785000", "114100.788000", "114100.791000", "114100.794000", "114100.796000", "114100.799000", "114100.802000", "114100.805000", "114140.726000", "114140.729000", "114140.732000", "114140.735000", "114140.738000", "114140.741000", "114140.744000", "114140.747000", "114140.750000", "114140.752000", "114140.755000", "114140.758000", "114140.761000", "114140.764000", "114140.767000", "114140.770000", "114140.773000", "114140.777000", "114140.780000", "114140.783000", "114140.786000", "114140.788000", "114140.791000", "114140.794000", "114140.797000", "114140.800000", "114220.726000", "114220.729000", "114220.732000", "114220.735000", "114220.738000", "114220.741000", "114220.744000", "114220.747000", "114220.749000", "114220.752000", "114220.755000", "114220.758000", "114220.761000", "114220.764000", "114220.767000", "114220.770000", "114220.773000", "114220.776000", "114220.779000", "114220.781000", "114220.784000", "114220.787000", "114220.790000", "114220.793000", "114220.796000", "114220.799000", "114220.802000", "114300.726000", "114300.729000", "114300.732000", "114300.735000", "114300.738000", "114300.741000", "114300.744000", "114300.747000", "114300.750000", "114300.753000", "114300.756000", "114300.758000", "114300.761000", "114300.764000", "114300.767000", "114300.770000", "114300.773000", "114300.776000", "114300.779000", "114300.789000", "114300.792000", "114300.795000", "114300.798000", "114300.801000", "114300.804000", "114300.807000", "114300.810000", "114310.363000", "114310.366000", "114310.369000", "114310.372000", "114310.375000", "114310.378000", "114310.381000"],
