{
  "AcquisitionMatrixPE": 104,
  "AcquisitionNumber": 1,
  "AcquisitionTime": "11:18:51.297500",
  "BandwidthPerPixelPhaseEncode": 17.17,
  "BaseResolution": 104,
  "BodyPartExamined": "BRAIN",
  "CoilString": "HC1-7;NC1_2",
  "ConsistencyInfo": "N4_VE11C_LATEST_20160120",
  "ConversionSoftware": "dcm2niix",
  "ConversionSoftwareVersion": "v1.0.20190720  (JP2:OpenJPEG) GCC7.3.0",
  "DerivedVendorReportedEchoSpacing": 0.000560011,
  "DeviceSerialNumber": "167006",
  "DwellTime": 2.1e-06,
  "EchoTime": 0.037,
  "EchoTrainLength": 104,
  "EffectiveEchoSpacing": 0.000560011,
  "FlipAngle": 52,
  "ImageComments": "Unaliased_MB4_PE3_LB",
  "ImageOrientationPatientDICOM": [0.999596, -0.0282899, 0.00282482, 0.0277467, 0.949058, -0.313877],
  "ImageType": [
    "ORIGINAL",
    "PRIMARY",
    "M",
    "MB",
    "ND",
    "MOSAIC"
],
  "ImagingFrequency": 123.259,
  "InPlanePhaseEncodingDirectionDICOM": "COL",
  "InstitutionAddress": "Chemin_Queen-Mary_4565_Montreal_District_CA_H3W_1W5",
  "InstitutionName": "IUGM",
  "InstitutionalDepartmentName": "Department",
  "MRAcquisitionType": "2D",
  "MagneticFieldStrength": 3,
  "Manufacturer": "Siemens",
  "ManufacturersModelName": "Prisma_fit",
  "Modality": "MR",
  "MultibandAccelerationFactor": 4,
  "PartialFourier": 1,
  "PatientPosition": "HFS",
  "PercentPhaseFOV": 100,
  "PhaseEncodingDirection": "j",
  "PhaseEncodingSteps": 104,
  "PhaseResolution": 1,
  "PixelBandwidth": 2290,
  "ProcedureStepDescription": "video_friends",
  "ProtocolName": "func_task-s01e08a",
  "PulseSequenceDetails": "%CustomerSeq%_cmrr_mbep2d_bold",
  "ReceiveCoilActiveElements": "HC1-7;NC1,2",
  "ReceiveCoilName": "HeadNeck_64",
  "ReconMatrixPE": 104,
  "RepetitionTime": 1.49,
  "SAR": 0.0302498,
  "ScanOptions": "FS",
  "ScanningSequence": "EP",
  "SequenceName": "epfid2d1_104",
  "SequenceVariant": "SK_SS",
  "SeriesDescription": "func_task-s01e08a",
  "SeriesNumber": 12,
  "ShimSetting": [617, -7195, -8816, 676, 0, 58, 23, 11],
  "SliceThickness": 2,
  "SliceTiming": [0, 0.785, 0.1, 0.8825, 0.1975, 0.98, 0.295, 1.08, 0.3925, 1.1775, 0.49, 1.275, 0.59, 1.3725, 0.6875, 0, 0.785, 0.1, 0.8825, 0.1975, 0.98, 0.295, 1.08, 0.3925, 1.1775, 0.49, 1.275, 0.59, 1.3725, 0.6875, 0, 0.785, 0.1, 0.8825, 0.1975, 0.98, 0.295, 1.08, 0.3925, 1.1775, 0.49, 1.275, 0.59, 1.3725, 0.6875, 0, 0.785, 0.1, 0.8825, 0.1975, 0.98, 0.295, 1.08, 0.3925, 1.1775, 0.49, 1.275, 0.59, 1.3725, 0.6875],
  "SoftwareVersions": "syngo_MR_E11",
  "SpacingBetweenSlices": 2,
  "StationName": "MRC35049",
  "TaskName": "friends",
  "TotalReadoutTime": 0.0576811,
  "TxRefAmp": 209.382,
  "WipMemBlock": "594e5612-e29d-47f0-8ed0-a1c19b371600||Sequence: R016 ve11c/master r/e634e98; Dec 19 2017 11:00:25 by eja",
  "dcmmeta_affine": [
    [-1.9991915225982666, 0.05549333244562149, -0.012397310696542263, 102.35926818847656],
    [0.05657989904284477, 1.898116111755371, -0.6276574730873108, -82.37008666992188],
    [0.005649634636938572, 0.6277545094490051, 1.898918628692627, -67.58411407470703],
    [0.0, 0.0, 0.0, 1.0]
],
  "dcmmeta_reorient_transform": [
    [0.0, -1.0, 0.0, 103.0],
    [1.0, 0.0, 0.0, 0.0],
    [0.0, 0.0, 1.0, 0.0],
    [0.0, 0.0, 0.0, 1.0]
],
  "dcmmeta_shape": [104, 104, 60, 476],
  "dcmmeta_slice_dim": 2,
  "dcmmeta_version": 0.6,
  "global": {
    "const": {
      "AcquisitionMatrix": [104, 0, 0, 104],
      "AngioFlag": "N",
      "BitsAllocated": 16,
      "BitsStored": 16,
      "BodyPartExamined": "BRAIN",
      "Columns": 832,
      "EchoNumbers": 1,
      "EchoTime": 37.0,
      "EchoTrainLength": 104,
      "FlipAngle": 52.0,
      "HighBit": 15,
      "ImageOrientationPatient": [0.99959576789068, -0.0282899491389, 0.00282481729659, 0.02774666614241, 0.94905805734535, -0.3138772471936],
      "ImagePositionPatient": [-855.98037522357, -783.45505212702, 223.52076510697],
      "ImageType": [
        "ORIGINAL",
        "PRIMARY",
        "M",
        "MB",
        "ND",
        "MOSAIC"
],
      "ImagedNucleus": "1H",
      "ImagingFrequency": 123.259195,
      "InPlanePhaseEncodingDirection": "COL",
      "MRAcquisitionType": "2D",
      "MagneticFieldStrength": 3.0,
      "Manufacturer": "SIEMENS",
      "ManufacturerModelName": "Prisma_fit",
      "Modality": "MR",
      "NumberOfAverages": 1.0,
      "NumberOfPhaseEncodingSteps": 104,
      "PercentPhaseFieldOfView": 100.0,
      "PercentSampling": 100.0,
      "PerformedProcedureStepStartTime": "103534.420000",
      "PhotometricInterpretation": "MONOCHROME2",
      "PixelBandwidth": 2290.0,
      "PixelRepresentation": 0,
      "PixelSpacing": [2.0, 2.0],
      "ProtocolName": "func_task-s01e08a",
      "RepetitionTime": 1490.0,
      "Rows": 832,
      "SAR": 0.03024982909004,
      "SamplesPerPixel": 1,
      "ScanOptions": "FS",
      "ScanningSequence": "EP",
      "SequenceName": "epfid2d1_104",
      "SequenceVariant": [
        "SK",
        "SS"
],
      "SeriesDescription": "func_task-s01e08a",
      "SeriesNumber": 12,
      "SeriesTime": "112000.901000",
      "SliceLocation": -38.952760479449,
      "SliceThickness": 2.0,
      "SmallestImagePixelValue": 0,
      "SoftwareVersions": "syngo MR E11",
      "SpacingBetweenSlices": 1.9999999311766,
      "SpecificCharacterSet": "ISO_IR 100",
      "StudyID": "1",
      "StudyTime": "103534.288000",
      "TransmitCoilName": "Body",
      "VariableFlipAngleFlag": "N",
      "WindowCenterWidthExplanation": "Algo1",
      "dBdt": 0.0},
    "slices": {}
  },
  "time": {
    "samples": {
      "AcquisitionNumber": [1, 2, 3, 4, 5, 6, 7, 8, 9, 10, 11, 12, 13, 14, 15, 16, 17, 18, 19, 20, 21, 22, 23, 24, 25, 26, 27, 28, 29, 30, 31, 32, 33, 34, 35, 36, 37, 38, 39, 40, 41, 42, 43, 44, 45, 46, 47, 48, 49, 50, 51, 52, 53, 54, 55, 56, 57, 58, 59, 60, 61, 62, 63, 64, 65, 66, 67, 68, 69, 70, 71, 72, 73, 74, 75, 76, 77, 78, 79, 80, 81, 82, 83, 84, 85, 86, 87, 88, 89, 90, 91, 92, 93, 94, 95, 96, 97, 98, 99, 100, 101, 102, 103, 104, 105, 106, 107, 108, 109, 110, 111, 112, 113, 114, 115, 116, 117, 118, 119, 120, 121, 122, 123, 124, 125, 126, 127, 128, 129, 130, 131, 132, 133, 134, 135, 136, 137, 138, 139, 140, 141, 142, 143, 144, 145, 146, 147, 148, 149, 150, 151, 152, 153, 154, 155, 156, 157, 158, 159, 160, 161, 162, 163, 164, 165, 166, 167, 168, 169, 170, 171, 172, 173, 174, 175, 176, 177, 178, 179, 180, 181, 182, 183, 184, 185, 186, 187, 188, 189, 190, 191, 192, 193, 194, 195, 196, 197, 198, 199, 200, 201, 202, 203, 204, 205, 206, 207, 208, 209, 210, 211, 212, 213, 214, 215, 216, 217, 218, 219, 220, 221, 222, 223, 224, 225, 226, 227, 228, 229, 230, 231, 232, 233, 234, 235, 236, 237, 238, 239, 240, 241, 242, 243, 244, 245, 246, 247, 248, 249, 250, 251, 252, 253, 254, 255, 256, 257, 258, 259, 260, 261, 262, 263, 264, 265, 266, 267, 268, 269, 270, 271, 272, 273, 274, 275, 276, 277, 278, 279, 280, 281, 282, 283, 284, 285, 286, 287, 288, 289, 290, 291, 292, 293, 294, 295, 296, 297, 298, 299, 300, 301, 302, 303, 304, 305, 306, 307, 308, 309, 310, 311, 312, 313, 314, 315, 316, 317, 318, 319, 320, 321, 322, 323, 324, 325, 326, 327, 328, 329, 330, 331, 332, 333, 334, 335, 336, 337, 338, 339, 340, 341, 342, 343, 344, 345, 346, 347, 348, 349, 350, 351, 352, 353, 354, 355, 356, 357, 358, 359, 360, 361, 362, 363, 364, 365, 366, 367, 368, 369, 370, 371, 372, 373, 374, 375, 376, 377, 378, 379, 380, 381, 382, 383, 384, 385, 386, 387, 388, 389, 390, 391, 392, 393, 394, 395, 396, 397, 398, 399, 400, 401, 402, 403, 404, 405, 406, 407, 408, 409, 410, 411, 412, 413, 414, 415, 416, 417, 418, 419, 420, 421, 422, 423, 424, 425, 426, 427, 428, 429, 430, 431, 432, 433, 434, 435, 436, 437, 438, 439, 440, 441, 442, 443, 444, 445, 446, 447, 448, 449, 450, 451, 452, 453, 454, 455, 456, 457, 458, 459, 460, 461, 462, 463, 464, 465, 466, 467, 468, 469, 470, 471, 472, 473, 474, 475, 476],
      "AcquisitionTime": ["111851.297500", "111852.787500", "111854.277500", "111855.767500", "111857.257500", "111858.747500", "111900.237500", "111901.727500", "111903.217500", "111904.707500", "111906.197500", "111907.687500", "111909.177500", "111910.667500", "111912.157500", "111913.647500", "111915.137500", "111916.627500", "111918.117500", "111919.607500", "111921.097500", "111922.587500", "111924.077500", "111925.567500", "111927.057500", "111928.547500", "111930.037500", "111931.527500", "111933.017500", "111934.507500", "111935.997500", "111937.487500", "111938.977500", "111940.467500", "111941.957500", "111943.447500", "111944.937500", "111946.427500", "111947.917500", "111949.407500", "111950.897500", "111952.387500", "111953.877500", "111955.367500", "111956.857500", "111958.347500", "111959.837500", "112001.327500", "112002.817500", "112004.307500", "112005.797500", "112007.287500", "112008.777500", "112010.267500", "112011.757500", "112013.247500", "112014.737500", "112016.227500", "112017.717500", "112019.207500", "112020.697500", "112022.187500", "112023.677500", "112025.167500", "112026.657500", "112028.147500", "112029.637500", "112031.127500", "112032.617500", "112034.107500", "112035.597500", "112037.087500", "112038.577500", "112040.067500", "112041.557500", "112043.047500", "112044.537500", "112046.027500", "112047.517500", "112049.007500", "112050.497500", "112051.987500", "112053.477500", "112054.967500", "112056.457500", "112057.947500", "112059.437500", "112100.927500", "112102.417500", "112103.907500", "112105.397500", "112106.887500", "112108.377500", "112109.867500", "112111.357500", "112112.847500", "112114.337500", "112115.827500", "112117.317500", "112118.807500", "112120.297500", "112121.787500", "112123.277500", "112124.767500", "112126.257500", "112127.747500", "112129.237500", "112130.727500", "112132.217500", "112133.707500", "112135.197500", "112136.687500", "112138.177500", "112139.667500", "112141.157500", "112142.647500", "112144.137500", "112145.627500", "112147.117500", "112148.607500", "112150.097500", "112151.587500", "112153.077500", "112154.567500", "112156.057500", "112157.547500", "112159.037500", "112200.527500", "112202.017500", "112203.507500", "112204.997500", "112206.487500", "112207.977500", "112209.467500", "112210.957500", "112212.447500", "112213.937500", "112215.427500", "112216.917500", "112218.407500", "112219.897500", "112221.387500", "112222.877500", "112224.367500", "112225.857500", "112227.347500", "112228.837500", "112230.327500", "112231.817500", "112233.307500", "112234.797500", "112236.287500", "112237.777500", "112239.267500", "112240.757500", "112242.247500", "112243.737500", "112245.227500", "112246.717500", "112248.207500", "112249.697500", "112251.187500", "112252.677500", "112254.167500", "112255.657500", "112257.147500", "112258.637500", "112300.127500", "112301.617500", "112303.107500", "112304.597500", "112306.087500", "112307.577500", "112309.067500", "112310.557500", "112312.047500", "112313.537500", "112315.027500", "112316.517500", "112318.007500", "112319.497500", "112320.987500", "112322.477500", "112323.967500", "112325.457500", "112326.947500", "112328.437500", "112329.927500", "112331.417500", "112332.907500", "112334.397500", "112335.887500", "112337.377500", "112338.867500", "112340.357500", "112341.847500", "112343.337500", "112344.827500", "112346.317500", "112347.807500", "112349.297500", "112350.787500", "112352.277500", "112353.767500", "112355.257500", "112356.747500", "112358.237500", "112359.727500", "112401.217500", "112402.707500", "112404.197500", "112405.687500", "112407.177500", "112408.667500", "112410.157500", "112411.647500", "112413.137500", "112414.627500", "112416.117500", "112417.607500", "112419.097500", "112420.587500", "112422.077500", "112423.567500", "112425.057500", "112426.547500", "112428.037500", "112429.527500", "112431.017500", "112432.507500", "112433.997500", "112435.487500", "112436.977500", "112438.467500", "112439.957500", "112441.447500", "112442.937500", "112444.427500", "112445.917500", "112447.407500", "112448.897500", "112450.387500", "112451.877500", "112453.367500", "112454.857500", "112456.347500", "112457.837500", "112459.327500", "112500.817500", "112502.307500", "112503.797500", "112505.287500", "112506.777500", "112508.267500", "112509.757500", "112511.247500", "112512.737500", "112514.227500", "112515.717500", "112517.207500", "112518.697500", "112520.187500", "112521.677500", "112523.167500", "112524.657500", "112526.147500", "112527.637500", "112529.127500", "112530.617500", "112532.107500", "112533.597500", "112535.087500", "112536.577500", "112538.067500", "112539.557500", "112541.047500", "112542.537500", "112544.027500", "112545.517500", "112547.007500", "112548.497500", "112549.987500", "112551.477500", "112552.967500", "112554.457500", "112555.947500", "112557.437500", "112558.927500", "112600.417500", "112601.907500", "112603.397500", "112604.887500", "112606.377500", "112607.867500", "112609.357500", "112610.847500", "112612.337500", "112613.827500", "112615.317500", "112616.807500", "112618.297500", "112619.787500", "112621.277500", "112622.767500", "112624.257500", "112625.747500", "112627.237500", "112628.727500", "112630.217500", "112631.707500", "112633.197500", "112634.687500", "112636.177500", "112637.667500", "112639.157500", "112640.647500", "112642.137500", "112643.627500", "112645.117500", "112646.607500", "112648.097500", "112649.587500", "112651.077500", "112652.567500", "112654.057500", "112655.547500", "112657.037500", "112658.527500", "112700.017500", "112701.507500", "112702.997500", "112704.487500", "112705.977500", "112707.467500", "112708.957500", "112710.447500", "112711.937500", "112713.427500", "112714.917500", "112716.407500", "112717.897500", "112719.387500", "112720.877500", "112722.367500", "112723.857500", "112725.347500", "112726.837500", "112728.327500", "112729.817500", "112731.307500", "112732.797500", "112734.287500", "112735.777500", "112737.267500", "112738.757500", "112740.247500", "112741.737500", "112743.227500", "112744.717500", "112746.207500", "112747.697500", "112749.187500", "112750.677500", "112752.167500", "112753.657500", "112755.147500", "112756.637500", "112758.127500", "112759.617500", "112801.107500", "112802.597500", "112804.087500", "112805.577500", "112807.067500", "112808.557500", "112810.047500", "112811.537500", "112813.027500", "112814.517500", "112816.007500", "112817.497500", "112818.987500", "112820.477500", "112821.967500", "112823.457500", "112824.947500", "112826.437500", "112827.927500", "112829.417500", "112830.907500", "112832.397500", "112833.887500", "112835.377500", "112836.867500", "112838.357500", "112839.847500", "112841.337500", "112842.827500", "112844.317500", "112845.807500", "112847.297500", "112848.787500", "112850.277500", "112851.767500", "112853.257500", "112854.747500", "112856.237500", "112857.727500", "112859.217500", "112900.707500", "112902.197500", "112903.687500", "112905.177500", "112906.667500", "112908.157500", "112909.647500", "112911.137500", "112912.627500", "112914.117500", "112915.607500", "112917.097500", "112918.587500", "112920.077500", "112921.567500", "112923.057500", "112924.547500", "112926.037500", "112927.527500", "112929.017500", "112930.507500", "112931.997500", "112933.487500", "112934.977500", "112936.467500", "112937.957500", "112939.447500", "112940.937500", "112942.427500", "112943.917500", "112945.407500", "112946.897500", "112948.387500", "112949.877500", "112951.367500", "112952.857500", "112954.347500", "112955.837500", "112957.327500", "112958.817500", "113000.307500", "113001.797500", "113003.287500", "113004.777500", "113006.267500", "113007.757500", "113009.247500", "113010.737500", "113012.227500", "113013.717500", "113015.207500", "113016.697500", "113018.187500", "113019.677500", "113021.167500", "113022.657500", "113024.147500", "113025.637500", "113027.127500", "113028.617500", "113030.107500", "113031.597500", "113033.087500", "113034.577500", "113036.067500", "113037.557500", "113039.047500"],
      "ContentTime": ["112000.904000", "112000.908000", "112000.910000", "112000.921000", "112000.924000", "112000.933000", "112000.936000", "112000.939000", "112000.942000", "112000.946000", "112000.949000", "112000.952000", "112000.955000", "112000.958000", "112000.961000", "112020.863000", "112020.866000", "112020.869000", "112020.872000", "112020.875000", "112020.877000", "112020.880000", "112020.883000", "112020.889000", "112020.892000", "112020.895000", "112020.898000", "112020.901000", "112020.903000", "112020.906000", "112020.909000", "112020.912000", "112020.915000", "112020.918000", "112020.921000", "112040.864000", "112040.867000", "112040.871000", "112040.874000", "112040.883000", "112040.886000", "112040.889000", "112040.892000", "112040.895000", "112040.898000", "112040.901000", "112040.904000", "112040.907000", "112040.910000", "112040.913000", "112040.915000", "112040.932000", "112040.936000", "112040.938000", "112040.941000", "112100.864000", "112100.867000", "112100.870000", "112100.873000", "112100.876000", "112100.890000", "112100.892000", "112100.895000", "112100.898000", "112100.901000", "112100.904000", "112100.907000", "112100.910000", "112100.913000", "112100.915000", "112100.918000", "112100.921000", "112100.924000", "112100.927000", "112100.930000", "112120.864000", "112120.867000", "112120.870000", "112120.873000", "112120.876000", "112120.878000", "112120.881000", "112120.884000", "112120.887000", "112120.890000", "112120.893000", "112120.896000", "112120.899000", "112120.903000", "112120.906000", "112120.909000", "112120.912000", "112120.915000", "112120.918000", "112120.921000", "112200.864000", "112200.867000", "112200.870000", "112200.873000", "112200.876000", "112200.879000", "112200.882000", "112200.884000", "112200.887000", "112200.890000", "112200.893000", "112200.896000", "112200.899000", "112200.902000", "112200.905000", "112200.908000", "112200.910000", "112200.913000", "112200.916000", "112200.919000", "112200.922000", "112200.925000", "112200.928000", "112200.931000", "112200.934000", "112200.937000", "112200.939000", "112200.942000", "112200.945000", "112200.948000", "112200.951000", "112240.863000", "112240.866000", "112240.869000", "112240.872000", "112240.875000", "112240.878000", "112240.880000", "112240.883000", "112240.886000", "112240.889000", "112240.892000", "112240.895000", "112240.898000", "112240.901000", "112240.904000", "112240.907000", "112240.909000", "112240.912000", "112240.915000", "112240.918000", "112240.921000", "112240.924000", "112240.927000", "112240.930000", "112240.933000", "112240.935000", "112240.938000", "112320.864000", "112320.867000", "112320.870000", "112320.873000", "112320.876000", "112320.879000", "112320.882000", "112320.885000", "112320.887000", "112320.890000", "112320.898000", "112320.901000", "112320.904000", "112320.906000", "112320.910000", "112320.912000", "112320.915000", "112320.918000", "112320.921000", "112320.924000", "112320.927000", "112320.930000", "112320.933000", "112320.936000", "112320.939000", "112320.942000", "112320.945000", "112400.864000", "112400.867000", "112400.870000", "112400.873000", "112400.876000", "112400.879000", "112400.882000", "112400.885000", "112400.887000", "112400.890000", "112400.893000", "112400.896000", "112400.899000", "112400.902000", "112400.905000", "112400.908000", "112400.911000", "112400.914000", "112400.917000", "112400.919000", "112400.922000", "112400.925000", "112400.928000", "112400.931000", "112400.934000", "112400.937000", "112400.940000", "112440.864000", "112440.867000", "112440.870000", "112440.873000", "112440.876000", "112440.879000", "112440.882000", "112440.885000", "112440.888000", "112440.890000", "112440.893000", "112440.896000", "112440.899000", "112440.902000", "112440.905000", "112440.908000", "112440.911000", "112440.913000", "112440.916000", "112440.919000", "112440.922000", "112440.925000", "112440.928000", "112440.931000", "112440.934000", "112440.937000", "112440.939000", "112520.864000", "112520.868000", "112520.870000", "112520.873000", "112520.876000", "112520.879000", "112520.882000", "112520.885000", "112520.888000", "112520.891000", "112520.894000", "112520.897000", "112520.899000", "112520.914000", "112520.917000", "112520.920000", "112520.923000", "112520.926000", "112520.929000", "112520.932000", "112520.934000", "112520.937000", "112520.940000", "112520.943000", "112520.946000", "112520.949000", "112600.864000", "112600.867000", "112600.870000", "112600.873000", "112600.876000", "112600.879000", "112600.881000", "112600.884000", "112600.887000", "112600.890000", "112600.893000", "112600.896000", "112600.899000", "112600.902000", "112600.905000", "112600.908000", "112600.911000", "112600.913000", "112600.916000", "112600.919000", "112600.922000", "112600.925000", "112600.928000", "112600.931000", "112600.934000", "112600.936000", "112600.939000", "112640.864000", "112640.867000", "112640.870000", "112640.873000", "112640.876000", "112640.879000", "112640.881000", "112640.885000", "112640.888000", "112640.891000", "112640.894000", "112640.896000", "112640.899000", "112640.902000", "112640.905000", "112640.908000", "112640.911000", "112640.914000", "112640.917000", "112640.920000", "112640.923000", "112640.926000", "112640.928000", "112640.931000", "112640.934000", "112640.937000", "112640.940000", "112720.863000", "112720.866000", "112720.869000", "112720.872000", "112720.875000", "112720.878000", "112720.881000", "112720.884000", "112720.887000", "112720.890000", "112720.892000", "112720.895000", "112720.898000", "112720.901000", "112720.904000", "112720.907000", "112720.910000", "112720.913000", "112720.916000", "112720.919000", "112720.921000", "112720.924000", "112720.927000", "112720.931000", "112720.934000", "112720.937000", "112720.940000", "112800.864000", "112800.867000", "112800.870000", "112800.873000", "112800.876000", "112800.879000", "112800.881000", "112800.884000", "112800.887000", "112800.890000", "112800.893000", "112800.896000", "112800.899000", "112800.902000", "112800.905000", "112800.908000", "112800.910000", "112800.913000", "112800.916000", "112800.919000", "112800.922000", "112800.925000", "112800.928000", "112800.931000", "112800.934000", "112800.937000", "112800.940000", "112840.864000", "112840.867000", "112840.870000", "112840.873000", "112840.876000", "112840.879000", "112840.882000", "112840.884000", "112840.887000", "112840.890000", "112840.893000", "112840.896000", "112840.899000", "112840.902000", "112840.905000", "112840.908000", "112840.911000", "112840.914000", "112840.917000", "112840.920000", "112840.922000", "112840.925000", "112840.928000", "112840.931000", "112840.934000", "112840.937000", "112840.940000", "112920.864000", "112920.868000", "112920.871000", "112920.874000", "112920.877000", "112920.880000", "112920.882000", "112920.885000", "112920.888000", "112920.891000", "112920.894000", "112920.897000", "112920.900000", "112920.903000", "112920.906000", "112920.909000", "112920.912000", "112920.915000", "112920.917000", "112920.920000", "112920.923000", "112920.926000", "112920.929000", "112920.932000", "112920.935000", "112920.938000", "113000.864000", "113000.867000", "113000.870000", "113000.873000", "113000.876000", "113000.879000", "113000.882000", "113000.885000", "113000.888000", "113000.891000", "113000.894000", "113000.897000", "113000.899000", "113000.902000", "113000.905000", "113000.908000", "113000.911000", "113000.914000", "113000.917000", "113000.920000", "113000.923000", "113000.926000", "113000.929000", "113000.932000", "113000.935000", "113000.938000", "113000.941000", "113040.864000", "113040.867000", "113040.870000", "113040.873000", "113040.876000", "113040.879000", "113040.882000", "113040.885000", "113040.888000", "113040.890000", "113040.893000", "113040.896000", "113040.899000", "113040.902000", "113040.905000", "113040.908000", "113040.911000", "113040.914000", "113040.917000", "113040.920000", "113040.922000", "113040.925000", "113040.928000", "113040.931000", "113040.934000", "113040.937000", "113040.940000", "113041.387000"],
