{
  "AcquisitionMatrixPE": 104,
  "AcquisitionNumber": 1,
  "AcquisitionTime": "13:28:26.637500",
  "BandwidthPerPixelPhaseEncode": 17.17,
  "BaseResolution": 104,
  "BodyPartExamined": "BRAIN",
  "CoilString": "HC1-7;NC1_2",
  "ConsistencyInfo": "N4_VE11C_LATEST_20160120",
  "ConversionSoftware": "dcm2niix",
  "ConversionSoftwareVersion": "v1.0.20190902",
  "DerivedVendorReportedEchoSpacing": 0.000560011,
  "DeviceSerialNumber": "167006",
  "DwellTime": 2.1e-06,
  "EchoTime": 0.037,
  "EchoTrainLength": 104,
  "EffectiveEchoSpacing": 0.000560011,
  "FlipAngle": 52,
  "ImageComments": "Unaliased_MB4_PE3_LB",
  "ImageOrientationPatientDICOM": [0.999924, 0.00933903, -0.00800821, -0.0111698, 0.962001, -0.272819],
  "ImageType": [
    "ORIGINAL",
    "PRIMARY",
    "M",
    "MB",
    "ND",
    "MOSAIC"
],
  "ImagingFrequency": 123.259,
  "InPlanePhaseEncodingDirectionDICOM": "COL",
  "InstitutionAddress": "Chemin_Queen-Mary_4565_Montreal_District_CA_H3W_1W5",
  "InstitutionName": "IUGM",
  "InstitutionalDepartmentName": "Department",
  "MRAcquisitionType": "2D",
  "MagneticFieldStrength": 3,
  "Manufacturer": "Siemens",
  "ManufacturersModelName": "Prisma_fit",
  "Modality": "MR",
  "MultibandAccelerationFactor": 4,
  "PartialFourier": 1,
  "PatientPosition": "HFS",
  "PercentPhaseFOV": 100,
  "PhaseEncodingDirection": "j",
  "PhaseEncodingSteps": 104,
  "PhaseResolution": 1,
  "PixelBandwidth": 2290,
  "ProcedureStepDescription": "video_friends",
  "ProtocolName": "func_task-friends-s03e21b",
  "PulseSequenceDetails": "%CustomerSeq%_cmrr_mbep2d_bold",
  "ReceiveCoilActiveElements": "HC1-7;NC1,2",
  "ReceiveCoilName": "HeadNeck_64",
  "ReconMatrixPE": 104,
  "RepetitionTime": 1.49,
  "SAR": 0.0289768,
  "ScanOptions": "FS",
  "ScanningSequence": "EP",
  "SequenceName": "epfid2d1_104",
  "SequenceVariant": "SK_SS",
  "SeriesDescription": "func_task-friends-s03e21b",
  "SeriesNumber": 11,
  "ShimSetting": [630, -7219, -8809, 732, 43, -36, 86, 8],
  "SliceThickness": 2,
  "SliceTiming": [0, 0.785, 0.0975, 0.8825, 0.195, 0.98, 0.295, 1.0775, 0.3925, 1.175, 0.49, 1.275, 0.5875, 1.3725, 0.685, 0, 0.785, 0.0975, 0.8825, 0.195, 0.98, 0.295, 1.0775, 0.3925, 1.175, 0.49, 1.275, 0.5875, 1.3725, 0.685, 0, 0.785, 0.0975, 0.8825, 0.195, 0.98, 0.295, 1.0775, 0.3925, 1.175, 0.49, 1.275, 0.5875, 1.3725, 0.685, 0, 0.785, 0.0975, 0.8825, 0.195, 0.98, 0.295, 1.0775, 0.3925, 1.175, 0.49, 1.275, 0.5875, 1.3725, 0.685],
  "SoftwareVersions": "syngo_MR_E11",
  "SpacingBetweenSlices": 2,
  "StationName": "MRC35049",
  "TaskName": "s03e21b",
  "TotalReadoutTime": 0.0576811,
  "TxRefAmp": 206.907,
  "WipMemBlock": "88861973-d5fc-4784-a34c-c43c90afe2af||Sequence: R016 ve11c/master r/e634e98; Dec 19 2017 11:00:25 by eja",
  "dcmmeta_affine": [
    [-1.9998486042022705, -0.02233956940472126, -0.01031208410859108, 106.61224365234375],
    [-0.018678050488233566, 1.9240010976791382, -0.5457753539085388, -81.5303955078125],
    [-0.01601642370223999, 0.5456377863883972, 1.9240641593933105, -65.46869659423828],
    [0.0, 0.0, 0.0, 1.0]
],
  "dcmmeta_reorient_transform": [
    [0.0, -1.0, 0.0, 103.0],
    [1.0, 0.0, 0.0, 0.0],
    [0.0, 0.0, 1.0, 0.0],
    [0.0, 0.0, 0.0, 1.0]
],
  "dcmmeta_shape": [104, 104, 60, 460],
  "dcmmeta_slice_dim": 2,
  "dcmmeta_version": 0.6,
  "global": {
    "const": {
      "AcquisitionMatrix": [104, 0, 0, 104],
      "AngioFlag": "N",
      "BitsAllocated": 16,
      "BitsStored": 16,
      "BodyPartExamined": "BRAIN",
      "Columns": 832,
      "EchoNumbers": 1,
      "EchoTime": 37.0,
      "EchoTrainLength": 104,
      "FlipAngle": 52.0,
      "HighBit": 15,
      "ImageOrientationPatient": [0.99992432270742, 0.00933902539984, -0.0080082122033, -0.0111697845691, 0.96200056692116, -0.2728188870955],
      "ImagePositionPatient": [-824.12457099531, -823.77694395591, 195.174124705],
      "ImageType": [
        "ORIGINAL",
        "PRIMARY",
        "M",
        "MB",
        "ND",
        "MOSAIC"
],
      "ImagedNucleus": "1H",
      "ImagingFrequency": 123.259421,
      "InPlanePhaseEncodingDirection": "COL",
      "MRAcquisitionType": "2D",
      "MagneticFieldStrength": 3.0,
      "Manufacturer": "SIEMENS",
      "ManufacturerModelName": "Prisma_fit",
      "Modality": "MR",
      "NumberOfAverages": 1.0,
      "NumberOfPhaseEncodingSteps": 104,
      "PercentPhaseFieldOfView": 100.0,
      "PercentSampling": 100.0,
      "PerformedProcedureStepStartTime": "125926.166000",
      "PhotometricInterpretation": "MONOCHROME2",
      "PixelBandwidth": 2290.0,
      "PixelRepresentation": 0,
      "PixelSpacing": [2.0, 2.0],
      "ProtocolName": "func_task-friends-s03e21b",
      "RepetitionTime": 1490.0,
      "Rows": 832,
      "SAR": 0.02897681786158,
      "SamplesPerPixel": 1,
      "ScanOptions": "FS",
      "ScanningSequence": "EP",
      "SequenceName": "epfid2d1_104",
      "SequenceVariant": [
        "SK",
        "SS"
],
      "SeriesDescription": "func_task-friends-s03e21b",
      "SeriesNumber": 11,
      "SeriesTime": "132956.903000",
      "SliceLocation": -41.284039897657,
      "SliceThickness": 2.0,
      "SmallestImagePixelValue": 0,
      "SoftwareVersions": "syngo MR E11",
      "SpacingBetweenSlices": 1.9999999599381,
      "SpecificCharacterSet": "ISO_IR 100",
      "StudyID": "2",
      "StudyTime": "125926.116000",
      "TransmitCoilName": "Body",
      "VariableFlipAngleFlag": "N",
      "WindowCenterWidthExplanation": "Algo1",
      "dBdt": 0.0},
    "slices": {}
  },
  "time": {
    "samples": {
      "AcquisitionNumber": [1, 2, 3, 4, 5, 6, 7, 8, 9, 10, 11, 12, 13, 14, 15, 16, 17, 18, 19, 20, 21, 22, 23, 24, 25, 26, 27, 28, 29, 30, 31, 32, 33, 34, 35, 36, 37, 38, 39, 40, 41, 42, 43, 44, 45, 46, 47, 48, 49, 50, 51, 52, 53, 54, 55, 56, 57, 58, 59, 60, 61, 62, 63, 64, 65, 66, 67, 68, 69, 70, 71, 72, 73, 74, 75, 76, 77, 78, 79, 80, 81, 82, 83, 84, 85, 86, 87, 88, 89, 90, 91, 92, 93, 94, 95, 96, 97, 98, 99, 100, 101, 102, 103, 104, 105, 106, 107, 108, 109, 110, 111, 112, 113, 114, 115, 116, 117, 118, 119, 120, 121, 122, 123, 124, 125, 126, 127, 128, 129, 130, 131, 132, 133, 134, 135, 136, 137, 138, 139, 140, 141, 142, 143, 144, 145, 146, 147, 148, 149, 150, 151, 152, 153, 154, 155, 156, 157, 158, 159, 160, 161, 162, 163, 164, 165, 166, 167, 168, 169, 170, 171, 172, 173, 174, 175, 176, 177, 178, 179, 180, 181, 182, 183, 184, 185, 186, 187, 188, 189, 190, 191, 192, 193, 194, 195, 196, 197, 198, 199, 200, 201, 202, 203, 204, 205, 206, 207, 208, 209, 210, 211, 212, 213, 214, 215, 216, 217, 218, 219, 220, 221, 222, 223, 224, 225, 226, 227, 228, 229, 230, 231, 232, 233, 234, 235, 236, 237, 238, 239, 240, 241, 242, 243, 244, 245, 246, 247, 248, 249, 250, 251, 252, 253, 254, 255, 256, 257, 258, 259, 260, 261, 262, 263, 264, 265, 266, 267, 268, 269, 270, 271, 272, 273, 274, 275, 276, 277, 278, 279, 280, 281, 282, 283, 284, 285, 286, 287, 288, 289, 290, 291, 292, 293, 294, 295, 296, 297, 298, 299, 300, 301, 302, 303, 304, 305, 306, 307, 308, 309, 310, 311, 312, 313, 314, 315, 316, 317, 318, 319, 320, 321, 322, 323, 324, 325, 326, 327, 328, 329, 330, 331, 332, 333, 334, 335, 336, 337, 338, 339, 340, 341, 342, 343, 344, 345, 346, 347, 348, 349, 350, 351, 352, 353, 354, 355, 356, 357, 358, 359, 360, 361, 362, 363, 364, 365, 366, 367, 368, 369, 370, 371, 372, 373, 374, 375, 376, 377, 378, 379, 380, 381, 382, 383, 384, 385, 386, 387, 388, 389, 390, 391, 392, 393, 394, 395, 396, 397, 398, 399, 400, 401, 402, 403, 404, 405, 406, 407, 408, 409, 410, 411, 412, 413, 414, 415, 416, 417, 418, 419, 420, 421, 422, 423, 424, 425, 426, 427, 428, 429, 430, 431, 432, 433, 434, 435, 436, 437, 438, 439, 440, 441, 442, 443, 444, 445, 446, 447, 448, 449, 450, 451, 452, 453, 454, 455, 456, 457, 458, 459, 460],
      "AcquisitionTime": ["132826.637500", "132828.127500", "132829.617500", "132831.107500", "132832.597500", "132834.087500", "132835.577500", "132837.067500", "132838.557500", "132840.047500", "132841.537500", "132843.027500", "132844.517500", "132846.007500", "132847.497500", "132848.987500", "132850.477500", "132851.967500", "132853.457500", "132854.947500", "132856.437500", "132857.927500", "132859.417500", "132900.907500", "132902.397500", "132903.887500", "132905.377500", "132906.867500", "132908.357500", "132909.847500", "132911.337500", "132912.827500", "132914.317500", "132915.807500", "132917.297500", "132918.787500", "132920.277500", "132921.767500", "132923.257500", "132924.747500", "132926.237500", "132927.727500", "132929.217500", "132930.707500", "132932.197500", "132933.687500", "132935.177500", "132936.667500", "132938.157500", "132939.647500", "132941.137500", "132942.627500", "132944.117500", "132945.607500", "132947.097500", "132948.587500", "132950.077500", "132951.567500", "132953.057500", "132954.547500", "132956.037500", "132957.527500", "132959.017500", "133000.507500", "133001.997500", "133003.487500", "133004.977500", "133006.467500", "133007.957500", "133009.447500", "133010.937500", "133012.427500", "133013.917500", "133015.407500", "133016.897500", "133018.387500", "133019.877500", "133021.367500", "133022.857500", "133024.347500", "133025.837500", "133027.327500", "133028.817500", "133030.307500", "133031.797500", "133033.287500", "133034.777500", "133036.267500", "133037.757500", "133039.247500", "133040.737500", "133042.227500", "133043.717500", "133045.207500", "133046.697500", "133048.187500", "133049.677500", "133051.167500", "133052.657500", "133054.147500", "133055.637500", "133057.127500", "133058.617500", "133100.107500", "133101.597500", "133103.087500", "133104.577500", "133106.067500", "133107.557500", "133109.047500", "133110.537500", "133112.027500", "133113.517500", "133115.007500", "133116.497500", "133117.987500", "133119.477500", "133120.967500", "133122.457500", "133123.947500", "133125.437500", "133126.927500", "133128.417500", "133129.907500", "133131.397500", "133132.887500", "133134.377500", "133135.867500", "133137.357500", "133138.847500", "133140.337500", "133141.827500", "133143.317500", "133144.807500", "133146.297500", "133147.787500", "133149.277500", "133150.767500", "133152.257500", "133153.747500", "133155.237500", "133156.727500", "133158.217500", "133159.707500", "133201.197500", "133202.687500", "133204.177500", "133205.667500", "133207.157500", "133208.647500", "133210.137500", "133211.627500", "133213.117500", "133214.607500", "133216.097500", "133217.587500", "133219.077500", "133220.567500", "133222.057500", "133223.547500", "133225.037500", "133226.527500", "133228.017500", "133229.507500", "133230.997500", "133232.487500", "133233.977500", "133235.467500", "133236.957500", "133238.447500", "133239.937500", "133241.427500", "133242.917500", "133244.407500", "133245.897500", "133247.387500", "133248.877500", "133250.367500", "133251.857500", "133253.347500", "133254.837500", "133256.327500", "133257.817500", "133259.307500", "133300.797500", "133302.287500", "133303.777500", "133305.267500", "133306.757500", "133308.247500", "133309.737500", "133311.227500", "133312.717500", "133314.207500", "133315.697500", "133317.187500", "133318.677500", "133320.167500", "133321.657500", "133323.147500", "133324.637500", "133326.127500", "133327.617500", "133329.107500", "133330.597500", "133332.087500", "133333.577500", "133335.067500", "133336.557500", "133338.047500", "133339.537500", "133341.027500", "133342.517500", "133344.007500", "133345.497500", "133346.987500", "133348.477500", "133349.967500", "133351.457500", "133352.947500", "133354.437500", "133355.927500", "133357.417500", "133358.907500", "133400.397500", "133401.887500", "133403.377500", "133404.867500", "133406.357500", "133407.847500", "133409.337500", "133410.827500", "133412.317500", "133413.807500", "133415.297500", "133416.787500", "133418.277500", "133419.767500", "133421.257500", "133422.747500", "133424.237500", "133425.727500", "133427.217500", "133428.707500", "133430.197500", "133431.687500", "133433.177500", "133434.667500", "133436.157500", "133437.647500", "133439.137500", "133440.627500", "133442.117500", "133443.607500", "133445.097500", "133446.587500", "133448.077500", "133449.567500", "133451.057500", "133452.547500", "133454.037500", "133455.527500", "133457.017500", "133458.507500", "133459.997500", "133501.487500", "133502.977500", "133504.467500", "133505.957500", "133507.447500", "133508.937500", "133510.427500", "133511.917500", "133513.407500", "133514.897500", "133516.387500", "133517.877500", "133519.367500", "133520.857500", "133522.347500", "133523.837500", "133525.327500", "133526.817500", "133528.307500", "133529.797500", "133531.287500", "133532.777500", "133534.267500", "133535.757500", "133537.247500", "133538.737500", "133540.227500", "133541.717500", "133543.207500", "133544.697500", "133546.187500", "133547.677500", "133549.167500", "133550.657500", "133552.147500", "133553.637500", "133555.127500", "133556.617500", "133558.107500", "133559.597500", "133601.087500", "133602.577500", "133604.067500", "133605.557500", "133607.047500", "133608.537500", "133610.027500", "133611.517500", "133613.007500", "133614.497500", "133615.987500", "133617.477500", "133618.967500", "133620.457500", "133621.947500", "133623.437500", "133624.927500", "133626.417500", "133627.907500", "133629.397500", "133630.887500", "133632.377500", "133633.867500", "133635.357500", "133636.847500", "133638.337500", "133639.827500", "133641.317500", "133642.807500", "133644.297500", "133645.787500", "133647.277500", "133648.767500", "133650.257500", "133651.747500", "133653.237500", "133654.727500", "133656.217500", "133657.707500", "133659.197500", "133700.687500", "133702.177500", "133703.667500", "133705.157500", "133706.647500", "133708.137500", "133709.627500", "133711.117500", "133712.607500", "133714.097500", "133715.587500", "133717.077500", "133718.567500", "133720.057500", "133721.547500", "133723.037500", "133724.527500", "133726.017500", "133727.507500", "133728.997500", "133730.487500", "133731.977500", "133733.467500", "133734.957500", "133736.447500", "133737.937500", "133739.427500", "133740.917500", "133742.407500", "133743.897500", "133745.387500", "133746.877500", "133748.367500", "133749.857500", "133751.347500", "133752.837500", "133754.327500", "133755.817500", "133757.307500", "133758.797500", "133800.287500", "133801.777500", "133803.267500", "133804.757500", "133806.247500", "133807.737500", "133809.227500", "133810.717500", "133812.207500", "133813.697500", "133815.187500", "133816.677500", "133818.167500", "133819.657500", "133821.147500", "133822.637500", "133824.127500", "133825.617500", "133827.107500", "133828.597500", "133830.087500", "133831.577500", "133833.067500", "133834.557500", "133836.047500", "133837.537500", "133839.027500", "133840.517500", "133842.007500", "133843.497500", "133844.987500", "133846.477500", "133847.967500", "133849.457500", "133850.947500", "133852.437500", "133853.927500", "133855.417500", "133856.907500", "133858.397500", "133859.887500", "133901.377500", "133902.867500", "133904.357500", "133905.847500", "133907.337500", "133908.827500", "133910.317500", "133911.807500", "133913.297500", "133914.787500", "133916.277500", "133917.767500", "133919.257500", "133920.747500", "133922.237500", "133923.727500", "133925.217500", "133926.707500", "133928.197500", "133929.687500", "133931.177500", "133932.667500", "133934.157500", "133935.647500", "133937.137500", "133938.627500", "133940.117500", "133941.607500", "133943.097500", "133944.587500", "133946.077500", "133947.567500", "133949.057500", "133950.547500"],
      "ContentTime": ["132956.906000", "132956.909000", "132956.913000", "132956.915000", "132956.918000", "132956.921000", "132956.924000", "132956.927000", "132956.930000", "132956.932000", "132956.935000", "132956.938000", "132956.941000", "132956.944000", "132956.947000", "132956.959000", "132956.962000", "132956.965000", "132956.967000", "132956.970000", "132956.973000", "132956.976000", "132956.979000", "132956.982000", "132956.984000", "132956.987000", "132956.990000", "132956.993000", "132956.996000", "132956.998000", "132957.002000", "132957.005000", "132957.008000", "132957.011000", "132957.016000", "132957.019000", "133016.875000", "133016.878000", "133016.886000", "133016.889000", "133016.892000", "133016.895000", "133016.898000", "133016.900000", "133016.903000", "133016.906000", "133016.909000", "133016.912000", "133016.915000", "133016.918000", "133016.920000", "133016.923000", "133016.926000", "133016.929000", "133016.932000", "133016.935000", "133036.875000", "133036.878000", "133036.881000", "133036.884000", "133036.886000", "133036.889000", "133036.892000", "133036.895000", "133036.898000", "133036.901000", "133036.904000", "133036.906000", "133036.909000", "133036.912000", "133036.915000", "133036.918000", "133036.921000", "133036.924000", "133036.927000", "133036.929000", "133056.875000", "133056.878000", "133056.881000", "133056.884000", "133056.886000", "133056.889000", "133056.892000", "133056.895000", "133056.898000", "133056.901000", "133056.903000", "133056.906000", "133056.909000", "133056.912000", "133056.915000", "133056.918000", "133056.921000", "133056.925000", "133056.928000", "133056.931000", "133136.875000", "133136.878000", "133136.881000", "133136.884000", "133136.886000", "133136.889000", "133136.892000", "133136.895000", "133136.898000", "133136.901000", "133136.904000", "133136.907000", "133136.910000", "133136.913000", "133136.915000", "133136.918000", "133136.921000", "133136.924000", "133136.927000", "133136.930000", "133136.932000", "133136.935000", "133136.938000", "133136.941000", "133136.944000", "133136.947000", "133136.950000", "133136.952000", "133136.955000", "133136.958000", "133216.875000", "133216.878000", "133216.881000", "133216.884000", "133216.886000", "133216.889000", "133216.892000", "133216.905000", "133216.908000", "133216.911000", "133216.913000", "133216.916000", "133216.919000", "133216.922000", "133216.925000", "133216.928000", "133216.931000", "133216.934000", "133216.936000", "133216.939000", "133216.942000", "133216.945000", "133216.948000", "133216.951000", "133216.953000", "133216.956000", "133216.959000", "133256.875000", "133256.878000", "133256.881000", "133256.884000", "133256.887000", "133256.889000", "133256.892000", "133256.895000", "133256.898000", "133256.901000", "133256.904000", "133256.906000", "133256.909000", "133256.912000", "133256.915000", "133256.918000", "133256.921000", "133256.924000", "133256.926000", "133256.929000", "133256.944000", "133256.946000", "133256.949000", "133256.952000", "133256.955000", "133256.958000", "133256.961000", "133336.875000", "133336.878000", "133336.881000", "133336.884000", "133336.886000", "133336.889000", "133336.892000", "133336.895000", "133336.898000", "133336.901000", "133336.904000", "133336.907000", "133336.910000", "133336.912000", "133336.915000", "133336.918000", "133336.921000", "133336.924000", "133336.927000", "133336.930000", "133336.932000", "133336.935000", "133336.938000", "133336.941000", "133336.944000", "133336.947000", "133336.949000", "133416.875000", "133416.878000", "133416.881000", "133416.884000", "133416.887000", "133416.889000", "133416.893000", "133416.895000", "133416.898000", "133416.901000", "133416.904000", "133416.907000", "133416.910000", "133416.912000", "133416.915000", "133416.918000", "133416.921000", "133416.924000", "133416.927000", "133416.930000", "133416.932000", "133416.935000", "133416.938000", "133416.941000", "133416.944000", "133416.947000", "133416.950000", "133456.875000", "133456.878000", "133456.881000", "133456.884000", "133456.887000", "133456.890000", "133456.892000", "133456.895000", "133456.898000", "133456.901000", "133456.904000", "133456.907000", "133456.910000", "133456.913000", "133456.915000", "133456.918000", "133456.921000", "133456.924000", "133456.927000", "133456.930000", "133456.933000", "133456.938000", "133456.941000", "133456.944000", "133456.947000", "133456.950000", "133456.952000", "133536.875000", "133536.878000", "133536.881000", "133536.884000", "133536.887000", "133536.890000", "133536.893000", "133536.896000", "133536.899000", "133536.901000", "133536.904000", "133536.907000", "133536.910000", "133536.913000", "133536.916000", "133536.918000", "133536.921000", "133536.924000", "133536.927000", "133536.930000", "133536.933000", "133536.936000", "133536.938000", "133536.941000", "133536.944000", "133536.947000", "133536.950000", "133616.875000", "133616.878000", "133616.881000", "133616.884000", "133616.887000", "133616.890000", "133616.893000", "133616.895000", "133616.898000", "133616.901000", "133616.904000", "133616.907000", "133616.910000", "133616.913000", "133616.915000", "133616.918000", "133616.921000", "133616.924000", "133616.927000", "133616.930000", "133616.933000", "133616.935000", "133616.938000", "133616.941000", "133616.944000", "133616.947000", "133656.875000", "133656.878000", "133656.881000", "133656.884000", "133656.886000", "133656.889000", "133656.892000", "133656.895000", "133656.910000", "133656.913000", "133656.915000", "133656.918000", "133656.921000", "133656.924000", "133656.927000", "133656.930000", "133656.932000", "133656.935000", "133656.938000", "133656.941000", "133656.944000", "133656.962000", "133656.965000", "133656.968000", "133656.971000", "133656.974000", "133656.977000", "133736.875000", "133736.878000", "133736.881000", "133736.883000", "133736.886000", "133736.889000", "133736.892000", "133736.895000", "133736.898000", "133736.901000", "133736.904000", "133736.906000", "133736.909000", "133736.912000", "133736.915000", "133736.918000", "133736.921000", "133736.924000", "133736.927000", "133736.929000", "133736.932000", "133736.935000", "133736.938000", "133736.941000", "133736.944000", "133736.947000", "133736.949000", "133816.875000", "133816.878000", "133816.881000", "133816.884000", "133816.886000", "133816.889000", "133816.892000", "133816.895000", "133816.898000", "133816.901000", "133816.904000", "133816.907000", "133816.910000", "133816.912000", "133816.915000", "133816.918000", "133816.921000", "133816.924000", "133816.927000", "133816.930000", "133816.933000", "133816.935000", "133816.938000", "133816.941000", "133816.944000", "133816.947000", "133816.950000", "133856.875000", "133856.878000", "133856.881000", "133856.884000", "133856.887000", "133856.889000", "133856.892000", "133856.895000", "133856.898000", "133856.901000", "133856.904000", "133856.907000", "133856.910000", "133856.912000", "133856.915000", "133856.918000", "133856.921000", "133856.924000", "133856.927000", "133856.930000", "133856.933000", "133856.935000", "133856.938000", "133856.941000", "133856.944000", "133856.947000", "133856.950000", "133936.875000", "133936.878000", "133936.881000", "133936.884000", "133936.887000", "133936.890000", "133936.892000", "133936.895000", "133936.898000", "133936.901000", "133936.904000", "133936.907000", "133936.910000", "133936.913000", "133936.915000", "133936.918000", "133936.921000", "133936.924000", "133936.927000", "133936.930000", "133936.932000", "133936.935000", "133936.938000", "133936.941000", "133936.944000", "133936.947000", "133936.950000", "133953.187000", "133953.203000", "133953.206000", "133953.209000", "133953.212000", "133953.215000", "133953.218000", "133953.220000", "133953.223000", "133953.226000", "133953.229000"],
