{
  "AcquisitionMatrixPE": 104,
  "AcquisitionNumber": 1,
  "AcquisitionTime": "13:16:35.432500",
  "BandwidthPerPixelPhaseEncode": 17.17,
  "BaseResolution": 104,
  "BodyPartExamined": "BRAIN",
  "CoilString": "HC1-7;NC1_2",
  "ConsistencyInfo": "N4_VE11C_LATEST_20160120",
  "ConversionSoftware": "dcm2niix",
  "ConversionSoftwareVersion": "v1.0.20190902",
  "DerivedVendorReportedEchoSpacing": 0.000560011,
  "DeviceSerialNumber": "167006",
  "DwellTime": 2.1e-06,
  "EchoTime": 0.037,
  "EchoTrainLength": 104,
  "EffectiveEchoSpacing": 0.000560011,
  "FlipAngle": 52,
  "ImageComments": "Unaliased_MB4_PE3_LB",
  "ImageOrientationPatientDICOM": [0.999924, 0.00933903, -0.00800821, -0.0111698, 0.962001, -0.272819],
  "ImageType": [
    "ORIGINAL",
    "PRIMARY",
    "M",
    "MB",
    "ND",
    "MOSAIC"
],
  "ImagingFrequency": 123.259,
  "InPlanePhaseEncodingDirectionDICOM": "COL",
  "InstitutionAddress": "Chemin_Queen-Mary_4565_Montreal_District_CA_H3W_1W5",
  "InstitutionName": "IUGM",
  "InstitutionalDepartmentName": "Department",
  "MRAcquisitionType": "2D",
  "MagneticFieldStrength": 3,
  "Manufacturer": "Siemens",
  "ManufacturersModelName": "Prisma_fit",
  "Modality": "MR",
  "MultibandAccelerationFactor": 4,
  "PartialFourier": 1,
  "PatientPosition": "HFS",
  "PercentPhaseFOV": 100,
  "PhaseEncodingDirection": "j",
  "PhaseEncodingSteps": 104,
  "PhaseResolution": 1,
  "PixelBandwidth": 2290,
  "ProcedureStepDescription": "video_friends",
  "ProtocolName": "func_task-friends-s03e21a",
  "PulseSequenceDetails": "%CustomerSeq%_cmrr_mbep2d_bold",
  "ReceiveCoilActiveElements": "HC1-7;NC1,2",
  "ReceiveCoilName": "HeadNeck_64",
  "ReconMatrixPE": 104,
  "RepetitionTime": 1.49,
  "SAR": 0.0289768,
  "ScanOptions": "FS",
  "ScanningSequence": "EP",
  "SequenceName": "epfid2d1_104",
  "SequenceVariant": "SK_SS",
  "SeriesDescription": "func_task-friends-s03e21a",
  "SeriesNumber": 9,
  "ShimSetting": [630, -7219, -8809, 732, 43, -36, 86, 8],
  "SliceThickness": 2,
  "SliceTiming": [0, 0.785, 0.0975, 0.8825, 0.1975, 0.98, 0.295, 1.0775, 0.3925, 1.1775, 0.49, 1.275, 0.5875, 1.3725, 0.6875, 0, 0.785, 0.0975, 0.8825, 0.1975, 0.98, 0.295, 1.0775, 0.3925, 1.1775, 0.49, 1.275, 0.5875, 1.3725, 0.6875, 0, 0.785, 0.0975, 0.8825, 0.1975, 0.98, 0.295, 1.0775, 0.3925, 1.1775, 0.49, 1.275, 0.5875, 1.3725, 0.6875, 0, 0.785, 0.0975, 0.8825, 0.1975, 0.98, 0.295, 1.0775, 0.3925, 1.1775, 0.49, 1.275, 0.5875, 1.3725, 0.6875],
  "SoftwareVersions": "syngo_MR_E11",
  "SpacingBetweenSlices": 2,
  "StationName": "MRC35049",
  "TaskName": "s03e21a",
  "TotalReadoutTime": 0.0576811,
  "TxRefAmp": 206.907,
  "WipMemBlock": "566a35e6-acb1-43ec-8c06-bb3ad3b09d17||Sequence: R016 ve11c/master r/e634e98; Dec 19 2017 11:00:25 by eja",
  "dcmmeta_affine": [
    [-1.9998486042022705, -0.02233956940472126, -0.01031208410859108, 106.61224365234375],
    [-0.018678050488233566, 1.9240010976791382, -0.5457753539085388, -81.5303955078125],
    [-0.01601642370223999, 0.5456377863883972, 1.9240641593933105, -65.46869659423828],
    [0.0, 0.0, 0.0, 1.0]
],
  "dcmmeta_reorient_transform": [
    [0.0, -1.0, 0.0, 103.0],
    [1.0, 0.0, 0.0, 0.0],
    [0.0, 0.0, 1.0, 0.0],
    [0.0, 0.0, 0.0, 1.0]
],
  "dcmmeta_shape": [104, 104, 60, 460],
  "dcmmeta_slice_dim": 2,
  "dcmmeta_version": 0.6,
  "global": {
    "const": {
      "AcquisitionMatrix": [104, 0, 0, 104],
      "AngioFlag": "N",
      "BitsAllocated": 16,
      "BitsStored": 16,
      "BodyPartExamined": "BRAIN",
      "Columns": 832,
      "EchoNumbers": 1,
      "EchoTime": 37.0,
      "EchoTrainLength": 104,
      "FlipAngle": 52.0,
      "HighBit": 15,
      "ImageOrientationPatient": [0.99992432270742, 0.00933902539984, -0.0080082122033, -0.0111697845691, 0.96200056692116, -0.2728188870955],
      "ImagePositionPatient": [-824.12457099531, -823.77694395591, 195.174124705],
      "ImageType": [
        "ORIGINAL",
        "PRIMARY",
        "M",
        "MB",
        "ND",
        "MOSAIC"
],
      "ImagedNucleus": "1H",
      "ImagingFrequency": 123.259409,
      "InPlanePhaseEncodingDirection": "COL",
      "MRAcquisitionType": "2D",
      "MagneticFieldStrength": 3.0,
      "Manufacturer": "SIEMENS",
      "ManufacturerModelName": "Prisma_fit",
      "Modality": "MR",
      "NumberOfAverages": 1.0,
      "NumberOfPhaseEncodingSteps": 104,
      "PercentPhaseFieldOfView": 100.0,
      "PercentSampling": 100.0,
      "PerformedProcedureStepStartTime": "125926.166000",
      "PhotometricInterpretation": "MONOCHROME2",
      "PixelBandwidth": 2290.0,
      "PixelRepresentation": 0,
      "PixelSpacing": [2.0, 2.0],
      "ProtocolName": "func_task-friends-s03e21a",
      "RepetitionTime": 1490.0,
      "Rows": 832,
      "SAR": 0.02897681786158,
      "SamplesPerPixel": 1,
      "ScanOptions": "FS",
      "ScanningSequence": "EP",
      "SequenceName": "epfid2d1_104",
      "SequenceVariant": [
        "SK",
        "SS"
],
      "SeriesDescription": "func_task-friends-s03e21a",
      "SeriesNumber": 9,
      "SeriesTime": "131749.755000",
      "SliceLocation": -41.284039897657,
      "SliceThickness": 2.0,
      "SmallestImagePixelValue": 0,
      "SoftwareVersions": "syngo MR E11",
      "SpacingBetweenSlices": 1.9999999599381,
      "SpecificCharacterSet": "ISO_IR 100",
      "StudyID": "2",
      "StudyTime": "125926.116000",
      "TransmitCoilName": "Body",
      "VariableFlipAngleFlag": "N",
      "WindowCenterWidthExplanation": "Algo1",
      "dBdt": 0.0},
    "slices": {}
  },
  "time": {
    "samples": {
      "AcquisitionNumber": [1, 2, 3, 4, 5, 6, 7, 8, 9, 10, 11, 12, 13, 14, 15, 16, 17, 18, 19, 20, 21, 22, 23, 24, 25, 26, 27, 28, 29, 30, 31, 32, 33, 34, 35, 36, 37, 38, 39, 40, 41, 42, 43, 44, 45, 46, 47, 48, 49, 50, 51, 52, 53, 54, 55, 56, 57, 58, 59, 60, 61, 62, 63, 64, 65, 66, 67, 68, 69, 70, 71, 72, 73, 74, 75, 76, 77, 78, 79, 80, 81, 82, 83, 84, 85, 86, 87, 88, 89, 90, 91, 92, 93, 94, 95, 96, 97, 98, 99, 100, 101, 102, 103, 104, 105, 106, 107, 108, 109, 110, 111, 112, 113, 114, 115, 116, 117, 118, 119, 120, 121, 122, 123, 124, 125, 126, 127, 128, 129, 130, 131, 132, 133, 134, 135, 136, 137, 138, 139, 140, 141, 142, 143, 144, 145, 146, 147, 148, 149, 150, 151, 152, 153, 154, 155, 156, 157, 158, 159, 160, 161, 162, 163, 164, 165, 166, 167, 168, 169, 170, 171, 172, 173, 174, 175, 176, 177, 178, 179, 180, 181, 182, 183, 184, 185, 186, 187, 188, 189, 190, 191, 192, 193, 194, 195, 196, 197, 198, 199, 200, 201, 202, 203, 204, 205, 206, 207, 208, 209, 210, 211, 212, 213, 214, 215, 216, 217, 218, 219, 220, 221, 222, 223, 224, 225, 226, 227, 228, 229, 230, 231, 232, 233, 234, 235, 236, 237, 238, 239, 240, 241, 242, 243, 244, 245, 246, 247, 248, 249, 250, 251, 252, 253, 254, 255, 256, 257, 258, 259, 260, 261, 262, 263, 264, 265, 266, 267, 268, 269, 270, 271, 272, 273, 274, 275, 276, 277, 278, 279, 280, 281, 282, 283, 284, 285, 286, 287, 288, 289, 290, 291, 292, 293, 294, 295, 296, 297, 298, 299, 300, 301, 302, 303, 304, 305, 306, 307, 308, 309, 310, 311, 312, 313, 314, 315, 316, 317, 318, 319, 320, 321, 322, 323, 324, 325, 326, 327, 328, 329, 330, 331, 332, 333, 334, 335, 336, 337, 338, 339, 340, 341, 342, 343, 344, 345, 346, 347, 348, 349, 350, 351, 352, 353, 354, 355, 356, 357, 358, 359, 360, 361, 362, 363, 364, 365, 366, 367, 368, 369, 370, 371, 372, 373, 374, 375, 376, 377, 378, 379, 380, 381, 382, 383, 384, 385, 386, 387, 388, 389, 390, 391, 392, 393, 394, 395, 396, 397, 398, 399, 400, 401, 402, 403, 404, 405, 406, 407, 408, 409, 410, 411, 412, 413, 414, 415, 416, 417, 418, 419, 420, 421, 422, 423, 424, 425, 426, 427, 428, 429, 430, 431, 432, 433, 434, 435, 436, 437, 438, 439, 440, 441, 442, 443, 444, 445, 446, 447, 448, 449, 450, 451, 452, 453, 454, 455, 456, 457, 458, 459, 460],
      "AcquisitionTime": ["131635.432500", "131636.922500", "131638.412500", "131639.902500", "131641.392500", "131642.882500", "131644.372500", "131645.862500", "131647.352500", "131648.842500", "131650.332500", "131651.822500", "131653.312500", "131654.802500", "131656.292500", "131657.782500", "131659.272500", "131700.762500", "131702.252500", "131703.742500", "131705.232500", "131706.722500", "131708.212500", "131709.702500", "131711.192500", "131712.682500", "131714.172500", "131715.662500", "131717.152500", "131718.642500", "131720.132500", "131721.622500", "131723.112500", "131724.602500", "131726.092500", "131727.582500", "131729.072500", "131730.562500", "131732.052500", "131733.542500", "131735.032500", "131736.522500", "131738.012500", "131739.502500", "131740.992500", "131742.482500", "131743.972500", "131745.462500", "131746.952500", "131748.442500", "131749.932500", "131751.422500", "131752.912500", "131754.402500", "131755.892500", "131757.382500", "131758.872500", "131800.362500", "131801.852500", "131803.342500", "131804.832500", "131806.322500", "131807.812500", "131809.302500", "131810.792500", "131812.282500", "131813.772500", "131815.262500", "131816.752500", "131818.242500", "131819.732500", "131821.222500", "131822.712500", "131824.202500", "131825.692500", "131827.182500", "131828.672500", "131830.162500", "131831.652500", "131833.142500", "131834.632500", "131836.122500", "131837.612500", "131839.102500", "131840.592500", "131842.082500", "131843.572500", "131845.062500", "131846.552500", "131848.042500", "131849.532500", "131851.022500", "131852.512500", "131854.002500", "131855.492500", "131856.982500", "131858.472500", "131859.962500", "131901.452500", "131902.942500", "131904.432500", "131905.922500", "131907.412500", "131908.902500", "131910.392500", "131911.882500", "131913.372500", "131914.862500", "131916.352500", "131917.842500", "131919.332500", "131920.822500", "131922.312500", "131923.802500", "131925.292500", "131926.782500", "131928.272500", "131929.762500", "131931.252500", "131932.742500", "131934.232500", "131935.722500", "131937.212500", "131938.702500", "131940.192500", "131941.682500", "131943.172500", "131944.662500", "131946.152500", "131947.642500", "131949.132500", "131950.622500", "131952.112500", "131953.602500", "131955.092500", "131956.582500", "131958.072500", "131959.562500", "132001.052500", "132002.542500", "132004.032500", "132005.522500", "132007.012500", "132008.502500", "132009.992500", "132011.482500", "132012.972500", "132014.462500", "132015.952500", "132017.442500", "132018.932500", "132020.422500", "132021.912500", "132023.402500", "132024.892500", "132026.382500", "132027.872500", "132029.362500", "132030.852500", "132032.342500", "132033.832500", "132035.322500", "132036.812500", "132038.302500", "132039.792500", "132041.282500", "132042.772500", "132044.262500", "132045.752500", "132047.242500", "132048.732500", "132050.222500", "132051.712500", "132053.202500", "132054.692500", "132056.182500", "132057.672500", "132059.162500", "132100.652500", "132102.142500", "132103.632500", "132105.122500", "132106.612500", "132108.102500", "132109.592500", "132111.082500", "132112.572500", "132114.062500", "132115.552500", "132117.042500", "132118.532500", "132120.022500", "132121.512500", "132123.002500", "132124.492500", "132125.982500", "132127.472500", "132128.962500", "132130.452500", "132131.942500", "132133.432500", "132134.922500", "132136.412500", "132137.902500", "132139.392500", "132140.882500", "132142.372500", "132143.862500", "132145.352500", "132146.842500", "132148.332500", "132149.822500", "132151.312500", "132152.802500", "132154.292500", "132155.782500", "132157.272500", "132158.762500", "132200.252500", "132201.742500", "132203.232500", "132204.722500", "132206.212500", "132207.702500", "132209.192500", "132210.682500", "132212.172500", "132213.662500", "132215.152500", "132216.642500", "132218.132500", "132219.622500", "132221.112500", "132222.602500", "132224.092500", "132225.582500", "132227.072500", "132228.562500", "132230.052500", "132231.542500", "132233.032500", "132234.522500", "132236.012500", "132237.502500", "132238.992500", "132240.482500", "132241.972500", "132243.462500", "132244.952500", "132246.442500", "132247.932500", "132249.422500", "132250.912500", "132252.402500", "132253.892500", "132255.382500", "132256.872500", "132258.362500", "132259.852500", "132301.342500", "132302.832500", "132304.322500", "132305.812500", "132307.302500", "132308.792500", "132310.282500", "132311.772500", "132313.262500", "132314.752500", "132316.242500", "132317.732500", "132319.222500", "132320.712500", "132322.202500", "132323.692500", "132325.182500", "132326.672500", "132328.162500", "132329.652500", "132331.142500", "132332.632500", "132334.122500", "132335.612500", "132337.102500", "132338.592500", "132340.082500", "132341.572500", "132343.062500", "132344.552500", "132346.042500", "132347.532500", "132349.022500", "132350.512500", "132352.002500", "132353.492500", "132354.982500", "132356.472500", "132357.962500", "132359.452500", "132400.942500", "132402.432500", "132403.922500", "132405.412500", "132406.902500", "132408.392500", "132409.882500", "132411.372500", "132412.862500", "132414.352500", "132415.842500", "132417.332500", "132418.822500", "132420.312500", "132421.802500", "132423.292500", "132424.782500", "132426.272500", "132427.762500", "132429.252500", "132430.742500", "132432.232500", "132433.722500", "132435.212500", "132436.702500", "132438.192500", "132439.682500", "132441.172500", "132442.662500", "132444.152500", "132445.642500", "132447.132500", "132448.622500", "132450.112500", "132451.602500", "132453.092500", "132454.582500", "132456.072500", "132457.562500", "132459.052500", "132500.542500", "132502.032500", "132503.522500", "132505.012500", "132506.502500", "132507.992500", "132509.482500", "132510.972500", "132512.462500", "132513.952500", "132515.442500", "132516.932500", "132518.422500", "132519.912500", "132521.402500", "132522.892500", "132524.382500", "132525.872500", "132527.362500", "132528.852500", "132530.342500", "132531.832500", "132533.322500", "132534.812500", "132536.302500", "132537.792500", "132539.282500", "132540.772500", "132542.262500", "132543.752500", "132545.242500", "132546.732500", "132548.222500", "132549.712500", "132551.202500", "132552.692500", "132554.182500", "132555.672500", "132557.162500", "132558.652500", "132600.142500", "132601.632500", "132603.122500", "132604.612500", "132606.102500", "132607.592500", "132609.082500", "132610.572500", "132612.062500", "132613.552500", "132615.042500", "132616.532500", "132618.022500", "132619.512500", "132621.002500", "132622.492500", "132623.982500", "132625.472500", "132626.962500", "132628.452500", "132629.942500", "132631.432500", "132632.922500", "132634.412500", "132635.902500", "132637.392500", "132638.882500", "132640.372500", "132641.862500", "132643.352500", "132644.842500", "132646.332500", "132647.822500", "132649.312500", "132650.802500", "132652.292500", "132653.782500", "132655.272500", "132656.762500", "132658.252500", "132659.742500", "132701.232500", "132702.722500", "132704.212500", "132705.702500", "132707.192500", "132708.682500", "132710.172500", "132711.662500", "132713.152500", "132714.642500", "132716.132500", "132717.622500", "132719.112500", "132720.602500", "132722.092500", "132723.582500", "132725.072500", "132726.562500", "132728.052500", "132729.542500", "132731.032500", "132732.522500", "132734.012500", "132735.502500", "132736.992500", "132738.482500", "132739.972500", "132741.462500", "132742.952500", "132744.442500", "132745.932500", "132747.422500", "132748.912500", "132750.402500", "132751.892500", "132753.382500", "132754.872500", "132756.362500", "132757.852500", "132759.342500"],
      "ContentTime": ["131749.757000", "131749.767000", "131749.770000", "131749.780000", "131749.783000", "131749.785000", "131749.788000", "131749.791000", "131749.794000", "131749.797000", "131749.800000", "131749.802000", "131749.805000", "131749.808000", "131749.814000", "131749.819000", "131749.822000", "131749.825000", "131749.828000", "131749.831000", "131809.728000", "131809.731000", "131809.734000", "131809.737000", "131809.740000", "131809.743000", "131809.746000", "131809.749000", "131809.753000", "131809.756000", "131809.759000", "131809.762000", "131809.765000", "131809.768000", "131809.771000", "131809.774000", "131809.777000", "131809.780000", "131809.783000", "131809.786000", "131809.789000", "131829.729000", "131829.732000", "131829.735000", "131829.738000", "131829.741000", "131829.744000", "131829.747000", "131829.750000", "131829.754000", "131829.757000", "131829.760000", "131829.763000", "131829.766000", "131829.769000", "131829.772000", "131829.775000", "131829.778000", "131829.781000", "131829.784000", "131829.787000", "131849.728000", "131849.731000", "131849.734000", "131849.737000", "131849.740000", "131849.743000", "131849.746000", "131849.749000", "131849.752000", "131849.755000", "131849.757000", "131849.760000", "131849.763000", "131849.767000", "131849.770000", "131849.773000", "131849.777000", "131849.780000", "131849.783000", "131849.786000", "131909.728000", "131909.731000", "131909.734000", "131909.737000", "131909.740000", "131909.743000", "131909.746000", "131909.749000", "131909.752000", "131909.754000", "131909.757000", "131909.760000", "131909.763000", "131909.766000", "131909.769000", "131909.772000", "131909.775000", "131909.777000", "131909.780000", "131909.783000", "131949.728000", "131949.731000", "131949.734000", "131949.737000", "131949.740000", "131949.750000", "131949.752000", "131949.755000", "131949.758000", "131949.761000", "131949.764000", "131949.767000", "131949.770000", "131949.772000", "131949.775000", "131949.778000", "131949.781000", "131949.784000", "131949.787000", "131949.789000", "131949.792000", "131949.795000", "131949.798000", "131949.801000", "131949.804000", "131949.807000", "131949.809000", "131949.812000", "132029.728000", "132029.731000", "132029.734000", "132029.737000", "132029.739000", "132029.742000", "132029.745000", "132029.748000", "132029.751000", "132029.754000", "132029.757000", "132029.760000", "132029.763000", "132029.765000", "132029.768000", "132029.771000", "132029.774000", "132029.777000", "132029.780000", "132029.783000", "132029.786000", "132029.788000", "132029.791000", "132029.794000", "132029.797000", "132029.800000", "132029.803000", "132109.728000", "132109.731000", "132109.734000", "132109.737000", "132109.739000", "132109.742000", "132109.745000", "132109.748000", "132109.754000", "132109.757000", "132109.760000", "132109.763000", "132109.766000", "132109.769000", "132109.772000", "132109.774000", "132109.777000", "132109.780000", "132109.783000", "132109.786000", "132109.789000", "132109.792000", "132109.795000", "132109.797000", "132109.800000", "132109.803000", "132109.806000", "132149.728000", "132149.731000", "132149.734000", "132149.736000", "132149.740000", "132149.742000", "132149.745000", "132149.748000", "132149.751000", "132149.754000", "132149.757000", "132149.759000", "132149.762000", "132149.765000", "132149.768000", "132149.771000", "132149.774000", "132149.777000", "132149.779000", "132149.782000", "132149.785000", "132149.788000", "132149.791000", "132149.794000", "132149.797000", "132149.799000", "132149.802000", "132229.728000", "132229.731000", "132229.734000", "132229.737000", "132229.739000", "132229.742000", "132229.745000", "132229.748000", "132229.751000", "132229.754000", "132229.757000", "132229.760000", "132229.762000", "132229.765000", "132229.768000", "132229.771000", "132229.774000", "132229.777000", "132229.780000", "132229.789000", "132229.792000", "132229.795000", "132229.797000", "132229.801000", "132229.803000", "132229.806000", "132229.809000", "132309.729000", "132309.732000", "132309.735000", "132309.752000", "132309.756000", "132309.759000", "132309.762000", "132309.765000", "132309.768000", "132309.771000", "132309.775000", "132309.778000", "132309.780000", "132309.783000", "132309.786000", "132309.789000", "132309.792000", "132309.795000", "132309.798000", "132309.801000", "132309.804000", "132309.806000", "132309.809000", "132309.812000", "132309.815000", "132309.818000", "132349.728000", "132349.731000", "132349.734000", "132349.737000", "132349.740000", "132349.743000", "132349.745000", "132349.748000", "132349.751000", "132349.754000", "132349.757000", "132349.760000", "132349.762000", "132349.765000", "132349.768000", "132349.771000", "132349.774000", "132349.777000", "132349.780000", "132349.782000", "132349.785000", "132349.788000", "132349.791000", "132349.794000", "132349.797000", "132349.800000", "132349.803000", "132429.728000", "132429.731000", "132429.734000", "132429.737000", "132429.740000", "132429.742000", "132429.745000", "132429.748000", "132429.751000", "132429.754000", "132429.756000", "132429.759000", "132429.762000", "132429.765000", "132429.768000", "132429.771000", "132429.774000", "132429.776000", "132429.779000", "132429.782000", "132429.785000", "132429.788000", "132429.791000", "132429.794000", "132429.797000", "132429.799000", "132429.802000", "132449.728000", "132449.731000", "132449.734000", "132449.737000", "132449.740000", "132449.742000", "132449.745000", "132449.748000", "132449.751000", "132449.754000", "132449.757000", "132449.760000", "132449.762000", "132449.765000", "132529.729000", "132529.732000", "132529.735000", "132529.738000", "132529.741000", "132529.744000", "132529.747000", "132529.750000", "132529.752000", "132529.755000", "132529.758000", "132529.761000", "132529.764000", "132529.767000", "132529.770000", "132529.772000", "132529.775000", "132529.778000", "132529.781000", "132529.784000", "132529.787000", "132529.790000", "132529.793000", "132529.795000", "132529.798000", "132529.801000", "132609.728000", "132609.731000", "132609.734000", "132609.737000", "132609.740000", "132609.743000", "132609.745000", "132609.748000", "132609.751000", "132609.754000", "132609.757000", "132609.760000", "132609.762000", "132609.765000", "132609.768000", "132609.771000", "132609.774000", "132609.777000", "132609.780000", "132609.782000", "132609.785000", "132609.788000", "132609.791000", "132609.794000", "132609.797000", "132609.800000", "132609.802000", "132649.728000", "132649.731000", "132649.734000", "132649.737000", "132649.739000", "132649.742000", "132649.745000", "132649.748000", "132649.751000", "132649.754000", "132649.757000", "132649.759000", "132649.762000", "132649.765000", "132649.768000", "132649.771000", "132649.774000", "132649.777000", "132649.780000", "132649.782000", "132649.785000", "132649.788000", "132649.791000", "132649.794000", "132649.796000", "132649.800000", "132649.802000", "132729.728000", "132729.731000", "132729.734000", "132729.736000", "132729.739000", "132729.742000", "132729.745000", "132729.748000", "132729.751000", "132729.754000", "132729.757000", "132729.759000", "132729.762000", "132729.765000", "132729.768000", "132729.771000", "132729.774000", "132729.777000", "132729.780000", "132729.782000", "132729.785000", "132729.788000", "132729.791000", "132729.794000", "132729.797000", "132729.800000", "132729.802000", "132801.841000", "132801.844000", "132801.847000", "132801.850000", "132801.853000", "132801.856000", "132801.858000", "132801.861000", "132801.864000", "132801.867000", "132801.870000", "132801.873000", "132801.876000", "132801.879000", "132801.882000", "132801.885000", "132801.888000", "132801.891000", "132801.894000", "132801.897000", "132801.900000", "132801.903000"],
