{
  "AcquisitionMatrixPE": 104,
  "AcquisitionNumber": 1,
  "AcquisitionTime": "13:41:35.877500",
  "BandwidthPerPixelPhaseEncode": 17.17,
  "BaseResolution": 104,
  "BodyPartExamined": "BRAIN",
  "CoilString": "HC1-7;NC1_2",
  "ConsistencyInfo": "N4_VE11C_LATEST_20160120",
  "ConversionSoftware": "dcm2niix",
  "ConversionSoftwareVersion": "v1.0.20190902",
  "DerivedVendorReportedEchoSpacing": 0.000560011,
  "DeviceSerialNumber": "167006",
  "DwellTime": 2.1e-06,
  "EchoTime": 0.037,
  "EchoTrainLength": 104,
  "EffectiveEchoSpacing": 0.000560011,
  "FlipAngle": 52,
  "ImageComments": "Unaliased_MB4_PE3_LB",
  "ImageOrientationPatientDICOM": [0.999924, 0.00933903, -0.00800821, -0.0111698, 0.962001, -0.272819],
  "ImageType": [
    "ORIGINAL",
    "PRIMARY",
    "M",
    "MB",
    "ND",
    "MOSAIC"
],
  "ImagingFrequency": 123.259,
  "InPlanePhaseEncodingDirectionDICOM": "COL",
  "InstitutionAddress": "Chemin_Queen-Mary_4565_Montreal_District_CA_H3W_1W5",
  "InstitutionName": "IUGM",
  "InstitutionalDepartmentName": "Department",
  "MRAcquisitionType": "2D",
  "MagneticFieldStrength": 3,
  "Manufacturer": "Siemens",
  "ManufacturersModelName": "Prisma_fit",
  "Modality": "MR",
  "MultibandAccelerationFactor": 4,
  "PartialFourier": 1,
  "PatientPosition": "HFS",
  "PercentPhaseFOV": 100,
  "PhaseEncodingDirection": "j",
  "PhaseEncodingSteps": 104,
  "PhaseResolution": 1,
  "PixelBandwidth": 2290,
  "ProcedureStepDescription": "video_friends",
  "ProtocolName": "func_task-friends-s03e22a",
  "PulseSequenceDetails": "%CustomerSeq%_cmrr_mbep2d_bold",
  "ReceiveCoilActiveElements": "HC1-7;NC1,2",
  "ReceiveCoilName": "HeadNeck_64",
  "ReconMatrixPE": 104,
  "RepetitionTime": 1.49,
  "SAR": 0.0289776,
  "ScanOptions": "FS",
  "ScanningSequence": "EP",
  "SequenceName": "epfid2d1_104",
  "SequenceVariant": "SK_SS",
  "SeriesDescription": "func_task-friends-s03e22a",
  "SeriesNumber": 13,
  "ShimSetting": [630, -7219, -8809, 732, 43, -36, 86, 8],
  "SliceThickness": 2,
  "SliceTiming": [0, 0.7825, 0.0975, 0.8825, 0.195, 0.98, 0.295, 1.0775, 0.3925, 1.175, 0.49, 1.2725, 0.5875, 1.3725, 0.685, 0, 0.7825, 0.0975, 0.8825, 0.195, 0.98, 0.295, 1.0775, 0.3925, 1.175, 0.49, 1.2725, 0.5875, 1.3725, 0.685, 0, 0.7825, 0.0975, 0.8825, 0.195, 0.98, 0.295, 1.0775, 0.3925, 1.175, 0.49, 1.2725, 0.5875, 1.3725, 0.685, 0, 0.7825, 0.0975, 0.8825, 0.195, 0.98, 0.295, 1.0775, 0.3925, 1.175, 0.49, 1.2725, 0.5875, 1.3725, 0.685],
  "SoftwareVersions": "syngo_MR_E11",
  "SpacingBetweenSlices": 2,
  "StationName": "MRC35049",
  "TaskName": "s03e22a",
  "TotalReadoutTime": 0.0576811,
  "TxRefAmp": 206.907,
  "WipMemBlock": "c03734e5-7997-4582-a984-70321f2b853a||Sequence: R016 ve11c/master r/e634e98; Dec 19 2017 11:00:25 by eja",
  "dcmmeta_affine": [
    [-1.9998486042022705, -0.02233956940472126, -0.01031208410859108, 106.61224365234375],
    [-0.018678050488233566, 1.9240010976791382, -0.5457753539085388, -81.5303955078125],
    [-0.01601642370223999, 0.5456377863883972, 1.9240641593933105, -65.46869659423828],
    [0.0, 0.0, 0.0, 1.0]
],
  "dcmmeta_reorient_transform": [
    [0.0, -1.0, 0.0, 103.0],
    [1.0, 0.0, 0.0, 0.0],
    [0.0, 0.0, 1.0, 0.0],
    [0.0, 0.0, 0.0, 1.0]
],
  "dcmmeta_shape": [104, 104, 60, 463],
  "dcmmeta_slice_dim": 2,
  "dcmmeta_version": 0.6,
  "global": {
    "const": {
      "AcquisitionMatrix": [104, 0, 0, 104],
      "AngioFlag": "N",
      "BitsAllocated": 16,
      "BitsStored": 16,
      "BodyPartExamined": "BRAIN",
      "Columns": 832,
      "EchoNumbers": 1,
      "EchoTime": 37.0,
      "EchoTrainLength": 104,
      "FlipAngle": 52.0,
      "HighBit": 15,
      "ImageOrientationPatient": [0.99992432270742, 0.00933902539984, -0.0080082122033, -0.0111697845691, 0.96200056692116, -0.2728188870955],
      "ImagePositionPatient": [-824.12457099531, -823.77694395591, 195.174124705],
      "ImageType": [
        "ORIGINAL",
        "PRIMARY",
        "M",
        "MB",
        "ND",
        "MOSAIC"
],
      "ImagedNucleus": "1H",
      "ImagingFrequency": 123.259426,
      "InPlanePhaseEncodingDirection": "COL",
      "MRAcquisitionType": "2D",
      "MagneticFieldStrength": 3.0,
      "Manufacturer": "SIEMENS",
      "ManufacturerModelName": "Prisma_fit",
      "Modality": "MR",
      "NumberOfAverages": 1.0,
      "NumberOfPhaseEncodingSteps": 104,
      "PercentPhaseFieldOfView": 100.0,
      "PercentSampling": 100.0,
      "PerformedProcedureStepStartTime": "125926.166000",
      "PhotometricInterpretation": "MONOCHROME2",
      "PixelBandwidth": 2290.0,
      "PixelRepresentation": 0,
      "PixelSpacing": [2.0, 2.0],
      "ProtocolName": "func_task-friends-s03e22a",
      "RepetitionTime": 1490.0,
      "Rows": 832,
      "SAR": 0.02897762881283,
      "SamplesPerPixel": 1,
      "ScanOptions": "FS",
      "ScanningSequence": "EP",
      "SequenceName": "epfid2d1_104",
      "SequenceVariant": [
        "SK",
        "SS"
],
      "SeriesDescription": "func_task-friends-s03e22a",
      "SeriesNumber": 13,
      "SeriesTime": "134258.458000",
      "SliceLocation": -41.284039897657,
      "SliceThickness": 2.0,
      "SmallestImagePixelValue": 0,
      "SoftwareVersions": "syngo MR E11",
      "SpacingBetweenSlices": 1.9999999599381,
      "SpecificCharacterSet": "ISO_IR 100",
      "StudyID": "2",
      "StudyTime": "125926.116000",
      "TransmitCoilName": "Body",
      "VariableFlipAngleFlag": "N",
      "WindowCenterWidthExplanation": "Algo1",
      "dBdt": 0.0},
    "slices": {}
  },
  "time": {
    "samples": {
      "AcquisitionNumber": [1, 2, 3, 4, 5, 6, 7, 8, 9, 10, 11, 12, 13, 14, 15, 16, 17, 18, 19, 20, 21, 22, 23, 24, 25, 26, 27, 28, 29, 30, 31, 32, 33, 34, 35, 36, 37, 38, 39, 40, 41, 42, 43, 44, 45, 46, 47, 48, 49, 50, 51, 52, 53, 54, 55, 56, 57, 58, 59, 60, 61, 62, 63, 64, 65, 66, 67, 68, 69, 70, 71, 72, 73, 74, 75, 76, 77, 78, 79, 80, 81, 82, 83, 84, 85, 86, 87, 88, 89, 90, 91, 92, 93, 94, 95, 96, 97, 98, 99, 100, 101, 102, 103, 104, 105, 106, 107, 108, 109, 110, 111, 112, 113, 114, 115, 116, 117, 118, 119, 120, 121, 122, 123, 124, 125, 126, 127, 128, 129, 130, 131, 132, 133, 134, 135, 136, 137, 138, 139, 140, 141, 142, 143, 144, 145, 146, 147, 148, 149, 150, 151, 152, 153, 154, 155, 156, 157, 158, 159, 160, 161, 162, 163, 164, 165, 166, 167, 168, 169, 170, 171, 172, 173, 174, 175, 176, 177, 178, 179, 180, 181, 182, 183, 184, 185, 186, 187, 188, 189, 190, 191, 192, 193, 194, 195, 196, 197, 198, 199, 200, 201, 202, 203, 204, 205, 206, 207, 208, 209, 210, 211, 212, 213, 214, 215, 216, 217, 218, 219, 220, 221, 222, 223, 224, 225, 226, 227, 228, 229, 230, 231, 232, 233, 234, 235, 236, 237, 238, 239, 240, 241, 242, 243, 244, 245, 246, 247, 248, 249, 250, 251, 252, 253, 254, 255, 256, 257, 258, 259, 260, 261, 262, 263, 264, 265, 266, 267, 268, 269, 270, 271, 272, 273, 274, 275, 276, 277, 278, 279, 280, 281, 282, 283, 284, 285, 286, 287, 288, 289, 290, 291, 292, 293, 294, 295, 296, 297, 298, 299, 300, 301, 302, 303, 304, 305, 306, 307, 308, 309, 310, 311, 312, 313, 314, 315, 316, 317, 318, 319, 320, 321, 322, 323, 324, 325, 326, 327, 328, 329, 330, 331, 332, 333, 334, 335, 336, 337, 338, 339, 340, 341, 342, 343, 344, 345, 346, 347, 348, 349, 350, 351, 352, 353, 354, 355, 356, 357, 358, 359, 360, 361, 362, 363, 364, 365, 366, 367, 368, 369, 370, 371, 372, 373, 374, 375, 376, 377, 378, 379, 380, 381, 382, 383, 384, 385, 386, 387, 388, 389, 390, 391, 392, 393, 394, 395, 396, 397, 398, 399, 400, 401, 402, 403, 404, 405, 406, 407, 408, 409, 410, 411, 412, 413, 414, 415, 416, 417, 418, 419, 420, 421, 422, 423, 424, 425, 426, 427, 428, 429, 430, 431, 432, 433, 434, 435, 436, 437, 438, 439, 440, 441, 442, 443, 444, 445, 446, 447, 448, 449, 450, 451, 452, 453, 454, 455, 456, 457, 458, 459, 460, 461, 462, 463],
      "AcquisitionTime": ["134135.877500", "134137.367500", "134138.857500", "134140.347500", "134141.837500", "134143.327500", "134144.817500", "134146.307500", "134147.797500", "134149.287500", "134150.777500", "134152.267500", "134153.757500", "134155.247500", "134156.737500", "134158.227500", "134159.717500", "134201.207500", "134202.697500", "134204.187500", "134205.677500", "134207.167500", "134208.657500", "134210.147500", "134211.637500", "134213.127500", "134214.617500", "134216.107500", "134217.597500", "134219.087500", "134220.577500", "134222.067500", "134223.557500", "134225.047500", "134226.537500", "134228.027500", "134229.517500", "134231.007500", "134232.497500", "134233.987500", "134235.477500", "134236.967500", "134238.457500", "134239.947500", "134241.437500", "134242.927500", "134244.417500", "134245.907500", "134247.397500", "134248.887500", "134250.377500", "134251.867500", "134253.357500", "134254.847500", "134256.337500", "134257.827500", "134259.317500", "134300.807500", "134302.297500", "134303.787500", "134305.277500", "134306.767500", "134308.257500", "134309.747500", "134311.237500", "134312.727500", "134314.217500", "134315.707500", "134317.197500", "134318.687500", "134320.177500", "134321.667500", "134323.157500", "134324.647500", "134326.137500", "134327.627500", "134329.117500", "134330.607500", "134332.097500", "134333.587500", "134335.077500", "134336.567500", "134338.057500", "134339.547500", "134341.037500", "134342.527500", "134344.017500", "134345.507500", "134346.997500", "134348.487500", "134349.977500", "134351.467500", "134352.957500", "134354.447500", "134355.937500", "134357.427500", "134358.917500", "134400.407500", "134401.897500", "134403.387500", "134404.877500", "134406.367500", "134407.857500", "134409.347500", "134410.837500", "134412.327500", "134413.817500", "134415.307500", "134416.797500", "134418.287500", "134419.777500", "134421.267500", "134422.757500", "134424.247500", "134425.737500", "134427.227500", "134428.717500", "134430.207500", "134431.697500", "134433.187500", "134434.677500", "134436.167500", "134437.657500", "134439.147500", "134440.637500", "134442.127500", "134443.617500", "134445.107500", "134446.597500", "134448.087500", "134449.577500", "134451.067500", "134452.557500", "134454.047500", "134455.537500", "134457.027500", "134458.517500", "134500.007500", "134501.497500", "134502.987500", "134504.477500", "134505.967500", "134507.457500", "134508.947500", "134510.437500", "134511.927500", "134513.417500", "134514.907500", "134516.397500", "134517.887500", "134519.377500", "134520.867500", "134522.357500", "134523.847500", "134525.337500", "134526.827500", "134528.317500", "134529.807500", "134531.297500", "134532.787500", "134534.277500", "134535.767500", "134537.257500", "134538.747500", "134540.237500", "134541.727500", "134543.217500", "134544.707500", "134546.197500", "134547.687500", "134549.177500", "134550.667500", "134552.157500", "134553.647500", "134555.137500", "134556.627500", "134558.117500", "134559.607500", "134601.097500", "134602.587500", "134604.077500", "134605.567500", "134607.057500", "134608.547500", "134610.037500", "134611.527500", "134613.017500", "134614.507500", "134615.997500", "134617.487500", "134618.977500", "134620.467500", "134621.957500", "134623.447500", "134624.937500", "134626.427500", "134627.917500", "134629.407500", "134630.897500", "134632.387500", "134633.877500", "134635.367500", "134636.857500", "134638.347500", "134639.837500", "134641.327500", "134642.817500", "134644.307500", "134645.797500", "134647.287500", "134648.777500", "134650.267500", "134651.757500", "134653.247500", "134654.737500", "134656.227500", "134657.717500", "134659.207500", "134700.697500", "134702.187500", "134703.677500", "134705.167500", "134706.657500", "134708.147500", "134709.637500", "134711.127500", "134712.617500", "134714.107500", "134715.597500", "134717.087500", "134718.577500", "134720.067500", "134721.557500", "134723.047500", "134724.537500", "134726.027500", "134727.517500", "134729.007500", "134730.497500", "134731.987500", "134733.477500", "134734.967500", "134736.457500", "134737.947500", "134739.437500", "134740.927500", "134742.417500", "134743.907500", "134745.397500", "134746.887500", "134748.377500", "134749.867500", "134751.357500", "134752.847500", "134754.337500", "134755.827500", "134757.317500", "134758.807500", "134800.297500", "134801.787500", "134803.277500", "134804.767500", "134806.257500", "134807.747500", "134809.237500", "134810.727500", "134812.217500", "134813.707500", "134815.197500", "134816.687500", "134818.177500", "134819.667500", "134821.157500", "134822.647500", "134824.137500", "134825.627500", "134827.117500", "134828.607500", "134830.097500", "134831.587500", "134833.077500", "134834.567500", "134836.057500", "134837.547500", "134839.037500", "134840.527500", "134842.017500", "134843.507500", "134844.997500", "134846.487500", "134847.977500", "134849.467500", "134850.957500", "134852.447500", "134853.937500", "134855.427500", "134856.917500", "134858.407500", "134859.897500", "134901.387500", "134902.877500", "134904.367500", "134905.857500", "134907.347500", "134908.837500", "134910.327500", "134911.817500", "134913.307500", "134914.797500", "134916.287500", "134917.777500", "134919.267500", "134920.757500", "134922.247500", "134923.737500", "134925.227500", "134926.717500", "134928.207500", "134929.697500", "134931.187500", "134932.677500", "134934.167500", "134935.657500", "134937.147500", "134938.637500", "134940.127500", "134941.617500", "134943.107500", "134944.597500", "134946.087500", "134947.577500", "134949.067500", "134950.557500", "134952.047500", "134953.537500", "134955.027500", "134956.517500", "134958.007500", "134959.497500", "135000.987500", "135002.477500", "135003.967500", "135005.457500", "135006.947500", "135008.437500", "135009.927500", "135011.417500", "135012.907500", "135014.397500", "135015.887500", "135017.377500", "135018.867500", "135020.357500", "135021.847500", "135023.337500", "135024.827500", "135026.317500", "135027.807500", "135029.297500", "135030.787500", "135032.277500", "135033.767500", "135035.257500", "135036.747500", "135038.237500", "135039.727500", "135041.217500", "135042.707500", "135044.197500", "135045.687500", "135047.177500", "135048.667500", "135050.157500", "135051.647500", "135053.137500", "135054.627500", "135056.117500", "135057.607500", "135059.097500", "135100.587500", "135102.077500", "135103.567500", "135105.057500", "135106.547500", "135108.037500", "135109.527500", "135111.017500", "135112.507500", "135113.997500", "135115.487500", "135116.977500", "135118.467500", "135119.957500", "135121.447500", "135122.937500", "135124.427500", "135125.917500", "135127.407500", "135128.897500", "135130.387500", "135131.877500", "135133.367500", "135134.857500", "135136.347500", "135137.837500", "135139.327500", "135140.817500", "135142.307500", "135143.797500", "135145.287500", "135146.777500", "135148.267500", "135149.757500", "135151.247500", "135152.737500", "135154.227500", "135155.717500", "135157.207500", "135158.697500", "135200.187500", "135201.677500", "135203.167500", "135204.657500", "135206.147500", "135207.637500", "135209.127500", "135210.617500", "135212.107500", "135213.597500", "135215.087500", "135216.577500", "135218.067500", "135219.557500", "135221.047500", "135222.537500", "135224.027500", "135225.517500", "135227.007500", "135228.497500", "135229.987500", "135231.477500", "135232.967500", "135234.457500", "135235.947500", "135237.437500", "135238.927500", "135240.417500", "135241.907500", "135243.397500", "135244.887500", "135246.377500", "135247.867500", "135249.357500", "135250.847500", "135252.337500", "135253.827500", "135255.317500", "135256.807500", "135258.297500", "135259.787500", "135301.277500", "135302.767500", "135304.257500"],
      "ContentTime": ["134258.460000", "134258.464000", "134258.467000", "134258.470000", "134258.472000", "134258.475000", "134258.478000", "134258.481000", "134258.484000", "134258.487000", "134258.490000", "134258.492000", "134258.495000", "134258.498000", "134258.501000", "134258.504000", "134258.507000", "134258.509000", "134258.512000", "134258.515000", "134258.518000", "134258.521000", "134258.524000", "134258.527000", "134258.530000", "134258.532000", "134258.536000", "134258.539000", "134258.543000", "134318.425000", "134318.428000", "134318.431000", "134318.434000", "134318.437000", "134318.439000", "134318.442000", "134318.445000", "134318.448000", "134318.451000", "134318.465000", "134318.468000", "134318.471000", "134318.478000", "134318.481000", "134318.483000", "134318.486000", "134318.489000", "134318.492000", "134318.495000", "134318.498000", "134338.424000", "134338.427000", "134338.430000", "134338.433000", "134338.436000", "134338.443000", "134338.446000", "134338.448000", "134338.451000", "134338.461000", "134338.463000", "134338.466000", "134338.469000", "134338.472000", "134338.475000", "134338.478000", "134338.480000", "134338.483000", "134338.486000", "134338.489000", "134358.424000", "134358.427000", "134358.430000", "134358.433000", "134358.435000", "134358.438000", "134358.441000", "134358.444000", "134358.447000", "134358.450000", "134358.453000", "134358.455000", "134358.458000", "134358.461000", "134358.464000", "134358.467000", "134358.470000", "134358.473000", "134358.475000", "134358.478000", "134438.424000", "134438.427000", "134438.433000", "134438.435000", "134438.438000", "134438.441000", "134438.444000", "134438.447000", "134438.450000", "134438.453000", "134438.455000", "134438.458000", "134438.461000", "134438.464000", "134438.467000", "134438.470000", "134438.473000", "134438.475000", "134438.478000", "134438.481000", "134438.484000", "134438.487000", "134438.490000", "134438.492000", "134438.495000", "134438.498000", "134438.501000", "134438.504000", "134438.507000", "134438.510000", "134438.513000", "134438.515000", "134458.424000", "134458.427000", "134458.430000", "134458.433000", "134458.436000", "134458.438000", "134458.441000", "134458.444000", "134458.447000", "134458.450000", "134458.453000", "134458.456000", "134458.459000", "134538.425000", "134538.428000", "134538.431000", "134538.434000", "134538.437000", "134538.439000", "134538.442000", "134538.445000", "134538.448000", "134538.451000", "134538.454000", "134538.457000", "134538.460000", "134538.462000", "134538.465000", "134538.468000", "134538.471000", "134538.474000", "134538.477000", "134538.479000", "134538.482000", "134538.485000", "134538.488000", "134538.491000", "134538.494000", "134538.497000", "134538.500000", "134618.424000", "134618.427000", "134618.430000", "134618.433000", "134618.436000", "134618.438000", "134618.441000", "134618.444000", "134618.447000", "134618.450000", "134618.453000", "134618.456000", "134618.459000", "134618.461000", "134618.464000", "134618.467000", "134618.470000", "134618.473000", "134618.476000", "134618.479000", "134618.481000", "134618.484000", "134618.487000", "134618.490000", "134618.493000", "134618.496000", "134618.499000", "134658.424000", "134658.427000", "134658.430000", "134658.433000", "134658.436000", "134658.438000", "134658.441000", "134658.444000", "134658.447000", "134658.450000", "134658.453000", "134658.456000", "134658.458000", "134658.461000", "134658.464000", "134658.467000", "134658.470000", "134658.473000", "134658.476000", "134658.479000", "134658.481000", "134658.484000", "134658.487000", "134658.490000", "134658.493000", "134658.496000", "134658.499000", "134738.425000", "134738.429000", "134738.432000", "134738.435000", "134738.438000", "134738.441000", "134738.444000", "134738.447000", "134738.450000", "134738.453000", "134738.456000", "134738.459000", "134738.462000", "134738.465000", "134738.467000", "134738.470000", "134738.473000", "134738.476000", "134738.479000", "134738.482000", "134738.485000", "134738.488000", "134738.491000", "134738.494000", "134738.512000", "134738.523000", "134738.526000", "134818.424000", "134818.427000", "134818.430000", "134818.433000", "134818.436000", "134818.438000", "134818.441000", "134818.444000", "134818.447000", "134818.450000", "134818.453000", "134818.456000", "134818.459000", "134818.461000", "134818.464000", "134818.467000", "134818.470000", "134818.473000", "134818.476000", "134818.479000", "134818.482000", "134818.484000", "134818.487000", "134818.490000", "134818.493000", "134818.496000", "134858.424000", "134858.427000", "134858.430000", "134858.433000", "134858.436000", "134858.439000", "134858.442000", "134858.444000", "134858.447000", "134858.450000", "134858.453000", "134858.456000", "134858.459000", "134858.461000", "134858.464000", "134858.467000", "134858.470000", "134858.473000", "134858.476000", "134858.479000", "134858.482000", "134858.484000", "134858.487000", "134858.490000", "134858.493000", "134858.496000", "134858.499000", "134938.424000", "134938.427000", "134938.430000", "134938.433000", "134938.436000", "134938.439000", "134938.441000", "134938.444000", "134938.447000", "134938.450000", "134938.453000", "134938.456000", "134938.459000", "134938.462000", "134938.464000", "134938.467000", "134938.470000", "134938.473000", "134938.476000", "134938.479000", "134938.482000", "134938.485000", "134938.487000", "134938.490000", "134938.493000", "134938.496000", "134938.499000", "135018.425000", "135018.428000", "135018.431000", "135018.434000", "135018.437000", "135018.440000", "135018.442000", "135018.445000", "135018.448000", "135018.451000", "135018.454000", "135018.457000", "135018.460000", "135018.463000", "135018.465000", "135018.468000", "135018.471000", "135018.474000", "135018.477000", "135018.480000", "135018.483000", "135018.486000", "135018.488000", "135018.491000", "135018.494000", "135018.497000", "135018.500000", "135058.424000", "135058.427000", "135058.430000", "135058.433000", "135058.436000", "135058.439000", "135058.441000", "135058.444000", "135058.447000", "135058.450000", "135058.453000", "135058.456000", "135058.459000", "135058.462000", "135058.464000", "135058.467000", "135058.470000", "135058.473000", "135058.476000", "135058.479000", "135058.482000", "135058.485000", "135058.487000", "135058.490000", "135058.493000", "135058.496000", "135058.499000", "135138.424000", "135138.427000", "135138.430000", "135138.433000", "135138.436000", "135138.439000", "135138.442000", "135138.444000", "135138.447000", "135138.450000", "135138.453000", "135138.456000", "135138.459000", "135138.462000", "135138.465000", "135138.467000", "135138.470000", "135138.473000", "135138.476000", "135138.479000", "135138.488000", "135138.490000", "135138.493000", "135138.496000", "135138.499000", "135138.502000", "135138.505000", "135218.425000", "135218.428000", "135218.431000", "135218.434000", "135218.437000", "135218.439000", "135218.442000", "135218.445000", "135218.448000", "135218.451000", "135218.454000", "135218.465000", "135218.468000", "135218.471000", "135218.474000", "135218.477000", "135218.480000", "135218.482000", "135218.485000", "135218.488000", "135218.491000", "135218.494000", "135218.497000", "135218.500000", "135218.502000", "135218.505000", "135258.424000", "135258.427000", "135258.430000", "135258.433000", "135258.436000", "135258.439000", "135258.441000", "135258.444000", "135258.447000", "135258.450000", "135258.453000", "135258.456000", "135258.459000", "135258.462000", "135258.465000", "135258.468000", "135258.470000", "135258.473000", "135258.476000", "135258.479000", "135258.482000", "135258.485000", "135258.488000", "135258.491000", "135258.493000", "135258.496000", "135258.499000", "135306.260000", "135306.263000", "135306.266000", "135306.269000", "135306.272000", "135306.275000"],
