{
  "AcquisitionMatrixPE": 104,
  "AcquisitionNumber": 1,
  "AcquisitionTime": "13:47:41.620000",
  "BandwidthPerPixelPhaseEncode": 17.17,
  "BaseResolution": 104,
  "BodyPartExamined": "BRAIN",
  "CoilString": "HC1-7;NC1_2",
  "ConsistencyInfo": "N4_VE11C_LATEST_20160120",
  "ConversionSoftware": "dcm2niix",
  "ConversionSoftwareVersion": "v1.0.20200427",
  "DerivedVendorReportedEchoSpacing": 0.000560011,
  "DeviceSerialNumber": "167006",
  "DwellTime": 2.1e-06,
  "EchoTime": 0.037,
  "EchoTrainLength": 104,
  "EffectiveEchoSpacing": 0.000560011,
  "FlipAngle": 52,
  "ImageComments": "Unaliased_MB4_PE3_LB",
  "ImageOrientationPatientDICOM": [0.999972, 0.00268942, 0.00703898, -0.000523523, 0.956677, -0.29115],
  "ImageType": [
    "ORIGINAL",
    "PRIMARY",
    "M",
    "MB",
    "ND",
    "MOSAIC"
],
  "ImagingFrequency": 123.259,
  "InPlanePhaseEncodingDirectionDICOM": "COL",
  "InstitutionAddress": "Chemin_Queen-Mary_4565_Montreal_District_CA_H3W_1W5",
  "InstitutionName": "IUGM",
  "InstitutionalDepartmentName": "Department",
  "MRAcquisitionType": "2D",
  "MagneticFieldStrength": 3,
  "Manufacturer": "Siemens",
  "ManufacturersModelName": "Prisma_fit",
  "Modality": "MR",
  "MultibandAccelerationFactor": 4,
  "PartialFourier": 1,
  "PatientPosition": "HFS",
  "PercentPhaseFOV": 100,
  "PercentSampling": 100,
  "PhaseEncodingDirection": "j",
  "PhaseEncodingSteps": 104,
  "PhaseResolution": 1,
  "PixelBandwidth": 2290,
  "ProcedureStepDescription": "video_friends",
  "ProtocolName": "func_task-friends-s02e07a",
  "PulseSequenceDetails": "%CustomerSeq%_cmrr_mbep2d_bold",
  "ReceiveCoilActiveElements": "HC1-7;NC1,2",
  "ReceiveCoilName": "HeadNeck_64",
  "ReconMatrixPE": 104,
  "RepetitionTime": 1.49,
  "SAR": 0.0293451,
  "ScanOptions": "FS",
  "ScanningSequence": "EP",
  "SequenceName": "epfid2d1_104",
  "SequenceVariant": "SK_SS",
  "SeriesDescription": "func_task-friends-s02e07a",
  "SeriesNumber": 9,
  "ShimSetting": [625, -7216, -8809, 747, 22, -14, 5, 15],
  "SliceThickness": 2,
  "SliceTiming": [0, 0.7825, 0.0975, 0.8825, 0.195, 0.98, 0.2925, 1.0775, 0.3925, 1.175, 0.49, 1.2725, 0.5875, 1.37, 0.685, 0, 0.7825, 0.0975, 0.8825, 0.195, 0.98, 0.2925, 1.0775, 0.3925, 1.175, 0.49, 1.2725, 0.5875, 1.37, 0.685, 0, 0.7825, 0.0975, 0.8825, 0.195, 0.98, 0.2925, 1.0775, 0.3925, 1.175, 0.49, 1.2725, 0.5875, 1.37, 0.685, 0, 0.7825, 0.0975, 0.8825, 0.195, 0.98, 0.2925, 1.0775, 0.3925, 1.175, 0.49, 1.2725, 0.5875, 1.37, 0.685],
  "SoftwareVersions": "syngo_MR_E11",
  "SpacingBetweenSlices": 2,
  "StationName": "MRC35049",
  "TaskName": "s02e07a",
  "TotalReadoutTime": 0.0576811,
  "TxRefAmp": 205.186,
  "WipMemBlock": "c46d7c64-e176-400f-a737-d3f1fc6eda6e||Sequence: R016 ve11c/master r/e634e98; Dec 19 2017 11:00:25 by eja",
  "dcmmeta_affine": [
    [-1.9999432563781738, -0.001047046622261405, 0.015034109354019165, 104.69976806640625],
    [-0.005378843750804663, 1.9133543968200684, -0.5822766423225403, -80.79383087158203],
    [0.01407795399427414, 0.5823005437850952, 1.9133028984069824, -66.98707580566406],
    [0.0, 0.0, 0.0, 1.0]
],
  "dcmmeta_reorient_transform": [
    [0.0, -1.0, 0.0, 103.0],
    [1.0, 0.0, 0.0, 0.0],
    [0.0, 0.0, 1.0, 0.0],
    [0.0, 0.0, 0.0, 1.0]
],
  "dcmmeta_shape": [104, 104, 60, 496],
  "dcmmeta_slice_dim": 2,
  "dcmmeta_version": 0.6,
  "global": {
    "const": {
      "AcquisitionMatrix": [104, 0, 0, 104],
      "AngioFlag": "N",
      "BitsAllocated": 16,
      "BitsStored": 16,
      "BodyPartExamined": "BRAIN",
      "Columns": 832,
      "EchoNumbers": 1,
      "EchoTime": 37.0,
      "EchoTrainLength": 104,
      "FlipAngle": 52.0,
      "HighBit": 15,
      "ImageOrientationPatient": [0.99997160950328, 0.0026894218861, 0.00703897700939, -0.0005235233246, 0.95667718805144, -0.2911502769797],
      "ImagePositionPatient": [-832.19012538243, -814.70055921718, 199.82290427911],
      "ImageType": [
        "ORIGINAL",
        "PRIMARY",
        "M",
        "MB",
        "ND",
        "MOSAIC"
],
      "ImagedNucleus": "1H",
      "ImagingFrequency": 123.259076,
      "InPlanePhaseEncodingDirection": "COL",
      "MRAcquisitionType": "2D",
      "MagneticFieldStrength": 3.0,
      "Manufacturer": "SIEMENS",
      "ManufacturerModelName": "Prisma_fit",
      "Modality": "MR",
      "NumberOfAverages": 1.0,
      "NumberOfPhaseEncodingSteps": 104,
      "PercentPhaseFieldOfView": 100.0,
      "PercentSampling": 100.0,
      "PerformedProcedureStepStartTime": "132558.246000",
      "PhotometricInterpretation": "MONOCHROME2",
      "PixelBandwidth": 2290.0,
      "PixelRepresentation": 0,
      "PixelSpacing": [2.0, 2.0],
      "ProtocolName": "func_task-friends-s02e07a",
      "RepetitionTime": 1490.0,
      "Rows": 832,
      "SAR": 0.02934508174711,
      "SamplesPerPixel": 1,
      "ScanOptions": "FS",
      "ScanningSequence": "EP",
      "SequenceName": "epfid2d1_104",
      "SequenceVariant": [
        "SK",
        "SS"
],
      "SeriesDescription": "func_task-friends-s02e07a",
      "SeriesNumber": 9,
      "SeriesTime": "134848.050000",
      "SliceLocation": -39.774070129021,
      "SliceThickness": 2.0,
      "SmallestImagePixelValue": 0,
      "SoftwareVersions": "syngo MR E11",
      "SpacingBetweenSlices": 1.9999999969109,
      "SpecificCharacterSet": "ISO_IR 100",
      "StudyID": "1",
      "StudyTime": "132558.162000",
      "TransmitCoilName": "Body",
      "VariableFlipAngleFlag": "N",
      "WindowCenterWidthExplanation": "Algo1",
      "dBdt": 0.0},
    "slices": {}
  },
  "time": {
    "samples": {
      "AcquisitionNumber": [1, 2, 3, 4, 5, 6, 7, 8, 9, 10, 11, 12, 13, 14, 15, 16, 17, 18, 19, 20, 21, 22, 23, 24, 25, 26, 27, 28, 29, 30, 31, 32, 33, 34, 35, 36, 37, 38, 39, 40, 41, 42, 43, 44, 45, 46, 47, 48, 49, 50, 51, 52, 53, 54, 55, 56, 57, 58, 59, 60, 61, 62, 63, 64, 65, 66, 67, 68, 69, 70, 71, 72, 73, 74, 75, 76, 77, 78, 79, 80, 81, 82, 83, 84, 85, 86, 87, 88, 89, 90, 91, 92, 93, 94, 95, 96, 97, 98, 99, 100, 101, 102, 103, 104, 105, 106, 107, 108, 109, 110, 111, 112, 113, 114, 115, 116, 117, 118, 119, 120, 121, 122, 123, 124, 125, 126, 127, 128, 129, 130, 131, 132, 133, 134, 135, 136, 137, 138, 139, 140, 141, 142, 143, 144, 145, 146, 147, 148, 149, 150, 151, 152, 153, 154, 155, 156, 157, 158, 159, 160, 161, 162, 163, 164, 165, 166, 167, 168, 169, 170, 171, 172, 173, 174, 175, 176, 177, 178, 179, 180, 181, 182, 183, 184, 185, 186, 187, 188, 189, 190, 191, 192, 193, 194, 195, 196, 197, 198, 199, 200, 201, 202, 203, 204, 205, 206, 207, 208, 209, 210, 211, 212, 213, 214, 215, 216, 217, 218, 219, 220, 221, 222, 223, 224, 225, 226, 227, 228, 229, 230, 231, 232, 233, 234, 235, 236, 237, 238, 239, 240, 241, 242, 243, 244, 245, 246, 247, 248, 249, 250, 251, 252, 253, 254, 255, 256, 257, 258, 259, 260, 261, 262, 263, 264, 265, 266, 267, 268, 269, 270, 271, 272, 273, 274, 275, 276, 277, 278, 279, 280, 281, 282, 283, 284, 285, 286, 287, 288, 289, 290, 291, 292, 293, 294, 295, 296, 297, 298, 299, 300, 301, 302, 303, 304, 305, 306, 307, 308, 309, 310, 311, 312, 313, 314, 315, 316, 317, 318, 319, 320, 321, 322, 323, 324, 325, 326, 327, 328, 329, 330, 331, 332, 333, 334, 335, 336, 337, 338, 339, 340, 341, 342, 343, 344, 345, 346, 347, 348, 349, 350, 351, 352, 353, 354, 355, 356, 357, 358, 359, 360, 361, 362, 363, 364, 365, 366, 367, 368, 369, 370, 371, 372, 373, 374, 375, 376, 377, 378, 379, 380, 381, 382, 383, 384, 385, 386, 387, 388, 389, 390, 391, 392, 393, 394, 395, 396, 397, 398, 399, 400, 401, 402, 403, 404, 405, 406, 407, 408, 409, 410, 411, 412, 413, 414, 415, 416, 417, 418, 419, 420, 421, 422, 423, 424, 425, 426, 427, 428, 429, 430, 431, 432, 433, 434, 435, 436, 437, 438, 439, 440, 441, 442, 443, 444, 445, 446, 447, 448, 449, 450, 451, 452, 453, 454, 455, 456, 457, 458, 459, 460, 461, 462, 463, 464, 465, 466, 467, 468, 469, 470, 471, 472, 473, 474, 475, 476, 477, 478, 479, 480, 481, 482, 483, 484, 485, 486, 487, 488, 489, 490, 491, 492, 493, 494, 495, 496],
      "AcquisitionTime": ["134741.620000", "134743.110000", "134744.600000", "134746.090000", "134747.580000", "134749.070000", "134750.560000", "134752.050000", "134753.540000", "134755.030000", "134756.520000", "134758.010000", "134759.500000", "134800.990000", "134802.480000", "134803.970000", "134805.460000", "134806.950000", "134808.440000", "134809.930000", "134811.420000", "134812.910000", "134814.400000", "134815.890000", "134817.380000", "134818.870000", "134820.360000", "134821.850000", "134823.340000", "134824.830000", "134826.320000", "134827.810000", "134829.300000", "134830.790000", "134832.280000", "134833.770000", "134835.260000", "134836.750000", "134838.240000", "134839.730000", "134841.220000", "134842.710000", "134844.200000", "134845.690000", "134847.180000", "134848.670000", "134850.160000", "134851.650000", "134853.140000", "134854.630000", "134856.120000", "134857.610000", "134859.100000", "134900.590000", "134902.080000", "134903.570000", "134905.060000", "134906.550000", "134908.040000", "134909.530000", "134911.020000", "134912.510000", "134914.000000", "134915.490000", "134916.980000", "134918.470000", "134919.960000", "134921.450000", "134922.940000", "134924.430000", "134925.920000", "134927.410000", "134928.900000", "134930.390000", "134931.880000", "134933.370000", "134934.860000", "134936.350000", "134937.840000", "134939.330000", "134940.820000", "134942.310000", "134943.800000", "134945.290000", "134946.780000", "134948.270000", "134949.760000", "134951.250000", "134952.740000", "134954.230000", "134955.720000", "134957.210000", "134958.700000", "135000.190000", "135001.680000", "135003.170000", "135004.660000", "135006.150000", "135007.640000", "135009.130000", "135010.620000", "135012.110000", "135013.600000", "135015.090000", "135016.580000", "135018.070000", "135019.560000", "135021.050000", "135022.540000", "135024.030000", "135025.520000", "135027.010000", "135028.500000", "135029.990000", "135031.480000", "135032.970000", "135034.460000", "135035.950000", "135037.440000", "135038.930000", "135040.420000", "135041.910000", "135043.400000", "135044.890000", "135046.380000", "135047.870000", "135049.360000", "135050.850000", "135052.340000", "135053.830000", "135055.320000", "135056.810000", "135058.300000", "135059.790000", "135101.280000", "135102.770000", "135104.260000", "135105.750000", "135107.240000", "135108.730000", "135110.220000", "135111.710000", "135113.200000", "135114.690000", "135116.180000", "135117.670000", "135119.160000", "135120.650000", "135122.140000", "135123.630000", "135125.120000", "135126.610000", "135128.100000", "135129.590000", "135131.080000", "135132.570000", "135134.060000", "135135.550000", "135137.040000", "135138.530000", "135140.020000", "135141.510000", "135143.000000", "135144.490000", "135145.980000", "135147.470000", "135148.960000", "135150.450000", "135151.940000", "135153.430000", "135154.920000", "135156.410000", "135157.900000", "135159.390000", "135200.880000", "135202.370000", "135203.860000", "135205.350000", "135206.840000", "135208.330000", "135209.820000", "135211.310000", "135212.800000", "135214.290000", "135215.780000", "135217.270000", "135218.760000", "135220.250000", "135221.740000", "135223.230000", "135224.720000", "135226.210000", "135227.700000", "135229.190000", "135230.680000", "135232.170000", "135233.660000", "135235.150000", "135236.640000", "135238.130000", "135239.620000", "135241.110000", "135242.600000", "135244.090000", "135245.580000", "135247.070000", "135248.560000", "135250.050000", "135251.540000", "135253.030000", "135254.520000", "135256.010000", "135257.500000", "135258.990000", "135300.480000", "135301.970000", "135303.460000", "135304.950000", "135306.440000", "135307.930000", "135309.420000", "135310.910000", "135312.400000", "135313.890000", "135315.380000", "135316.870000", "135318.360000", "135319.850000", "135321.340000", "135322.830000", "135324.320000", "135325.810000", "135327.300000", "135328.790000", "135330.280000", "135331.770000", "135333.260000", "135334.750000", "135336.240000", "135337.730000", "135339.220000", "135340.710000", "135342.200000", "135343.690000", "135345.180000", "135346.670000", "135348.160000", "135349.650000", "135351.140000", "135352.630000", "135354.120000", "135355.610000", "135357.100000", "135358.590000", "135400.080000", "135401.570000", "135403.060000", "135404.550000", "135406.040000", "135407.530000", "135409.020000", "135410.510000", "135412.000000", "135413.490000", "135414.980000", "135416.470000", "135417.960000", "135419.450000", "135420.940000", "135422.430000", "135423.920000", "135425.410000", "135426.900000", "135428.390000", "135429.880000", "135431.370000", "135432.860000", "135434.350000", "135435.840000", "135437.330000", "135438.820000", "135440.310000", "135441.800000", "135443.290000", "135444.780000", "135446.270000", "135447.760000", "135449.250000", "135450.740000", "135452.230000", "135453.720000", "135455.210000", "135456.700000", "135458.190000", "135459.680000", "135501.170000", "135502.660000", "135504.150000", "135505.640000", "135507.130000", "135508.620000", "135510.110000", "135511.600000", "135513.090000", "135514.580000", "135516.070000", "135517.560000", "135519.050000", "135520.540000", "135522.030000", "135523.520000", "135525.010000", "135526.500000", "135527.990000", "135529.480000", "135530.970000", "135532.460000", "135533.950000", "135535.440000", "135536.930000", "135538.420000", "135539.910000", "135541.400000", "135542.890000", "135544.380000", "135545.870000", "135547.360000", "135548.850000", "135550.340000", "135551.830000", "135553.320000", "135554.810000", "135556.300000", "135557.790000", "135559.280000", "135600.770000", "135602.260000", "135603.750000", "135605.240000", "135606.730000", "135608.220000", "135609.710000", "135611.200000", "135612.690000", "135614.180000", "135615.670000", "135617.160000", "135618.650000", "135620.140000", "135621.630000", "135623.120000", "135624.610000", "135626.100000", "135627.590000", "135629.080000", "135630.570000", "135632.060000", "135633.550000", "135635.040000", "135636.530000", "135638.020000", "135639.510000", "135641.000000", "135642.490000", "135643.980000", "135645.470000", "135646.960000", "135648.450000", "135649.940000", "135651.430000", "135652.920000", "135654.410000", "135655.900000", "135657.390000", "135658.880000", "135700.370000", "135701.860000", "135703.350000", "135704.840000", "135706.330000", "135707.820000", "135709.310000", "135710.800000", "135712.290000", "135713.780000", "135715.270000", "135716.760000", "135718.250000", "135719.740000", "135721.230000", "135722.720000", "135724.210000", "135725.700000", "135727.190000", "135728.680000", "135730.170000", "135731.660000", "135733.150000", "135734.640000", "135736.130000", "135737.620000", "135739.110000", "135740.600000", "135742.090000", "135743.580000", "135745.070000", "135746.560000", "135748.050000", "135749.540000", "135751.030000", "135752.520000", "135754.010000", "135755.500000", "135756.990000", "135758.480000", "135759.970000", "135801.460000", "135802.950000", "135804.440000", "135805.930000", "135807.420000", "135808.910000", "135810.400000", "135811.890000", "135813.380000", "135814.870000", "135816.360000", "135817.850000", "135819.340000", "135820.830000", "135822.320000", "135823.810000", "135825.300000", "135826.790000", "135828.280000", "135829.770000", "135831.260000", "135832.750000", "135834.240000", "135835.730000", "135837.220000", "135838.710000", "135840.200000", "135841.690000", "135843.180000", "135844.670000", "135846.160000", "135847.650000", "135849.140000", "135850.630000", "135852.120000", "135853.610000", "135855.100000", "135856.590000", "135858.080000", "135859.570000", "135901.060000", "135902.550000", "135904.040000", "135905.530000", "135907.020000", "135908.510000", "135910.000000", "135911.490000", "135912.980000", "135914.470000", "135915.960000", "135917.450000", "135918.940000", "135920.430000", "135921.920000", "135923.410000", "135924.900000", "135926.390000", "135927.880000", "135929.370000", "135930.860000", "135932.350000", "135933.840000", "135935.330000", "135936.820000", "135938.310000", "135939.800000", "135941.290000", "135942.780000", "135944.270000", "135945.760000", "135947.250000", "135948.740000", "135950.230000", "135951.720000", "135953.210000", "135954.700000", "135956.190000", "135957.680000", "135959.170000"],
      "ContentTime": ["134848.053000", "134848.057000", "134848.060000", "134848.077000", "134848.080000", "134848.083000", "134848.086000", "134848.091000", "134848.094000", "134848.097000", "134848.100000", "134848.102000", "134908.027000", "134908.030000", "134908.033000", "134908.035000", "134908.040000", "134908.043000", "134908.046000", "134908.049000", "134908.052000", "134908.054000", "134908.057000", "134908.060000", "134908.063000", "134908.066000", "134908.069000", "134908.072000", "134908.074000", "134908.077000", "134908.080000", "134908.083000", "134908.086000", "134928.028000", "134928.031000", "134928.034000", "134928.037000", "134928.039000", "134928.042000", "134928.045000", "134928.048000", "134928.051000", "134928.054000", "134928.056000", "134928.060000", "134928.062000", "134928.065000", "134928.068000", "134928.071000", "134928.074000", "134928.077000", "134928.080000", "134928.083000", "134948.028000", "134948.031000", "134948.034000", "134948.037000", "134948.039000", "134948.042000", "134948.045000", "134948.052000", "134948.054000", "134948.057000", "134948.060000", "134948.063000", "134948.066000", "134948.069000", "134948.071000", "134948.074000", "134948.077000", "134948.080000", "134948.083000", "134948.086000", "135008.027000", "135008.030000", "135008.033000", "135008.036000", "135008.039000", "135008.042000", "135008.044000", "135008.047000", "135008.050000", "135008.053000", "135008.056000", "135008.059000", "135008.062000", "135008.065000", "135008.067000", "135008.070000", "135008.073000", "135008.076000", "135008.079000", "135008.082000", "135008.085000", "135048.027000", "135048.030000", "135048.033000", "135048.035000", "135048.038000", "135048.041000", "135048.052000", "135048.055000", "135048.058000", "135048.061000", "135048.064000", "135048.066000", "135048.069000", "135048.072000", "135048.075000", "135048.078000", "135048.081000", "135048.084000", "135048.087000", "135048.090000", "135048.093000", "135048.096000", "135048.098000", "135048.101000", "135048.104000", "135048.107000", "135048.110000", "135048.113000", "135048.116000", "135048.119000", "135128.027000", "135128.030000", "135128.033000", "135128.036000", "135128.039000", "135128.042000", "135128.044000", "135128.047000", "135128.050000", "135128.053000", "135128.056000", "135128.059000", "135128.062000", "135128.065000", "135128.068000", "135128.070000", "135128.073000", "135128.076000", "135128.092000", "135128.095000", "135128.098000", "135128.101000", "135128.103000", "135128.106000", "135128.109000", "135128.112000", "135128.115000", "135208.028000", "135208.031000", "135208.034000", "135208.037000", "135208.039000", "135208.043000", "135208.046000", "135208.049000", "135208.051000", "135208.054000", "135208.057000", "135208.060000", "135208.063000", "135208.066000", "135208.069000", "135208.072000", "135208.074000", "135208.077000", "135208.080000", "135208.083000", "135208.086000", "135208.089000", "135208.092000", "135208.095000", "135208.097000", "135208.100000", "135208.103000", "135248.027000", "135248.030000", "135248.033000", "135248.036000", "135248.039000", "135248.041000", "135248.045000", "135248.047000", "135248.050000", "135248.053000", "135248.056000", "135248.059000", "135248.062000", "135248.064000", "135248.068000", "135248.070000", "135248.073000", "135248.076000", "135248.079000", "135248.082000", "135248.085000", "135248.088000", "135248.091000", "135248.093000", "135248.096000", "135248.099000", "135248.102000", "135328.027000", "135328.030000", "135328.033000", "135328.036000", "135328.039000", "135328.042000", "135328.045000", "135328.048000", "135328.050000", "135328.053000", "135328.056000", "135328.059000", "135328.062000", "135328.064000", "135328.067000", "135328.070000", "135328.073000", "135328.076000", "135328.079000", "135328.082000", "135328.084000", "135328.087000", "135328.090000", "135328.093000", "135328.096000", "135328.099000", "135328.102000", "135408.028000", "135408.031000", "135408.034000", "135408.037000", "135408.040000", "135408.043000", "135408.045000", "135408.048000", "135408.056000", "135408.058000", "135408.061000", "135408.064000", "135408.067000", "135408.070000", "135408.073000", "135408.076000", "135408.079000", "135408.082000", "135408.085000", "135408.087000", "135408.090000", "135408.093000", "135408.096000", "135408.099000", "135408.102000", "135408.105000", "135408.108000", "135448.027000", "135448.030000", "135448.034000", "135448.037000", "135448.040000", "135448.043000", "135448.046000", "135448.049000", "135448.052000", "135448.055000", "135448.058000", "135448.061000", "135448.064000", "135448.067000", "135448.070000", "135448.073000", "135448.076000", "135448.079000", "135448.081000", "135448.084000", "135448.087000", "135448.090000", "135448.093000", "135448.096000", "135448.099000", "135448.102000", "135528.027000", "135528.030000", "135528.033000", "135528.036000", "135528.039000", "135528.042000", "135528.045000", "135528.047000", "135528.050000", "135528.053000", "135528.056000", "135528.059000", "135528.062000", "135528.065000", "135528.068000", "135528.071000", "135528.074000", "135528.077000", "135528.079000", "135528.082000", "135528.085000", "135528.088000", "135528.091000", "135528.094000", "135528.096000", "135528.100000", "135528.102000", "135608.027000", "135608.030000", "135608.033000", "135608.036000", "135608.039000", "135608.041000", "135608.044000", "135608.047000", "135608.050000", "135608.053000", "135608.056000", "135608.059000", "135608.062000", "135608.065000", "135608.068000", "135608.070000", "135608.073000", "135608.076000", "135608.079000", "135608.082000", "135608.085000", "135608.088000", "135608.091000", "135608.093000", "135608.097000", "135608.099000", "135608.102000", "135648.028000", "135648.031000", "135648.034000", "135648.037000", "135648.040000", "135648.042000", "135648.045000", "135648.048000", "135648.051000", "135648.054000", "135648.057000", "135648.060000", "135648.063000", "135648.065000", "135648.068000", "135648.071000", "135648.074000", "135648.077000", "135648.080000", "135648.083000", "135648.086000", "135648.089000", "135648.091000", "135648.094000", "135648.097000", "135648.100000", "135648.103000", "135728.027000", "135728.030000", "135728.033000", "135728.036000", "135728.039000", "135728.041000", "135728.045000", "135728.047000", "135728.050000", "135728.053000", "135728.056000", "135728.059000", "135728.062000", "135728.065000", "135728.068000", "135728.071000", "135728.073000", "135728.076000", "135728.079000", "135728.082000", "135728.085000", "135728.088000", "135728.091000", "135728.094000", "135728.097000", "135728.100000", "135728.103000", "135808.027000", "135808.030000", "135808.033000", "135808.036000", "135808.039000", "135808.042000", "135808.045000", "135808.048000", "135808.050000", "135808.053000", "135808.056000", "135808.059000", "135808.062000", "135808.065000", "135808.068000", "135808.071000", "135808.073000", "135808.076000", "135808.079000", "135808.082000", "135808.085000", "135808.088000", "135808.091000", "135808.094000", "135808.096000", "135808.099000", "135808.102000", "135848.028000", "135848.032000", "135848.035000", "135848.038000", "135848.041000", "135848.044000", "135848.047000", "135848.050000", "135848.053000", "135848.056000", "135848.058000", "135848.061000", "135848.064000", "135848.067000", "135848.070000", "135848.073000", "135848.076000", "135848.079000", "135848.082000", "135848.084000", "135848.087000", "135848.090000", "135848.093000", "135848.096000", "135848.099000", "135848.102000", "135848.105000", "135928.027000", "135928.030000", "135928.033000", "135928.036000", "135928.039000", "135928.042000", "135928.045000", "135928.048000", "135928.050000", "135928.054000", "135928.056000", "135928.059000", "135928.062000", "135928.065000", "135928.068000", "135928.071000", "135928.074000", "135928.077000", "135928.080000", "135928.083000", "135928.086000", "135928.089000", "135928.092000", "135928.095000", "135928.097000", "135928.100000", "140000.979000", "140000.982000", "140000.985000", "140000.988000", "140000.991000", "140000.993000", "140000.996000", "140000.999000", "140001.002000", "140001.005000", "140001.008000", "140001.011000", "140001.014000", "140001.017000", "140001.020000", "140001.023000", "140001.026000", "140001.029000", "140001.031000", "140001.035000", "140001.038000", "140001.041000", "140001.044000"],
