{
  "AcquisitionMatrixPE": 104,
  "AcquisitionNumber": 1,
  "AcquisitionTime": "14:00:27.752500",
  "BandwidthPerPixelPhaseEncode": 17.17,
  "BaseResolution": 104,
  "BodyPartExamined": "BRAIN",
  "CoilString": "HC1-7;NC1_2",
  "ConsistencyInfo": "N4_VE11C_LATEST_20160120",
  "ConversionSoftware": "dcm2niix",
  "ConversionSoftwareVersion": "v1.0.20200427",
  "DerivedVendorReportedEchoSpacing": 0.000560011,
  "DeviceSerialNumber": "167006",
  "DwellTime": 2.1e-06,
  "EchoTime": 0.037,
  "EchoTrainLength": 104,
  "EffectiveEchoSpacing": 0.000560011,
  "FlipAngle": 52,
  "ImageComments": "Unaliased_MB4_PE3_LB",
  "ImageOrientationPatientDICOM": [0.999972, 0.00268942, 0.00703898, -0.000523523, 0.956677, -0.29115],
  "ImageType": [
    "ORIGINAL",
    "PRIMARY",
    "M",
    "MB",
    "ND",
    "MOSAIC"
],
  "ImagingFrequency": 123.259,
  "InPlanePhaseEncodingDirectionDICOM": "COL",
  "InstitutionAddress": "Chemin_Queen-Mary_4565_Montreal_District_CA_H3W_1W5",
  "InstitutionName": "IUGM",
  "InstitutionalDepartmentName": "Department",
  "MRAcquisitionType": "2D",
  "MagneticFieldStrength": 3,
  "Manufacturer": "Siemens",
  "ManufacturersModelName": "Prisma_fit",
  "Modality": "MR",
  "MultibandAccelerationFactor": 4,
  "PartialFourier": 1,
  "PatientPosition": "HFS",
  "PercentPhaseFOV": 100,
  "PercentSampling": 100,
  "PhaseEncodingDirection": "j",
  "PhaseEncodingSteps": 104,
  "PhaseResolution": 1,
  "PixelBandwidth": 2290,
  "ProcedureStepDescription": "video_friends",
  "ProtocolName": "func_task-friends-s02e07b",
  "PulseSequenceDetails": "%CustomerSeq%_cmrr_mbep2d_bold",
  "ReceiveCoilActiveElements": "HC1-7;NC1,2",
  "ReceiveCoilName": "HeadNeck_64",
  "ReconMatrixPE": 104,
  "RepetitionTime": 1.49,
  "SAR": 0.0293451,
  "ScanOptions": "FS",
  "ScanningSequence": "EP",
  "SequenceName": "epfid2d1_104",
  "SequenceVariant": "SK_SS",
  "SeriesDescription": "func_task-friends-s02e07b",
  "SeriesNumber": 11,
  "ShimSetting": [625, -7216, -8809, 747, 22, -14, 5, 15],
  "SliceThickness": 2,
  "SliceTiming": [0, 0.7825, 0.0975, 0.8825, 0.195, 0.98, 0.2925, 1.0775, 0.3925, 1.175, 0.49, 1.2725, 0.5875, 1.3725, 0.685, 0, 0.7825, 0.0975, 0.8825, 0.195, 0.98, 0.2925, 1.0775, 0.3925, 1.175, 0.49, 1.2725, 0.5875, 1.3725, 0.685, 0, 0.7825, 0.0975, 0.8825, 0.195, 0.98, 0.2925, 1.0775, 0.3925, 1.175, 0.49, 1.2725, 0.5875, 1.3725, 0.685, 0, 0.7825, 0.0975, 0.8825, 0.195, 0.98, 0.2925, 1.0775, 0.3925, 1.175, 0.49, 1.2725, 0.5875, 1.3725, 0.685],
  "SoftwareVersions": "syngo_MR_E11",
  "SpacingBetweenSlices": 2,
  "StationName": "MRC35049",
  "TaskName": "s02e07b",
  "TotalReadoutTime": 0.0576811,
  "TxRefAmp": 205.186,
  "WipMemBlock": "882b7156-31e4-46f7-bd68-9515eafc3837||Sequence: R016 ve11c/master r/e634e98; Dec 19 2017 11:00:25 by eja",
  "dcmmeta_affine": [
    [-1.9999432563781738, -0.001047046622261405, 0.015034109354019165, 104.69976806640625],
    [-0.005378843750804663, 1.9133543968200684, -0.5822766423225403, -80.79383087158203],
    [0.01407795399427414, 0.5823005437850952, 1.9133028984069824, -66.98707580566406],
    [0.0, 0.0, 0.0, 1.0]
],
  "dcmmeta_reorient_transform": [
    [0.0, -1.0, 0.0, 103.0],
    [1.0, 0.0, 0.0, 0.0],
    [0.0, 0.0, 1.0, 0.0],
    [0.0, 0.0, 0.0, 1.0]
],
  "dcmmeta_shape": [104, 104, 60, 496],
  "dcmmeta_slice_dim": 2,
  "dcmmeta_version": 0.6,
  "global": {
    "const": {
      "AcquisitionMatrix": [104, 0, 0, 104],
      "AngioFlag": "N",
      "BitsAllocated": 16,
      "BitsStored": 16,
      "BodyPartExamined": "BRAIN",
      "Columns": 832,
      "EchoNumbers": 1,
      "EchoTime": 37.0,
      "EchoTrainLength": 104,
      "FlipAngle": 52.0,
      "HighBit": 15,
      "ImageOrientationPatient": [0.99997160950328, 0.0026894218861, 0.00703897700939, -0.0005235233246, 0.95667718805144, -0.2911502769797],
      "ImagePositionPatient": [-832.19012538243, -814.70055921718, 199.82290427911],
      "ImageType": [
        "ORIGINAL",
        "PRIMARY",
        "M",
        "MB",
        "ND",
        "MOSAIC"
],
      "ImagedNucleus": "1H",
      "ImagingFrequency": 123.259088,
      "InPlanePhaseEncodingDirection": "COL",
      "MRAcquisitionType": "2D",
      "MagneticFieldStrength": 3.0,
      "Manufacturer": "SIEMENS",
      "ManufacturerModelName": "Prisma_fit",
      "Modality": "MR",
      "NumberOfAverages": 1.0,
      "NumberOfPhaseEncodingSteps": 104,
      "PercentPhaseFieldOfView": 100.0,
      "PercentSampling": 100.0,
      "PerformedProcedureStepStartTime": "132558.246000",
      "PhotometricInterpretation": "MONOCHROME2",
      "PixelBandwidth": 2290.0,
      "PixelRepresentation": 0,
      "PixelSpacing": [2.0, 2.0],
      "ProtocolName": "func_task-friends-s02e07b",
      "RepetitionTime": 1490.0,
      "Rows": 832,
      "SAR": 0.02934508174711,
      "SamplesPerPixel": 1,
      "ScanOptions": "FS",
      "ScanningSequence": "EP",
      "SequenceName": "epfid2d1_104",
      "SequenceVariant": [
        "SK",
        "SS"
],
      "SeriesDescription": "func_task-friends-s02e07b",
      "SeriesNumber": 11,
      "SeriesTime": "140145.917000",
      "SliceLocation": -39.774070129021,
      "SliceThickness": 2.0,
      "SmallestImagePixelValue": 0,
      "SoftwareVersions": "syngo MR E11",
      "SpacingBetweenSlices": 1.9999999969109,
      "SpecificCharacterSet": "ISO_IR 100",
      "StudyID": "1",
      "StudyTime": "132558.162000",
      "TransmitCoilName": "Body",
      "VariableFlipAngleFlag": "N",
      "WindowCenterWidthExplanation": "Algo1",
      "dBdt": 0.0},
    "slices": {}
  },
  "time": {
    "samples": {
      "AcquisitionNumber": [1, 2, 3, 4, 5, 6, 7, 8, 9, 10, 11, 12, 13, 14, 15, 16, 17, 18, 19, 20, 21, 22, 23, 24, 25, 26, 27, 28, 29, 30, 31, 32, 33, 34, 35, 36, 37, 38, 39, 40, 41, 42, 43, 44, 45, 46, 47, 48, 49, 50, 51, 52, 53, 54, 55, 56, 57, 58, 59, 60, 61, 62, 63, 64, 65, 66, 67, 68, 69, 70, 71, 72, 73, 74, 75, 76, 77, 78, 79, 80, 81, 82, 83, 84, 85, 86, 87, 88, 89, 90, 91, 92, 93, 94, 95, 96, 97, 98, 99, 100, 101, 102, 103, 104, 105, 106, 107, 108, 109, 110, 111, 112, 113, 114, 115, 116, 117, 118, 119, 120, 121, 122, 123, 124, 125, 126, 127, 128, 129, 130, 131, 132, 133, 134, 135, 136, 137, 138, 139, 140, 141, 142, 143, 144, 145, 146, 147, 148, 149, 150, 151, 152, 153, 154, 155, 156, 157, 158, 159, 160, 161, 162, 163, 164, 165, 166, 167, 168, 169, 170, 171, 172, 173, 174, 175, 176, 177, 178, 179, 180, 181, 182, 183, 184, 185, 186, 187, 188, 189, 190, 191, 192, 193, 194, 195, 196, 197, 198, 199, 200, 201, 202, 203, 204, 205, 206, 207, 208, 209, 210, 211, 212, 213, 214, 215, 216, 217, 218, 219, 220, 221, 222, 223, 224, 225, 226, 227, 228, 229, 230, 231, 232, 233, 234, 235, 236, 237, 238, 239, 240, 241, 242, 243, 244, 245, 246, 247, 248, 249, 250, 251, 252, 253, 254, 255, 256, 257, 258, 259, 260, 261, 262, 263, 264, 265, 266, 267, 268, 269, 270, 271, 272, 273, 274, 275, 276, 277, 278, 279, 280, 281, 282, 283, 284, 285, 286, 287, 288, 289, 290, 291, 292, 293, 294, 295, 296, 297, 298, 299, 300, 301, 302, 303, 304, 305, 306, 307, 308, 309, 310, 311, 312, 313, 314, 315, 316, 317, 318, 319, 320, 321, 322, 323, 324, 325, 326, 327, 328, 329, 330, 331, 332, 333, 334, 335, 336, 337, 338, 339, 340, 341, 342, 343, 344, 345, 346, 347, 348, 349, 350, 351, 352, 353, 354, 355, 356, 357, 358, 359, 360, 361, 362, 363, 364, 365, 366, 367, 368, 369, 370, 371, 372, 373, 374, 375, 376, 377, 378, 379, 380, 381, 382, 383, 384, 385, 386, 387, 388, 389, 390, 391, 392, 393, 394, 395, 396, 397, 398, 399, 400, 401, 402, 403, 404, 405, 406, 407, 408, 409, 410, 411, 412, 413, 414, 415, 416, 417, 418, 419, 420, 421, 422, 423, 424, 425, 426, 427, 428, 429, 430, 431, 432, 433, 434, 435, 436, 437, 438, 439, 440, 441, 442, 443, 444, 445, 446, 447, 448, 449, 450, 451, 452, 453, 454, 455, 456, 457, 458, 459, 460, 461, 462, 463, 464, 465, 466, 467, 468, 469, 470, 471, 472, 473, 474, 475, 476, 477, 478, 479, 480, 481, 482, 483, 484, 485, 486, 487, 488, 489, 490, 491, 492, 493, 494, 495, 496],
      "AcquisitionTime": ["140027.752500", "140029.242500", "140030.732500", "140032.222500", "140033.712500", "140035.202500", "140036.692500", "140038.182500", "140039.672500", "140041.162500", "140042.652500", "140044.142500", "140045.632500", "140047.122500", "140048.612500", "140050.102500", "140051.592500", "140053.082500", "140054.572500", "140056.062500", "140057.552500", "140059.042500", "140100.532500", "140102.022500", "140103.512500", "140105.002500", "140106.492500", "140107.982500", "140109.472500", "140110.962500", "140112.452500", "140113.942500", "140115.432500", "140116.922500", "140118.412500", "140119.902500", "140121.392500", "140122.882500", "140124.372500", "140125.862500", "140127.352500", "140128.842500", "140130.332500", "140131.822500", "140133.312500", "140134.802500", "140136.292500", "140137.782500", "140139.272500", "140140.762500", "140142.252500", "140143.742500", "140145.232500", "140146.722500", "140148.212500", "140149.702500", "140151.192500", "140152.682500", "140154.172500", "140155.662500", "140157.152500", "140158.642500", "140200.132500", "140201.622500", "140203.112500", "140204.602500", "140206.092500", "140207.582500", "140209.072500", "140210.562500", "140212.052500", "140213.542500", "140215.032500", "140216.522500", "140218.012500", "140219.502500", "140220.992500", "140222.482500", "140223.972500", "140225.462500", "140226.952500", "140228.442500", "140229.932500", "140231.422500", "140232.912500", "140234.402500", "140235.892500", "140237.382500", "140238.872500", "140240.362500", "140241.852500", "140243.342500", "140244.832500", "140246.322500", "140247.812500", "140249.302500", "140250.792500", "140252.282500", "140253.772500", "140255.262500", "140256.752500", "140258.242500", "140259.732500", "140301.222500", "140302.712500", "140304.202500", "140305.692500", "140307.182500", "140308.672500", "140310.162500", "140311.652500", "140313.142500", "140314.632500", "140316.122500", "140317.612500", "140319.102500", "140320.592500", "140322.082500", "140323.572500", "140325.062500", "140326.552500", "140328.042500", "140329.532500", "140331.022500", "140332.512500", "140334.002500", "140335.492500", "140336.982500", "140338.472500", "140339.962500", "140341.452500", "140342.942500", "140344.432500", "140345.922500", "140347.412500", "140348.902500", "140350.392500", "140351.882500", "140353.372500", "140354.862500", "140356.352500", "140357.842500", "140359.332500", "140400.822500", "140402.312500", "140403.802500", "140405.292500", "140406.782500", "140408.272500", "140409.762500", "140411.252500", "140412.742500", "140414.232500", "140415.722500", "140417.212500", "140418.702500", "140420.192500", "140421.682500", "140423.172500", "140424.662500", "140426.152500", "140427.642500", "140429.132500", "140430.622500", "140432.112500", "140433.602500", "140435.092500", "140436.582500", "140438.072500", "140439.562500", "140441.052500", "140442.542500", "140444.032500", "140445.522500", "140447.012500", "140448.502500", "140449.992500", "140451.482500", "140452.972500", "140454.462500", "140455.952500", "140457.442500", "140458.932500", "140500.422500", "140501.912500", "140503.402500", "140504.892500", "140506.382500", "140507.872500", "140509.362500", "140510.852500", "140512.342500", "140513.832500", "140515.322500", "140516.812500", "140518.302500", "140519.792500", "140521.282500", "140522.772500", "140524.262500", "140525.752500", "140527.242500", "140528.732500", "140530.222500", "140531.712500", "140533.202500", "140534.692500", "140536.182500", "140537.672500", "140539.162500", "140540.652500", "140542.142500", "140543.632500", "140545.122500", "140546.612500", "140548.102500", "140549.592500", "140551.082500", "140552.572500", "140554.062500", "140555.552500", "140557.042500", "140558.532500", "140600.022500", "140601.512500", "140603.002500", "140604.492500", "140605.982500", "140607.472500", "140608.962500", "140610.452500", "140611.942500", "140613.432500", "140614.922500", "140616.412500", "140617.902500", "140619.392500", "140620.882500", "140622.372500", "140623.862500", "140625.352500", "140626.842500", "140628.332500", "140629.822500", "140631.312500", "140632.802500", "140634.292500", "140635.782500", "140637.272500", "140638.762500", "140640.252500", "140641.742500", "140643.232500", "140644.722500", "140646.212500", "140647.702500", "140649.192500", "140650.682500", "140652.172500", "140653.662500", "140655.152500", "140656.642500", "140658.132500", "140659.622500", "140701.112500", "140702.602500", "140704.092500", "140705.582500", "140707.072500", "140708.562500", "140710.052500", "140711.542500", "140713.032500", "140714.522500", "140716.012500", "140717.502500", "140718.992500", "140720.482500", "140721.972500", "140723.462500", "140724.952500", "140726.442500", "140727.932500", "140729.422500", "140730.912500", "140732.402500", "140733.892500", "140735.382500", "140736.872500", "140738.362500", "140739.852500", "140741.342500", "140742.832500", "140744.322500", "140745.812500", "140747.302500", "140748.792500", "140750.282500", "140751.772500", "140753.262500", "140754.752500", "140756.242500", "140757.732500", "140759.222500", "140800.712500", "140802.202500", "140803.692500", "140805.182500", "140806.672500", "140808.162500", "140809.652500", "140811.142500", "140812.632500", "140814.122500", "140815.612500", "140817.102500", "140818.592500", "140820.082500", "140821.572500", "140823.062500", "140824.552500", "140826.042500", "140827.532500", "140829.022500", "140830.512500", "140832.002500", "140833.492500", "140834.982500", "140836.472500", "140837.962500", "140839.452500", "140840.942500", "140842.432500", "140843.922500", "140845.412500", "140846.902500", "140848.392500", "140849.882500", "140851.372500", "140852.862500", "140854.352500", "140855.842500", "140857.332500", "140858.822500", "140900.312500", "140901.802500", "140903.292500", "140904.782500", "140906.272500", "140907.762500", "140909.252500", "140910.742500", "140912.232500", "140913.722500", "140915.212500", "140916.702500", "140918.192500", "140919.682500", "140921.172500", "140922.662500", "140924.152500", "140925.642500", "140927.132500", "140928.622500", "140930.112500", "140931.602500", "140933.092500", "140934.582500", "140936.072500", "140937.562500", "140939.052500", "140940.542500", "140942.032500", "140943.522500", "140945.012500", "140946.502500", "140947.992500", "140949.482500", "140950.972500", "140952.462500", "140953.952500", "140955.442500", "140956.932500", "140958.422500", "140959.912500", "141001.402500", "141002.892500", "141004.382500", "141005.872500", "141007.362500", "141008.852500", "141010.342500", "141011.832500", "141013.322500", "141014.812500", "141016.302500", "141017.792500", "141019.282500", "141020.772500", "141022.262500", "141023.752500", "141025.242500", "141026.732500", "141028.222500", "141029.712500", "141031.202500", "141032.692500", "141034.182500", "141035.672500", "141037.162500", "141038.652500", "141040.142500", "141041.632500", "141043.122500", "141044.612500", "141046.102500", "141047.592500", "141049.082500", "141050.572500", "141052.062500", "141053.552500", "141055.042500", "141056.532500", "141058.022500", "141059.512500", "141101.002500", "141102.492500", "141103.982500", "141105.472500", "141106.962500", "141108.452500", "141109.942500", "141111.432500", "141112.922500", "141114.412500", "141115.902500", "141117.392500", "141118.882500", "141120.372500", "141121.862500", "141123.352500", "141124.842500", "141126.332500", "141127.822500", "141129.312500", "141130.802500", "141132.292500", "141133.782500", "141135.272500", "141136.762500", "141138.252500", "141139.742500", "141141.232500", "141142.722500", "141144.212500", "141145.702500", "141147.192500", "141148.682500", "141150.172500", "141151.662500", "141153.152500", "141154.642500", "141156.132500", "141157.622500", "141159.112500", "141200.602500", "141202.092500", "141203.582500", "141205.072500", "141206.562500", "141208.052500", "141209.542500", "141211.032500", "141212.522500", "141214.012500", "141215.502500", "141216.992500", "141218.482500", "141219.972500", "141221.462500", "141222.952500", "141224.442500", "141225.932500", "141227.422500", "141228.912500", "141230.402500", "141231.892500", "141233.382500", "141234.872500", "141236.362500", "141237.852500", "141239.342500", "141240.832500", "141242.322500", "141243.812500", "141245.302500"],
      "ContentTime": ["140145.920000", "140145.923000", "140145.926000", "140145.929000", "140145.932000", "140145.935000", "140145.938000", "140145.940000", "140145.943000", "140145.946000", "140145.949000", "140145.971000", "140145.974000", "140145.981000", "140145.984000", "140145.987000", "140145.990000", "140145.993000", "140145.995000", "140145.998000", "140146.002000", "140146.005000", "140146.008000", "140146.011000", "140205.886000", "140205.889000", "140205.892000", "140205.895000", "140205.898000", "140205.900000", "140205.903000", "140205.906000", "140205.909000", "140205.912000", "140205.915000", "140205.917000", "140205.920000", "140205.923000", "140205.926000", "140205.929000", "140205.932000", "140205.935000", "140205.937000", "140205.940000", "140225.886000", "140225.889000", "140225.892000", "140225.894000", "140225.897000", "140225.907000", "140225.909000", "140225.912000", "140225.915000", "140225.918000", "140225.921000", "140225.924000", "140225.927000", "140225.929000", "140225.932000", "140225.935000", "140225.938000", "140225.941000", "140225.944000", "140225.947000", "140245.886000", "140245.889000", "140245.892000", "140245.895000", "140245.898000", "140245.900000", "140245.903000", "140245.906000", "140245.909000", "140245.912000", "140245.915000", "140245.917000", "140245.920000", "140245.923000", "140245.926000", "140245.929000", "140245.932000", "140245.935000", "140245.937000", "140245.940000", "140305.885000", "140305.888000", "140305.891000", "140305.893000", "140305.897000", "140305.899000", "140305.902000", "140305.905000", "140305.908000", "140305.911000", "140305.914000", "140305.918000", "140305.921000", "140305.925000", "140305.928000", "140305.931000", "140305.934000", "140305.937000", "140305.940000", "140305.943000", "140345.886000", "140345.889000", "140345.892000", "140345.895000", "140345.916000", "140345.919000", "140345.922000", "140345.925000", "140345.928000", "140345.930000", "140345.933000", "140345.936000", "140345.939000", "140345.942000", "140345.945000", "140345.948000", "140345.951000", "140345.953000", "140345.956000", "140345.959000", "140345.962000", "140345.965000", "140345.968000", "140345.971000", "140345.973000", "140345.976000", "140345.979000", "140345.982000", "140425.886000", "140425.889000", "140425.892000", "140425.895000", "140425.898000", "140425.900000", "140425.903000", "140425.906000", "140425.909000", "140425.912000", "140425.915000", "140425.918000", "140425.921000", "140425.923000", "140425.926000", "140425.929000", "140425.932000", "140425.935000", "140425.938000", "140425.941000", "140425.944000", "140425.947000", "140425.950000", "140425.952000", "140425.955000", "140425.958000", "140425.961000", "140505.886000", "140505.889000", "140505.892000", "140505.895000", "140505.897000", "140505.900000", "140505.903000", "140505.906000", "140505.909000", "140505.911000", "140505.914000", "140505.917000", "140505.920000", "140505.923000", "140505.926000", "140505.929000", "140505.931000", "140505.934000", "140505.937000", "140505.940000", "140505.943000", "140505.945000", "140505.948000", "140505.951000", "140505.954000", "140505.957000", "140505.960000", "140545.886000", "140545.889000", "140545.892000", "140545.895000", "140545.898000", "140545.900000", "140545.903000", "140545.906000", "140545.910000", "140545.922000", "140545.925000", "140545.928000", "140545.931000", "140545.934000", "140545.937000", "140545.940000", "140545.943000", "140545.946000", "140545.949000", "140545.952000", "140545.955000", "140545.958000", "140545.962000", "140545.965000", "140545.968000", "140545.971000", "140625.886000", "140625.889000", "140625.892000", "140625.895000", "140625.897000", "140625.900000", "140625.903000", "140625.906000", "140625.909000", "140625.912000", "140625.914000", "140625.917000", "140625.920000", "140625.923000", "140625.926000", "140625.929000", "140625.932000", "140625.934000", "140625.937000", "140625.940000", "140625.943000", "140625.946000", "140625.949000", "140625.952000", "140625.954000", "140625.957000", "140625.960000", "140705.886000", "140705.889000", "140705.892000", "140705.895000", "140705.897000", "140705.900000", "140705.903000", "140705.906000", "140705.909000", "140705.912000", "140705.915000", "140705.918000", "140705.921000", "140705.924000", "140705.927000", "140705.929000", "140705.933000", "140705.936000", "140705.939000", "140705.942000", "140705.945000", "140705.948000", "140705.951000", "140705.954000", "140705.957000", "140705.960000", "140705.963000", "140745.885000", "140745.888000", "140745.891000", "140745.894000", "140745.897000", "140745.899000", "140745.902000", "140745.905000", "140745.908000", "140745.911000", "140745.914000", "140745.917000", "140745.919000", "140745.922000", "140745.925000", "140745.928000", "140745.931000", "140745.934000", "140745.936000", "140745.939000", "140745.942000", "140745.945000", "140745.948000", "140745.951000", "140745.954000", "140745.957000", "140745.959000", "140825.886000", "140825.889000", "140825.892000", "140825.895000", "140825.898000", "140825.900000", "140825.903000", "140825.906000", "140825.909000", "140825.912000", "140825.915000", "140825.918000", "140825.920000", "140825.923000", "140825.926000", "140825.929000", "140825.932000", "140825.934000", "140825.937000", "140825.940000", "140825.943000", "140825.946000", "140825.949000", "140825.952000", "140825.954000", "140825.957000", "140825.960000", "140905.886000", "140905.889000", "140905.892000", "140905.894000", "140905.897000", "140905.900000", "140905.903000", "140905.906000", "140905.909000", "140905.912000", "140905.915000", "140905.917000", "140905.920000", "140905.923000", "140905.926000", "140905.929000", "140905.932000", "140905.934000", "140905.937000", "140905.940000", "140905.943000", "140905.946000", "140905.949000", "140905.952000", "140905.954000", "140905.957000", "140905.960000", "140945.886000", "140945.889000", "140945.892000", "140945.895000", "140945.898000", "140945.901000", "140945.904000", "140945.907000", "140945.910000", "140945.913000", "140945.917000", "140945.920000", "140945.923000", "140945.926000", "140945.929000", "140945.932000", "140945.935000", "140945.938000", "140945.941000", "140945.944000", "140945.946000", "140945.949000", "140945.952000", "140945.955000", "140945.958000", "140945.961000", "141025.886000", "141025.889000", "141025.892000", "141025.895000", "141025.898000", "141025.909000", "141025.912000", "141025.914000", "141025.917000", "141025.920000", "141025.923000", "141025.926000", "141025.929000", "141025.931000", "141025.934000", "141025.937000", "141025.940000", "141025.943000", "141025.946000", "141025.949000", "141025.951000", "141025.954000", "141025.957000", "141025.960000", "141025.963000", "141025.966000", "141025.968000", "141105.886000", "141105.889000", "141105.892000", "141105.895000", "141105.897000", "141105.900000", "141105.903000", "141105.906000", "141105.909000", "141105.912000", "141105.915000", "141105.917000", "141105.920000", "141105.923000", "141105.926000", "141105.929000", "141105.932000", "141105.934000", "141105.937000", "141105.940000", "141105.943000", "141105.946000", "141105.949000", "141105.952000", "141105.954000", "141105.957000", "141105.960000", "141145.886000", "141145.889000", "141145.892000", "141145.895000", "141145.898000", "141145.901000", "141145.903000", "141145.906000", "141145.909000", "141145.912000", "141145.915000", "141145.918000", "141145.921000", "141145.923000", "141145.926000", "141145.929000", "141145.932000", "141145.935000", "141145.938000", "141145.941000", "141145.943000", "141145.946000", "141145.949000", "141145.952000", "141145.955000", "141145.958000", "141145.961000", "141225.885000", "141225.888000", "141225.891000", "141225.894000", "141225.897000", "141225.899000", "141225.902000", "141225.905000", "141225.908000", "141225.911000", "141225.914000", "141225.916000", "141225.919000", "141225.922000", "141225.925000", "141225.928000", "141225.931000", "141225.934000", "141225.937000", "141225.940000", "141225.942000", "141225.945000", "141225.948000", "141225.951000", "141225.954000", "141225.957000", "141225.960000", "141247.759000", "141247.762000", "141247.765000", "141247.768000", "141247.771000", "141247.774000", "141247.777000", "141247.780000", "141247.782000", "141247.785000", "141247.788000", "141247.791000", "141247.794000", "141247.797000", "141247.799000"],
