{
  "AcquisitionMatrixPE": 104,
  "AcquisitionNumber": 1,
  "AcquisitionTime": "17:58:17.837500",
  "BandwidthPerPixelPhaseEncode": 17.17,
  "BaseResolution": 104,
  "BodyPartExamined": "BRAIN",
  "CoilString": "HC1-7;NC1_2",
  "ConsistencyInfo": "N4_VE11C_LATEST_20160120",
  "ConversionSoftware": "dcm2niix",
  "ConversionSoftwareVersion": "v1.0.20190902",
  "DerivedVendorReportedEchoSpacing": 0.000560011,
  "DeviceSerialNumber": "167006",
  "DwellTime": 2.1e-06,
  "EchoTime": 0.037,
  "EchoTrainLength": 104,
  "EffectiveEchoSpacing": 0.000560011,
  "FlipAngle": 52,
  "ImageComments": "Unaliased_MB4_PE3_LB",
  "ImageOrientationPatientDICOM": [0.999438, -0.0305798, -0.0137637, 0.0230295, 0.924225, -0.381154],
  "ImageType": [
    "ORIGINAL",
    "PRIMARY",
    "M",
    "MB",
    "ND",
    "MOSAIC"
],
  "ImagingFrequency": 123.259,
  "InPlanePhaseEncodingDirectionDICOM": "COL",
  "InstitutionAddress": "Chemin_Queen-Mary_4565_Montreal_District_CA_H3W_1W5",
  "InstitutionName": "IUGM",
  "InstitutionalDepartmentName": "Department",
  "MRAcquisitionType": "2D",
  "MagneticFieldStrength": 3,
  "Manufacturer": "Siemens",
  "ManufacturersModelName": "Prisma_fit",
  "Modality": "MR",
  "MultibandAccelerationFactor": 4,
  "PartialFourier": 1,
  "PatientPosition": "HFS",
  "PercentPhaseFOV": 100,
  "PhaseEncodingDirection": "j",
  "PhaseEncodingSteps": 104,
  "PhaseResolution": 1,
  "PixelBandwidth": 2290,
  "ProcedureStepDescription": "video_friends",
  "ProtocolName": "func_task-friends-s04e09a",
  "PulseSequenceDetails": "%CustomerSeq%_cmrr_mbep2d_bold",
  "ReceiveCoilActiveElements": "HC1-7;NC1,2",
  "ReceiveCoilName": "HeadNeck_64",
  "ReconMatrixPE": 104,
  "RepetitionTime": 1.49,
  "SAR": 0.037391,
  "ScanOptions": "FS",
  "ScanningSequence": "EP",
  "SequenceName": "epfid2d1_104",
  "SequenceVariant": "SK_SS",
  "SeriesDescription": "func_task-friends-s04e09a",
  "SeriesNumber": 9,
  "ShimSetting": [611, -7295, -8814, 407, -4, -455, 63, 55],
  "SliceThickness": 2,
  "SliceTiming": [0, 0.7825, 0.0975, 0.8825, 0.195, 0.98, 0.2925, 1.0775, 0.3925, 1.175, 0.49, 1.2725, 0.5875, 1.3725, 0.685, 0, 0.7825, 0.0975, 0.8825, 0.195, 0.98, 0.2925, 1.0775, 0.3925, 1.175, 0.49, 1.2725, 0.5875, 1.3725, 0.685, 0, 0.7825, 0.0975, 0.8825, 0.195, 0.98, 0.2925, 1.0775, 0.3925, 1.175, 0.49, 1.2725, 0.5875, 1.3725, 0.685, 0, 0.7825, 0.0975, 0.8825, 0.195, 0.98, 0.2925, 1.0775, 0.3925, 1.175, 0.49, 1.2725, 0.5875, 1.3725, 0.685],
  "SoftwareVersions": "syngo_MR_E11",
  "SpacingBetweenSlices": 2,
  "StationName": "MRC35049",
  "TaskName": "s04e09a",
  "TotalReadoutTime": 0.0576811,
  "TxRefAmp": 240.876,
  "WipMemBlock": "e0c899b4-ce74-477b-b6e1-a3a2ad9f5384||Sequence: R016 ve11c/master r/e634e98; Dec 19 2017 11:00:25 by eja",
  "dcmmeta_affine": [
    [-1.9988751411437988, 0.04605899378657341, -0.04875277727842331, 98.6860580444336],
    [0.06115966662764549, 1.848449468612671, -0.7612450122833252, -70.48688507080078],
    [-0.02752743288874626, 0.7623077034950256, 1.848818302154541, -61.2135124206543],
    [0.0, 0.0, 0.0, 1.0]
],
  "dcmmeta_reorient_transform": [
    [0.0, -1.0, 0.0, 103.0],
    [1.0, 0.0, 0.0, 0.0],
    [0.0, 0.0, 1.0, 0.0],
    [0.0, 0.0, 0.0, 1.0]
],
  "dcmmeta_shape": [104, 104, 60, 441],
  "dcmmeta_slice_dim": 2,
  "dcmmeta_version": 0.6,
  "global": {
    "const": {
      "AcquisitionMatrix": [104, 0, 0, 104],
      "AngioFlag": "N",
      "BitsAllocated": 16,
      "BitsStored": 16,
      "BodyPartExamined": "BRAIN",
      "Columns": 832,
      "EchoNumbers": 1,
      "EchoTime": 37.0,
      "EchoTrainLength": 104,
      "FlipAngle": 52.0,
      "HighBit": 15,
      "ImageOrientationPatient": [0.9994375587799, -0.0305798333588, -0.0137637164974, 0.02302949774346, 0.92422474423074, -0.3811538592029],
      "ImagePositionPatient": [-847.78615124625, -770.47690605545, 304.80417673635],
      "ImageType": [
        "ORIGINAL",
        "PRIMARY",
        "M",
        "MB",
        "ND",
        "MOSAIC"
],
      "ImagedNucleus": "1H",
      "ImagingFrequency": 123.258923,
      "InPlanePhaseEncodingDirection": "COL",
      "MRAcquisitionType": "2D",
      "MagneticFieldStrength": 3.0,
      "Manufacturer": "SIEMENS",
      "ManufacturerModelName": "Prisma_fit",
      "Modality": "MR",
      "NumberOfAverages": 1.0,
      "NumberOfPhaseEncodingSteps": 104,
      "PercentPhaseFieldOfView": 100.0,
      "PercentSampling": 100.0,
      "PerformedProcedureStepStartTime": "173720.082000",
      "PhotometricInterpretation": "MONOCHROME2",
      "PixelBandwidth": 2290.0,
      "PixelRepresentation": 0,
      "PixelSpacing": [2.0, 2.0],
      "ProtocolName": "func_task-friends-s04e09a",
      "RepetitionTime": 1490.0,
      "Rows": 832,
      "SAR": 0.03739096625861,
      "SamplesPerPixel": 1,
      "ScanOptions": "FS",
      "ScanningSequence": "EP",
      "SequenceName": "epfid2d1_104",
      "SequenceVariant": [
        "SK",
        "SS"
],
      "SeriesDescription": "func_task-friends-s04e09a",
      "SeriesNumber": 9,
      "SeriesTime": "180013.952000",
      "SliceLocation": -32.163046520323,
      "SliceThickness": 2.0,
      "SmallestImagePixelValue": 0,
      "SoftwareVersions": "syngo MR E11",
      "SpacingBetweenSlices": 1.9999999998075,
      "SpecificCharacterSet": "ISO_IR 100",
      "StudyID": "1",
      "StudyTime": "173720.024000",
      "TransmitCoilName": "Body",
      "VariableFlipAngleFlag": "N",
      "WindowCenterWidthExplanation": "Algo1",
      "dBdt": 0.0},
    "slices": {}
  },
  "time": {
    "samples": {
      "AcquisitionNumber": [1, 2, 3, 4, 5, 6, 7, 8, 9, 10, 11, 12, 13, 14, 15, 16, 17, 18, 19, 20, 21, 22, 23, 24, 25, 26, 27, 28, 29, 30, 31, 32, 33, 34, 35, 36, 37, 38, 39, 40, 41, 42, 43, 44, 45, 46, 47, 48, 49, 50, 51, 52, 53, 54, 55, 56, 57, 58, 59, 60, 61, 62, 63, 64, 65, 66, 67, 68, 69, 70, 71, 72, 73, 74, 75, 76, 77, 78, 79, 80, 81, 82, 83, 84, 85, 86, 87, 88, 89, 90, 91, 92, 93, 94, 95, 96, 97, 98, 99, 100, 101, 102, 103, 104, 105, 106, 107, 108, 109, 110, 111, 112, 113, 114, 115, 116, 117, 118, 119, 120, 121, 122, 123, 124, 125, 126, 127, 128, 129, 130, 131, 132, 133, 134, 135, 136, 137, 138, 139, 140, 141, 142, 143, 144, 145, 146, 147, 148, 149, 150, 151, 152, 153, 154, 155, 156, 157, 158, 159, 160, 161, 162, 163, 164, 165, 166, 167, 168, 169, 170, 171, 172, 173, 174, 175, 176, 177, 178, 179, 180, 181, 182, 183, 184, 185, 186, 187, 188, 189, 190, 191, 192, 193, 194, 195, 196, 197, 198, 199, 200, 201, 202, 203, 204, 205, 206, 207, 208, 209, 210, 211, 212, 213, 214, 215, 216, 217, 218, 219, 220, 221, 222, 223, 224, 225, 226, 227, 228, 229, 230, 231, 232, 233, 234, 235, 236, 237, 238, 239, 240, 241, 242, 243, 244, 245, 246, 247, 248, 249, 250, 251, 252, 253, 254, 255, 256, 257, 258, 259, 260, 261, 262, 263, 264, 265, 266, 267, 268, 269, 270, 271, 272, 273, 274, 275, 276, 277, 278, 279, 280, 281, 282, 283, 284, 285, 286, 287, 288, 289, 290, 291, 292, 293, 294, 295, 296, 297, 298, 299, 300, 301, 302, 303, 304, 305, 306, 307, 308, 309, 310, 311, 312, 313, 314, 315, 316, 317, 318, 319, 320, 321, 322, 323, 324, 325, 326, 327, 328, 329, 330, 331, 332, 333, 334, 335, 336, 337, 338, 339, 340, 341, 342, 343, 344, 345, 346, 347, 348, 349, 350, 351, 352, 353, 354, 355, 356, 357, 358, 359, 360, 361, 362, 363, 364, 365, 366, 367, 368, 369, 370, 371, 372, 373, 374, 375, 376, 377, 378, 379, 380, 381, 382, 383, 384, 385, 386, 387, 388, 389, 390, 391, 392, 393, 394, 395, 396, 397, 398, 399, 400, 401, 402, 403, 404, 405, 406, 407, 408, 409, 410, 411, 412, 413, 414, 415, 416, 417, 418, 419, 420, 421, 422, 423, 424, 425, 426, 427, 428, 429, 430, 431, 432, 433, 434, 435, 436, 437, 438, 439, 440, 441],
      "AcquisitionTime": ["175817.837500", "175819.327500", "175820.817500", "175822.307500", "175823.797500", "175825.287500", "175826.777500", "175828.267500", "175829.757500", "175831.247500", "175832.737500", "175834.227500", "175835.717500", "175837.207500", "175838.697500", "175840.187500", "175841.677500", "175843.167500", "175844.657500", "175846.147500", "175847.637500", "175849.127500", "175850.617500", "175852.107500", "175853.597500", "175855.087500", "175856.577500", "175858.067500", "175859.557500", "175901.047500", "175902.537500", "175904.027500", "175905.517500", "175907.007500", "175908.497500", "175909.987500", "175911.477500", "175912.967500", "175914.457500", "175915.947500", "175917.437500", "175918.927500", "175920.417500", "175921.907500", "175923.397500", "175924.887500", "175926.377500", "175927.867500", "175929.357500", "175930.847500", "175932.337500", "175933.827500", "175935.317500", "175936.807500", "175938.297500", "175939.787500", "175941.277500", "175942.767500", "175944.257500", "175945.747500", "175947.237500", "175948.727500", "175950.217500", "175951.707500", "175953.197500", "175954.687500", "175956.177500", "175957.667500", "175959.157500", "180000.647500", "180002.137500", "180003.627500", "180005.117500", "180006.607500", "180008.097500", "180009.587500", "180011.077500", "180012.567500", "180014.057500", "180015.547500", "180017.037500", "180018.527500", "180020.017500", "180021.507500", "180022.997500", "180024.487500", "180025.977500", "180027.467500", "180028.957500", "180030.447500", "180031.937500", "180033.427500", "180034.917500", "180036.407500", "180037.897500", "180039.387500", "180040.877500", "180042.367500", "180043.857500", "180045.347500", "180046.837500", "180048.327500", "180049.817500", "180051.307500", "180052.797500", "180054.287500", "180055.777500", "180057.267500", "180058.757500", "180100.247500", "180101.737500", "180103.227500", "180104.717500", "180106.207500", "180107.697500", "180109.187500", "180110.677500", "180112.167500", "180113.657500", "180115.147500", "180116.637500", "180118.127500", "180119.617500", "180121.107500", "180122.597500", "180124.087500", "180125.577500", "180127.067500", "180128.557500", "180130.047500", "180131.537500", "180133.027500", "180134.517500", "180136.007500", "180137.497500", "180138.987500", "180140.477500", "180141.967500", "180143.457500", "180144.947500", "180146.437500", "180147.927500", "180149.417500", "180150.907500", "180152.397500", "180153.887500", "180155.377500", "180156.867500", "180158.357500", "180159.847500", "180201.337500", "180202.827500", "180204.317500", "180205.807500", "180207.297500", "180208.787500", "180210.277500", "180211.767500", "180213.257500", "180214.747500", "180216.237500", "180217.727500", "180219.217500", "180220.707500", "180222.197500", "180223.687500", "180225.177500", "180226.667500", "180228.157500", "180229.647500", "180231.137500", "180232.627500", "180234.117500", "180235.607500", "180237.097500", "180238.587500", "180240.077500", "180241.567500", "180243.057500", "180244.547500", "180246.037500", "180247.527500", "180249.017500", "180250.507500", "180251.997500", "180253.487500", "180254.977500", "180256.467500", "180257.957500", "180259.447500", "180300.937500", "180302.427500", "180303.917500", "180305.407500", "180306.897500", "180308.387500", "180309.877500", "180311.367500", "180312.857500", "180314.347500", "180315.837500", "180317.327500", "180318.817500", "180320.307500", "180321.797500", "180323.287500", "180324.777500", "180326.267500", "180327.757500", "180329.247500", "180330.737500", "180332.227500", "180333.717500", "180335.207500", "180336.697500", "180338.187500", "180339.677500", "180341.167500", "180342.657500", "180344.147500", "180345.637500", "180347.127500", "180348.617500", "180350.107500", "180351.597500", "180353.087500", "180354.577500", "180356.067500", "180357.557500", "180359.047500", "180400.537500", "180402.027500", "180403.517500", "180405.007500", "180406.497500", "180407.987500", "180409.477500", "180410.967500", "180412.457500", "180413.947500", "180415.437500", "180416.927500", "180418.417500", "180419.907500", "180421.397500", "180422.887500", "180424.377500", "180425.867500", "180427.357500", "180428.847500", "180430.337500", "180431.827500", "180433.317500", "180434.807500", "180436.297500", "180437.787500", "180439.277500", "180440.767500", "180442.257500", "180443.747500", "180445.237500", "180446.727500", "180448.217500", "180449.707500", "180451.197500", "180452.687500", "180454.177500", "180455.667500", "180457.157500", "180458.647500", "180500.137500", "180501.627500", "180503.117500", "180504.607500", "180506.097500", "180507.587500", "180509.077500", "180510.567500", "180512.057500", "180513.547500", "180515.037500", "180516.527500", "180518.017500", "180519.507500", "180520.997500", "180522.487500", "180523.977500", "180525.467500", "180526.957500", "180528.447500", "180529.937500", "180531.427500", "180532.917500", "180534.407500", "180535.897500", "180537.387500", "180538.877500", "180540.367500", "180541.857500", "180543.347500", "180544.837500", "180546.327500", "180547.817500", "180549.307500", "180550.797500", "180552.287500", "180553.777500", "180555.267500", "180556.757500", "180558.247500", "180559.737500", "180601.227500", "180602.717500", "180604.207500", "180605.697500", "180607.187500", "180608.677500", "180610.167500", "180611.657500", "180613.147500", "180614.637500", "180616.127500", "180617.617500", "180619.107500", "180620.597500", "180622.087500", "180623.577500", "180625.067500", "180626.557500", "180628.047500", "180629.537500", "180631.027500", "180632.517500", "180634.007500", "180635.497500", "180636.987500", "180638.477500", "180639.967500", "180641.457500", "180642.947500", "180644.437500", "180645.927500", "180647.417500", "180648.907500", "180650.397500", "180651.887500", "180653.377500", "180654.867500", "180656.357500", "180657.847500", "180659.337500", "180700.827500", "180702.317500", "180703.807500", "180705.297500", "180706.787500", "180708.277500", "180709.767500", "180711.257500", "180712.747500", "180714.237500", "180715.727500", "180717.217500", "180718.707500", "180720.197500", "180721.687500", "180723.177500", "180724.667500", "180726.157500", "180727.647500", "180729.137500", "180730.627500", "180732.117500", "180733.607500", "180735.097500", "180736.587500", "180738.077500", "180739.567500", "180741.057500", "180742.547500", "180744.037500", "180745.527500", "180747.017500", "180748.507500", "180749.997500", "180751.487500", "180752.977500", "180754.467500", "180755.957500", "180757.447500", "180758.937500", "180800.427500", "180801.917500", "180803.407500", "180804.897500", "180806.387500", "180807.877500", "180809.367500", "180810.857500", "180812.347500", "180813.837500", "180815.327500", "180816.817500", "180818.307500", "180819.797500", "180821.287500", "180822.777500", "180824.267500", "180825.757500", "180827.247500", "180828.737500", "180830.227500", "180831.717500", "180833.207500", "180834.697500", "180836.187500", "180837.677500", "180839.167500", "180840.657500", "180842.147500", "180843.637500", "180845.127500", "180846.617500", "180848.107500", "180849.597500", "180851.087500", "180852.577500", "180854.067500", "180855.557500", "180857.047500", "180858.537500", "180900.027500", "180901.517500", "180903.007500", "180904.497500", "180905.987500", "180907.477500", "180908.967500", "180910.457500", "180911.947500", "180913.437500"],
      "ContentTime": ["180013.955000", "180013.958000", "180013.961000", "180013.964000", "180013.967000", "180013.970000", "180013.973000", "180013.975000", "180013.978000", "180013.981000", "180013.984000", "180013.987000", "180013.990000", "180013.993000", "180013.995000", "180013.998000", "180014.002000", "180014.005000", "180014.008000", "180014.010000", "180014.013000", "180014.016000", "180014.019000", "180014.022000", "180014.025000", "180014.027000", "180014.030000", "180014.033000", "180014.036000", "180014.049000", "180014.051000", "180014.054000", "180014.057000", "180014.060000", "180014.063000", "180014.066000", "180053.908000", "180053.911000", "180053.914000", "180053.917000", "180053.920000", "180053.923000", "180053.926000", "180053.929000", "180053.932000", "180053.934000", "180053.937000", "180053.940000", "180053.943000", "180053.946000", "180053.949000", "180053.952000", "180053.955000", "180053.957000", "180053.960000", "180053.963000", "180053.966000", "180053.969000", "180053.972000", "180053.975000", "180053.977000", "180053.980000", "180053.983000", "180053.986000", "180053.989000", "180053.992000", "180053.995000", "180053.998000", "180054.001000", "180054.004000", "180054.007000", "180054.010000", "180054.013000", "180054.016000", "180054.018000", "180113.908000", "180113.911000", "180113.914000", "180113.918000", "180113.922000", "180113.925000", "180113.928000", "180113.931000", "180113.934000", "180113.937000", "180113.940000", "180113.943000", "180113.946000", "180113.949000", "180113.951000", "180113.954000", "180113.957000", "180113.960000", "180113.963000", "180113.966000", "180133.907000", "180133.910000", "180133.913000", "180133.916000", "180133.919000", "180133.922000", "180133.925000", "180133.928000", "180133.930000", "180133.933000", "180133.936000", "180133.939000", "180133.942000", "180133.945000", "180133.948000", "180133.951000", "180133.954000", "180133.957000", "180133.960000", "180133.963000", "180133.966000", "180153.908000", "180153.919000", "180153.922000", "180153.925000", "180153.928000", "180153.931000", "180153.934000", "180153.936000", "180153.939000", "180153.942000", "180153.945000", "180153.948000", "180153.951000", "180153.954000", "180153.957000", "180153.960000", "180153.962000", "180153.965000", "180153.968000", "180153.971000", "180213.908000", "180213.911000", "180213.914000", "180213.916000", "180213.919000", "180213.922000", "180213.925000", "180213.928000", "180213.930000", "180213.933000", "180213.953000", "180213.955000", "180213.958000", "180213.961000", "180213.964000", "180213.967000", "180213.970000", "180213.973000", "180213.975000", "180213.978000", "180253.908000", "180253.911000", "180253.914000", "180253.919000", "180253.922000", "180253.925000", "180253.928000", "180253.930000", "180253.933000", "180253.936000", "180253.939000", "180253.942000", "180253.944000", "180253.947000", "180253.950000", "180253.953000", "180253.956000", "180253.959000", "180253.961000", "180253.964000", "180253.967000", "180253.970000", "180253.973000", "180253.976000", "180253.978000", "180253.981000", "180253.984000", "180253.987000", "180253.990000", "180333.908000", "180333.911000", "180333.914000", "180333.917000", "180333.919000", "180333.922000", "180333.938000", "180333.940000", "180333.943000", "180333.946000", "180333.949000", "180333.952000", "180333.955000", "180333.957000", "180333.960000", "180333.963000", "180333.966000", "180333.969000", "180333.972000", "180333.975000", "180333.977000", "180333.980000", "180333.983000", "180333.986000", "180333.988000", "180333.991000", "180353.907000", "180353.910000", "180353.913000", "180353.916000", "180353.918000", "180353.921000", "180353.924000", "180353.927000", "180353.930000", "180353.933000", "180353.935000", "180353.938000", "180353.941000", "180353.944000", "180433.908000", "180433.911000", "180433.914000", "180433.917000", "180433.919000", "180433.922000", "180433.925000", "180433.928000", "180433.931000", "180433.933000", "180433.936000", "180433.939000", "180433.942000", "180433.945000", "180433.947000", "180433.950000", "180433.953000", "180433.956000", "180433.959000", "180433.961000", "180433.964000", "180433.967000", "180433.970000", "180433.973000", "180433.975000", "180433.978000", "180433.981000", "180513.908000", "180513.911000", "180513.914000", "180513.917000", "180513.920000", "180513.922000", "180513.925000", "180513.928000", "180513.931000", "180513.934000", "180513.937000", "180513.940000", "180513.942000", "180513.945000", "180513.948000", "180513.951000", "180513.954000", "180513.957000", "180513.960000", "180513.963000", "180513.965000", "180513.968000", "180513.971000", "180513.974000", "180513.977000", "180513.979000", "180513.982000", "180553.908000", "180553.911000", "180553.914000", "180553.917000", "180553.919000", "180553.922000", "180553.925000", "180553.928000", "180553.931000", "180553.933000", "180553.936000", "180553.939000", "180553.942000", "180553.945000", "180553.949000", "180553.952000", "180553.955000", "180553.958000", "180553.961000", "180553.964000", "180553.968000", "180553.970000", "180553.973000", "180553.976000", "180553.979000", "180553.982000", "180633.908000", "180633.911000", "180633.914000", "180633.917000", "180633.920000", "180633.922000", "180633.925000", "180633.928000", "180633.931000", "180633.934000", "180633.936000", "180633.944000", "180633.947000", "180633.949000", "180633.952000", "180633.955000", "180633.958000", "180633.961000", "180633.963000", "180633.966000", "180633.969000", "180633.972000", "180633.975000", "180633.977000", "180633.980000", "180633.983000", "180633.986000", "180713.908000", "180713.914000", "180713.917000", "180713.933000", "180713.935000", "180713.938000", "180713.941000", "180713.944000", "180713.947000", "180713.949000", "180713.952000", "180713.955000", "180713.958000", "180713.961000", "180713.963000", "180713.966000", "180713.969000", "180713.972000", "180713.975000", "180713.978000", "180713.981000", "180713.983000", "180713.986000", "180713.989000", "180713.992000", "180713.995000", "180713.998000", "180753.908000", "180753.911000", "180753.914000", "180753.917000", "180753.920000", "180753.922000", "180753.925000", "180753.928000", "180753.931000", "180753.934000", "180753.936000", "180753.939000", "180753.942000", "180753.945000", "180753.948000", "180753.951000", "180753.954000", "180753.956000", "180753.959000", "180753.962000", "180753.965000", "180753.968000", "180753.970000", "180753.973000", "180753.976000", "180753.979000", "180753.982000", "180833.907000", "180833.915000", "180833.918000", "180833.921000", "180833.924000", "180833.927000", "180833.930000", "180833.932000", "180833.935000", "180833.938000", "180833.941000", "180833.944000", "180833.946000", "180833.949000", "180833.952000", "180833.955000", "180833.959000", "180833.962000", "180833.965000", "180833.967000", "180833.970000", "180833.973000", "180833.976000", "180833.979000", "180833.981000", "180833.984000", "180833.987000", "180913.908000", "180913.911000", "180913.914000", "180913.917000", "180913.920000", "180913.922000", "180913.925000", "180913.928000", "180913.931000", "180913.934000", "180913.937000", "180913.939000", "180913.942000", "180913.945000", "180913.948000", "180913.951000", "180913.954000", "180913.956000", "180913.959000", "180913.962000", "180913.965000", "180913.968000", "180913.970000", "180913.973000", "180913.976000", "180913.979000", "180913.982000", "180915.157000"],
