{
  "AcquisitionMatrixPE": 104,
  "AcquisitionNumber": 1,
  "AcquisitionTime": "18:32:33.897500",
  "BandwidthPerPixelPhaseEncode": 17.17,
  "BaseResolution": 104,
  "BodyPartExamined": "BRAIN",
  "CoilString": "HC1-7;NC1_2",
  "ConsistencyInfo": "N4_VE11C_LATEST_20160120",
  "ConversionSoftware": "dcm2niix",
  "ConversionSoftwareVersion": "v1.0.20190902",
  "DerivedVendorReportedEchoSpacing": 0.000560011,
  "DeviceSerialNumber": "167006",
  "DwellTime": 2.1e-06,
  "EchoTime": 0.037,
  "EchoTrainLength": 104,
  "EffectiveEchoSpacing": 0.000560011,
  "FlipAngle": 52,
  "ImageComments": "Unaliased_MB4_PE3_LB",
  "ImageOrientationPatientDICOM": [0.999438, -0.0305798, -0.0137637, 0.0230295, 0.924225, -0.381154],
  "ImageType": [
    "ORIGINAL",
    "PRIMARY",
    "M",
    "MB",
    "ND",
    "MOSAIC"
],
  "ImagingFrequency": 123.259,
  "InPlanePhaseEncodingDirectionDICOM": "COL",
  "InstitutionAddress": "Chemin_Queen-Mary_4565_Montreal_District_CA_H3W_1W5",
  "InstitutionName": "IUGM",
  "InstitutionalDepartmentName": "Department",
  "MRAcquisitionType": "2D",
  "MagneticFieldStrength": 3,
  "Manufacturer": "Siemens",
  "ManufacturersModelName": "Prisma_fit",
  "Modality": "MR",
  "MultibandAccelerationFactor": 4,
  "PartialFourier": 1,
  "PatientPosition": "HFS",
  "PercentPhaseFOV": 100,
  "PhaseEncodingDirection": "j",
  "PhaseEncodingSteps": 104,
  "PhaseResolution": 1,
  "PixelBandwidth": 2290,
  "ProcedureStepDescription": "video_friends",
  "ProtocolName": "func_task-friends-s04e10b",
  "PulseSequenceDetails": "%CustomerSeq%_cmrr_mbep2d_bold",
  "ReceiveCoilActiveElements": "HC1-7;NC1,2",
  "ReceiveCoilName": "HeadNeck_64",
  "ReconMatrixPE": 104,
  "RepetitionTime": 1.49,
  "SAR": 0.0373939,
  "ScanOptions": "FS",
  "ScanningSequence": "EP",
  "SequenceName": "epfid2d1_104",
  "SequenceVariant": "SK_SS",
  "SeriesDescription": "func_task-friends-s04e10b",
  "SeriesNumber": 15,
  "ShimSetting": [611, -7295, -8814, 407, -4, -455, 63, 55],
  "SliceThickness": 2,
  "SliceTiming": [0, 0.785, 0.1, 0.8825, 0.1975, 0.98, 0.295, 1.08, 0.3925, 1.1775, 0.49, 1.275, 0.59, 1.3725, 0.6875, 0, 0.785, 0.1, 0.8825, 0.1975, 0.98, 0.295, 1.08, 0.3925, 1.1775, 0.49, 1.275, 0.59, 1.3725, 0.6875, 0, 0.785, 0.1, 0.8825, 0.1975, 0.98, 0.295, 1.08, 0.3925, 1.1775, 0.49, 1.275, 0.59, 1.3725, 0.6875, 0, 0.785, 0.1, 0.8825, 0.1975, 0.98, 0.295, 1.08, 0.3925, 1.1775, 0.49, 1.275, 0.59, 1.3725, 0.6875],
  "SoftwareVersions": "syngo_MR_E11",
  "SpacingBetweenSlices": 2,
  "StationName": "MRC35049",
  "TaskName": "s04e10b",
  "TotalReadoutTime": 0.0576811,
  "TxRefAmp": 240.876,
  "WipMemBlock": "212cd30c-580c-4ea8-9c30-0901c3c66741||Sequence: R016 ve11c/master r/e634e98; Dec 19 2017 11:00:25 by eja",
  "dcmmeta_affine": [
    [-1.9988751411437988, 0.04605899378657341, -0.04875277727842331, 98.6860580444336],
    [0.06115966662764549, 1.848449468612671, -0.7612450122833252, -70.48688507080078],
    [-0.02752743288874626, 0.7623077034950256, 1.848818302154541, -61.2135124206543],
    [0.0, 0.0, 0.0, 1.0]
],
  "dcmmeta_reorient_transform": [
    [0.0, -1.0, 0.0, 103.0],
    [1.0, 0.0, 0.0, 0.0],
    [0.0, 0.0, 1.0, 0.0],
    [0.0, 0.0, 0.0, 1.0]
],
  "dcmmeta_shape": [104, 104, 60, 449],
  "dcmmeta_slice_dim": 2,
  "dcmmeta_version": 0.6,
  "global": {
    "const": {
      "AcquisitionMatrix": [104, 0, 0, 104],
      "AngioFlag": "N",
      "BitsAllocated": 16,
      "BitsStored": 16,
      "BodyPartExamined": "BRAIN",
      "Columns": 832,
      "EchoNumbers": 1,
      "EchoTime": 37.0,
      "EchoTrainLength": 104,
      "FlipAngle": 52.0,
      "HighBit": 15,
      "ImageOrientationPatient": [0.9994375587799, -0.0305798333588, -0.0137637164974, 0.02302949774346, 0.92422474423074, -0.3811538592029],
      "ImagePositionPatient": [-847.78615124625, -770.47690605545, 304.80417673635],
      "ImageType": [
        "ORIGINAL",
        "PRIMARY",
        "M",
        "MB",
        "ND",
        "MOSAIC"
],
      "ImagedNucleus": "1H",
      "ImagingFrequency": 123.25894,
      "InPlanePhaseEncodingDirection": "COL",
      "MRAcquisitionType": "2D",
      "MagneticFieldStrength": 3.0,
      "Manufacturer": "SIEMENS",
      "ManufacturerModelName": "Prisma_fit",
      "Modality": "MR",
      "NumberOfAverages": 1.0,
      "NumberOfPhaseEncodingSteps": 104,
      "PercentPhaseFieldOfView": 100.0,
      "PercentSampling": 100.0,
      "PerformedProcedureStepStartTime": "173720.082000",
      "PhotometricInterpretation": "MONOCHROME2",
      "PixelBandwidth": 2290.0,
      "PixelRepresentation": 0,
      "PixelSpacing": [2.0, 2.0],
      "ProtocolName": "func_task-friends-s04e10b",
      "RepetitionTime": 1490.0,
      "Rows": 832,
      "SAR": 0.03739394108947,
      "SamplesPerPixel": 1,
      "ScanOptions": "FS",
      "ScanningSequence": "EP",
      "SequenceName": "epfid2d1_104",
      "SequenceVariant": [
        "SK",
        "SS"
],
      "SeriesDescription": "func_task-friends-s04e10b",
      "SeriesNumber": 15,
      "SeriesTime": "183353.941000",
      "SliceLocation": -32.163046520323,
      "SliceThickness": 2.0,
      "SmallestImagePixelValue": 0,
      "SoftwareVersions": "syngo MR E11",
      "SpacingBetweenSlices": 1.9999999998075,
      "SpecificCharacterSet": "ISO_IR 100",
      "StudyID": "1",
      "StudyTime": "173720.024000",
      "TransmitCoilName": "Body",
      "VariableFlipAngleFlag": "N",
      "WindowCenterWidthExplanation": "Algo1",
      "dBdt": 0.0},
    "slices": {}
  },
  "time": {
    "samples": {
      "AcquisitionNumber": [1, 2, 3, 4, 5, 6, 7, 8, 9, 10, 11, 12, 13, 14, 15, 16, 17, 18, 19, 20, 21, 22, 23, 24, 25, 26, 27, 28, 29, 30, 31, 32, 33, 34, 35, 36, 37, 38, 39, 40, 41, 42, 43, 44, 45, 46, 47, 48, 49, 50, 51, 52, 53, 54, 55, 56, 57, 58, 59, 60, 61, 62, 63, 64, 65, 66, 67, 68, 69, 70, 71, 72, 73, 74, 75, 76, 77, 78, 79, 80, 81, 82, 83, 84, 85, 86, 87, 88, 89, 90, 91, 92, 93, 94, 95, 96, 97, 98, 99, 100, 101, 102, 103, 104, 105, 106, 107, 108, 109, 110, 111, 112, 113, 114, 115, 116, 117, 118, 119, 120, 121, 122, 123, 124, 125, 126, 127, 128, 129, 130, 131, 132, 133, 134, 135, 136, 137, 138, 139, 140, 141, 142, 143, 144, 145, 146, 147, 148, 149, 150, 151, 152, 153, 154, 155, 156, 157, 158, 159, 160, 161, 162, 163, 164, 165, 166, 167, 168, 169, 170, 171, 172, 173, 174, 175, 176, 177, 178, 179, 180, 181, 182, 183, 184, 185, 186, 187, 188, 189, 190, 191, 192, 193, 194, 195, 196, 197, 198, 199, 200, 201, 202, 203, 204, 205, 206, 207, 208, 209, 210, 211, 212, 213, 214, 215, 216, 217, 218, 219, 220, 221, 222, 223, 224, 225, 226, 227, 228, 229, 230, 231, 232, 233, 234, 235, 236, 237, 238, 239, 240, 241, 242, 243, 244, 245, 246, 247, 248, 249, 250, 251, 252, 253, 254, 255, 256, 257, 258, 259, 260, 261, 262, 263, 264, 265, 266, 267, 268, 269, 270, 271, 272, 273, 274, 275, 276, 277, 278, 279, 280, 281, 282, 283, 284, 285, 286, 287, 288, 289, 290, 291, 292, 293, 294, 295, 296, 297, 298, 299, 300, 301, 302, 303, 304, 305, 306, 307, 308, 309, 310, 311, 312, 313, 314, 315, 316, 317, 318, 319, 320, 321, 322, 323, 324, 325, 326, 327, 328, 329, 330, 331, 332, 333, 334, 335, 336, 337, 338, 339, 340, 341, 342, 343, 344, 345, 346, 347, 348, 349, 350, 351, 352, 353, 354, 355, 356, 357, 358, 359, 360, 361, 362, 363, 364, 365, 366, 367, 368, 369, 370, 371, 372, 373, 374, 375, 376, 377, 378, 379, 380, 381, 382, 383, 384, 385, 386, 387, 388, 389, 390, 391, 392, 393, 394, 395, 396, 397, 398, 399, 400, 401, 402, 403, 404, 405, 406, 407, 408, 409, 410, 411, 412, 413, 414, 415, 416, 417, 418, 419, 420, 421, 422, 423, 424, 425, 426, 427, 428, 429, 430, 431, 432, 433, 434, 435, 436, 437, 438, 439, 440, 441, 442, 443, 444, 445, 446, 447, 448, 449],
      "AcquisitionTime": ["183233.897500", "183235.387500", "183236.877500", "183238.367500", "183239.857500", "183241.347500", "183242.837500", "183244.327500", "183245.817500", "183247.307500", "183248.797500", "183250.287500", "183251.777500", "183253.267500", "183254.757500", "183256.247500", "183257.737500", "183259.227500", "183300.717500", "183302.207500", "183303.697500", "183305.187500", "183306.677500", "183308.167500", "183309.657500", "183311.147500", "183312.637500", "183314.127500", "183315.617500", "183317.107500", "183318.597500", "183320.087500", "183321.577500", "183323.067500", "183324.557500", "183326.047500", "183327.537500", "183329.027500", "183330.517500", "183332.007500", "183333.497500", "183334.987500", "183336.477500", "183337.967500", "183339.457500", "183340.947500", "183342.437500", "183343.927500", "183345.417500", "183346.907500", "183348.397500", "183349.887500", "183351.377500", "183352.867500", "183354.357500", "183355.847500", "183357.337500", "183358.827500", "183400.317500", "183401.807500", "183403.297500", "183404.787500", "183406.277500", "183407.767500", "183409.257500", "183410.747500", "183412.237500", "183413.727500", "183415.217500", "183416.707500", "183418.197500", "183419.687500", "183421.177500", "183422.667500", "183424.157500", "183425.647500", "183427.137500", "183428.627500", "183430.117500", "183431.607500", "183433.097500", "183434.587500", "183436.077500", "183437.567500", "183439.057500", "183440.547500", "183442.037500", "183443.527500", "183445.017500", "183446.507500", "183447.997500", "183449.487500", "183450.977500", "183452.467500", "183453.957500", "183455.447500", "183456.937500", "183458.427500", "183459.917500", "183501.407500", "183502.897500", "183504.387500", "183505.877500", "183507.367500", "183508.857500", "183510.347500", "183511.837500", "183513.327500", "183514.817500", "183516.307500", "183517.797500", "183519.287500", "183520.777500", "183522.267500", "183523.757500", "183525.247500", "183526.737500", "183528.227500", "183529.717500", "183531.207500", "183532.697500", "183534.187500", "183535.677500", "183537.167500", "183538.657500", "183540.147500", "183541.637500", "183543.127500", "183544.617500", "183546.107500", "183547.597500", "183549.087500", "183550.577500", "183552.067500", "183553.557500", "183555.047500", "183556.537500", "183558.027500", "183559.517500", "183601.007500", "183602.497500", "183603.987500", "183605.477500", "183606.967500", "183608.457500", "183609.947500", "183611.437500", "183612.927500", "183614.417500", "183615.907500", "183617.397500", "183618.887500", "183620.377500", "183621.867500", "183623.357500", "183624.847500", "183626.337500", "183627.827500", "183629.317500", "183630.807500", "183632.297500", "183633.787500", "183635.277500", "183636.767500", "183638.257500", "183639.747500", "183641.237500", "183642.727500", "183644.217500", "183645.707500", "183647.197500", "183648.687500", "183650.177500", "183651.667500", "183653.157500", "183654.647500", "183656.137500", "183657.627500", "183659.117500", "183700.607500", "183702.097500", "183703.587500", "183705.077500", "183706.567500", "183708.057500", "183709.547500", "183711.037500", "183712.527500", "183714.017500", "183715.507500", "183716.997500", "183718.487500", "183719.977500", "183721.467500", "183722.957500", "183724.447500", "183725.937500", "183727.427500", "183728.917500", "183730.407500", "183731.897500", "183733.387500", "183734.877500", "183736.367500", "183737.857500", "183739.347500", "183740.837500", "183742.327500", "183743.817500", "183745.307500", "183746.797500", "183748.287500", "183749.777500", "183751.267500", "183752.757500", "183754.247500", "183755.737500", "183757.227500", "183758.717500", "183800.207500", "183801.697500", "183803.187500", "183804.677500", "183806.167500", "183807.657500", "183809.147500", "183810.637500", "183812.127500", "183813.617500", "183815.107500", "183816.597500", "183818.087500", "183819.577500", "183821.067500", "183822.557500", "183824.047500", "183825.537500", "183827.027500", "183828.517500", "183830.007500", "183831.497500", "183832.987500", "183834.477500", "183835.967500", "183837.457500", "183838.947500", "183840.437500", "183841.927500", "183843.417500", "183844.907500", "183846.397500", "183847.887500", "183849.377500", "183850.867500", "183852.357500", "183853.847500", "183855.337500", "183856.827500", "183858.317500", "183859.807500", "183901.297500", "183902.787500", "183904.277500", "183905.767500", "183907.257500", "183908.747500", "183910.237500", "183911.727500", "183913.217500", "183914.707500", "183916.197500", "183917.687500", "183919.177500", "183920.667500", "183922.157500", "183923.647500", "183925.137500", "183926.627500", "183928.117500", "183929.607500", "183931.097500", "183932.587500", "183934.077500", "183935.567500", "183937.057500", "183938.547500", "183940.037500", "183941.527500", "183943.017500", "183944.507500", "183945.997500", "183947.487500", "183948.977500", "183950.467500", "183951.957500", "183953.447500", "183954.937500", "183956.427500", "183957.917500", "183959.407500", "184000.897500", "184002.387500", "184003.877500", "184005.367500", "184006.857500", "184008.347500", "184009.837500", "184011.327500", "184012.817500", "184014.307500", "184015.797500", "184017.287500", "184018.777500", "184020.267500", "184021.757500", "184023.247500", "184024.737500", "184026.227500", "184027.717500", "184029.207500", "184030.697500", "184032.187500", "184033.677500", "184035.167500", "184036.657500", "184038.147500", "184039.637500", "184041.127500", "184042.617500", "184044.107500", "184045.597500", "184047.087500", "184048.577500", "184050.067500", "184051.557500", "184053.047500", "184054.537500", "184056.027500", "184057.517500", "184059.007500", "184100.497500", "184101.987500", "184103.477500", "184104.967500", "184106.457500", "184107.947500", "184109.437500", "184110.927500", "184112.417500", "184113.907500", "184115.397500", "184116.887500", "184118.377500", "184119.867500", "184121.357500", "184122.847500", "184124.337500", "184125.827500", "184127.317500", "184128.807500", "184130.297500", "184131.787500", "184133.277500", "184134.767500", "184136.257500", "184137.747500", "184139.237500", "184140.727500", "184142.217500", "184143.707500", "184145.197500", "184146.687500", "184148.177500", "184149.667500", "184151.157500", "184152.647500", "184154.137500", "184155.627500", "184157.117500", "184158.607500", "184200.097500", "184201.587500", "184203.077500", "184204.567500", "184206.057500", "184207.547500", "184209.037500", "184210.527500", "184212.017500", "184213.507500", "184214.997500", "184216.487500", "184217.977500", "184219.467500", "184220.957500", "184222.447500", "184223.937500", "184225.427500", "184226.917500", "184228.407500", "184229.897500", "184231.387500", "184232.877500", "184234.367500", "184235.857500", "184237.347500", "184238.837500", "184240.327500", "184241.817500", "184243.307500", "184244.797500", "184246.287500", "184247.777500", "184249.267500", "184250.757500", "184252.247500", "184253.737500", "184255.227500", "184256.717500", "184258.207500", "184259.697500", "184301.187500", "184302.677500", "184304.167500", "184305.657500", "184307.147500", "184308.637500", "184310.127500", "184311.617500", "184313.107500", "184314.597500", "184316.087500", "184317.577500", "184319.067500", "184320.557500", "184322.047500", "184323.537500", "184325.027500", "184326.517500", "184328.007500", "184329.497500", "184330.987500", "184332.477500", "184333.967500", "184335.457500", "184336.947500", "184338.437500", "184339.927500", "184341.417500"],
      "ContentTime": ["183353.944000", "183353.947000", "183353.950000", "183353.953000", "183353.956000", "183353.958000", "183353.961000", "183353.964000", "183353.967000", "183353.970000", "183353.976000", "183353.979000", "183353.982000", "183353.985000", "183353.987000", "183353.990000", "183353.993000", "183353.996000", "183354.007000", "183354.010000", "183354.013000", "183354.016000", "183354.019000", "183354.021000", "183413.908000", "183413.911000", "183413.914000", "183413.917000", "183413.919000", "183413.922000", "183413.925000", "183413.928000", "183413.931000", "183413.933000", "183413.945000", "183413.947000", "183413.950000", "183413.953000", "183413.956000", "183413.959000", "183413.961000", "183413.964000", "183413.967000", "183413.970000", "183413.973000", "183433.908000", "183433.911000", "183433.913000", "183433.916000", "183433.919000", "183433.922000", "183433.925000", "183433.927000", "183433.930000", "183433.941000", "183433.943000", "183433.946000", "183433.949000", "183433.952000", "183433.955000", "183433.957000", "183433.960000", "183433.963000", "183433.966000", "183433.969000", "183453.908000", "183453.911000", "183453.914000", "183453.916000", "183453.919000", "183453.922000", "183453.925000", "183453.928000", "183453.930000", "183453.933000", "183453.936000", "183453.939000", "183453.941000", "183453.944000", "183453.947000", "183453.950000", "183453.953000", "183453.955000", "183453.958000", "183453.961000", "183513.908000", "183513.911000", "183513.914000", "183513.917000", "183513.920000", "183513.922000", "183513.925000", "183513.928000", "183513.931000", "183513.934000", "183513.936000", "183513.939000", "183513.942000", "183513.945000", "183513.948000", "183513.950000", "183513.953000", "183513.956000", "183513.959000", "183513.962000", "183553.908000", "183553.911000", "183553.914000", "183553.916000", "183553.919000", "183553.922000", "183553.925000", "183553.928000", "183553.930000", "183553.933000", "183553.936000", "183553.939000", "183553.941000", "183553.944000", "183553.947000", "183553.950000", "183553.953000", "183553.956000", "183553.959000", "183553.961000", "183553.964000", "183553.967000", "183553.970000", "183553.973000", "183553.975000", "183553.978000", "183553.981000", "183553.984000", "183633.917000", "183633.920000", "183633.923000", "183633.926000", "183633.929000", "183633.932000", "183633.935000", "183633.937000", "183633.940000", "183633.943000", "183633.946000", "183633.949000", "183633.951000", "183633.954000", "183633.957000", "183633.960000", "183633.963000", "183633.966000", "183633.969000", "183633.971000", "183633.974000", "183633.977000", "183633.980000", "183633.983000", "183633.985000", "183633.988000", "183633.991000", "183713.908000", "183713.911000", "183713.914000", "183713.917000", "183713.919000", "183713.922000", "183713.925000", "183713.928000", "183713.931000", "183713.933000", "183713.936000", "183713.939000", "183713.942000", "183713.945000", "183713.948000", "183713.951000", "183713.954000", "183713.957000", "183713.959000", "183713.962000", "183713.965000", "183713.968000", "183713.971000", "183713.974000", "183713.977000", "183713.979000", "183713.982000", "183753.908000", "183753.911000", "183753.914000", "183753.916000", "183753.919000", "183753.922000", "183753.925000", "183753.928000", "183753.931000", "183753.933000", "183753.936000", "183753.939000", "183753.942000", "183753.945000", "183753.948000", "183753.951000", "183753.953000", "183753.956000", "183753.959000", "183753.962000", "183753.965000", "183753.967000", "183753.970000", "183753.973000", "183753.976000", "183753.979000", "183753.981000", "183833.908000", "183833.911000", "183833.914000", "183833.917000", "183833.920000", "183833.923000", "183833.926000", "183833.929000", "183833.932000", "183833.934000", "183833.937000", "183833.940000", "183833.943000", "183833.946000", "183833.949000", "183833.951000", "183833.954000", "183833.957000", "183833.960000", "183833.962000", "183833.965000", "183833.968000", "183833.971000", "183833.974000", "183833.977000", "183833.980000", "183913.908000", "183913.911000", "183913.914000", "183913.917000", "183913.920000", "183913.922000", "183913.925000", "183913.928000", "183913.931000", "183913.934000", "183913.936000", "183913.939000", "183913.942000", "183913.945000", "183913.948000", "183913.950000", "183913.953000", "183913.956000", "183913.969000", "183913.972000", "183913.975000", "183913.978000", "183913.981000", "183913.984000", "183913.987000", "183913.989000", "183913.992000", "183953.908000", "183953.911000", "183953.914000", "183953.917000", "183953.919000", "183953.922000", "183953.925000", "183953.928000", "183953.931000", "183953.934000", "183953.937000", "183953.940000", "183953.942000", "183953.945000", "183953.948000", "183953.951000", "183953.954000", "183953.957000", "183953.960000", "183953.962000", "183953.965000", "183953.968000", "183953.971000", "183953.974000", "183953.977000", "183953.979000", "183953.982000", "184033.908000", "184033.911000", "184033.914000", "184033.917000", "184033.919000", "184033.922000", "184033.925000", "184033.928000", "184033.931000", "184033.933000", "184033.936000", "184033.939000", "184033.942000", "184033.945000", "184033.948000", "184033.951000", "184033.953000", "184033.956000", "184033.959000", "184033.962000", "184033.965000", "184033.967000", "184033.970000", "184033.973000", "184033.976000", "184033.979000", "184033.981000", "184113.908000", "184113.911000", "184113.914000", "184113.917000", "184113.919000", "184113.922000", "184113.925000", "184113.928000", "184113.931000", "184113.933000", "184113.936000", "184113.939000", "184113.942000", "184113.945000", "184113.964000", "184113.967000", "184113.970000", "184113.973000", "184113.975000", "184113.978000", "184113.981000", "184113.984000", "184113.987000", "184113.989000", "184113.992000", "184113.995000", "184113.998000", "184153.908000", "184153.911000", "184153.914000", "184153.917000", "184153.920000", "184153.922000", "184153.925000", "184153.928000", "184153.931000", "184153.934000", "184153.936000", "184153.939000", "184153.942000", "184153.945000", "184153.948000", "184153.951000", "184153.953000", "184153.956000", "184153.959000", "184153.962000", "184153.965000", "184153.968000", "184153.970000", "184153.973000", "184153.976000", "184153.979000", "184153.982000", "184233.908000", "184233.911000", "184233.914000", "184233.917000", "184233.920000", "184233.924000", "184233.928000", "184233.931000", "184233.934000", "184233.937000", "184233.940000", "184233.943000", "184233.946000", "184233.949000", "184233.951000", "184233.954000", "184233.957000", "184233.960000", "184233.963000", "184233.965000", "184233.968000", "184233.971000", "184233.974000", "184233.977000", "184233.979000", "184233.982000", "184313.907000", "184313.910000", "184313.913000", "184313.915000", "184313.918000", "184313.921000", "184313.924000", "184313.927000", "184313.929000", "184313.932000", "184313.935000", "184313.938000", "184313.941000", "184313.944000", "184313.947000", "184313.950000", "184313.953000", "184313.956000", "184313.959000", "184313.961000", "184313.964000", "184313.967000", "184313.970000", "184313.973000", "184313.976000", "184313.979000", "184313.981000", "184344.018000", "184344.022000", "184344.024000", "184344.027000", "184344.030000", "184344.033000", "184344.036000", "184344.039000", "184344.041000", "184344.044000", "184344.047000", "184344.050000", "184344.053000", "184344.056000", "184344.059000", "184344.061000", "184344.064000", "184344.067000", "184344.070000", "184344.073000", "184344.076000"],
