{
  "AcquisitionMatrixPE": 104,
  "AcquisitionNumber": 1,
  "AcquisitionTime": "18:57:55.860000",
  "BandwidthPerPixelPhaseEncode": 17.17,
  "BaseResolution": 104,
  "BodyPartExamined": "BRAIN",
  "CoilString": "HC1-7;NC1_2",
  "ConsistencyInfo": "N4_VE11C_LATEST_20160120",
  "ConversionSoftware": "dcm2niix",
  "ConversionSoftwareVersion": "v1.0.20190720  (JP2:OpenJPEG) GCC7.3.0",
  "DerivedVendorReportedEchoSpacing": 0.000560011,
  "DeviceSerialNumber": "167006",
  "DwellTime": 2.1e-06,
  "EchoTime": 0.037,
  "EchoTrainLength": 104,
  "EffectiveEchoSpacing": 0.000560011,
  "FlipAngle": 52,
  "ImageComments": "Unaliased_MB4_PE3_LB",
  "ImageOrientationPatientDICOM": [0.997578, -0.068022, -0.0145422, 0.05752, 0.92425, -0.377431],
  "ImageType": [
    "ORIGINAL",
    "PRIMARY",
    "M",
    "MB",
    "ND",
    "MOSAIC"
],
  "ImagingFrequency": 123.259,
  "InPlanePhaseEncodingDirectionDICOM": "COL",
  "InstitutionAddress": "Chemin_Queen-Mary_4565_Montreal_District_CA_H3W_1W5",
  "InstitutionName": "IUGM",
  "InstitutionalDepartmentName": "Department",
  "MRAcquisitionType": "2D",
  "MagneticFieldStrength": 3,
  "Manufacturer": "Siemens",
  "ManufacturersModelName": "Prisma_fit",
  "Modality": "MR",
  "MultibandAccelerationFactor": 4,
  "PartialFourier": 1,
  "PatientPosition": "HFS",
  "PercentPhaseFOV": 100,
  "PhaseEncodingDirection": "j",
  "PhaseEncodingSteps": 104,
  "PhaseResolution": 1,
  "PixelBandwidth": 2290,
  "ProcedureStepDescription": "video_friends",
  "ProtocolName": "func_task-friends-s01e15a",
  "PulseSequenceDetails": "%CustomerSeq%_cmrr_mbep2d_bold",
  "ReceiveCoilActiveElements": "HC1-7;NC1,2",
  "ReceiveCoilName": "HeadNeck_64",
  "ReconMatrixPE": 104,
  "RepetitionTime": 1.49,
  "SAR": 0.0339491,
  "ScanOptions": "FS",
  "ScanningSequence": "EP",
  "SequenceName": "epfid2d1_104",
  "SequenceVariant": "SK_SS",
  "SeriesDescription": "func_task-friends-s01e15a",
  "SeriesNumber": 17,
  "ShimSetting": [620, -7262, -8851, 424, 20, -419, 35, 38],
  "SliceThickness": 2,
  "SliceTiming": [0, 0.785, 0.1, 0.8825, 0.1975, 0.98, 0.295, 1.0775, 0.3925, 1.1775, 0.49, 1.275, 0.5875, 1.3725, 0.6875, 0, 0.785, 0.1, 0.8825, 0.1975, 0.98, 0.295, 1.0775, 0.3925, 1.1775, 0.49, 1.275, 0.5875, 1.3725, 0.6875, 0, 0.785, 0.1, 0.8825, 0.1975, 0.98, 0.295, 1.0775, 0.3925, 1.1775, 0.49, 1.275, 0.5875, 1.3725, 0.6875, 0, 0.785, 0.1, 0.8825, 0.1975, 0.98, 0.295, 1.0775, 0.3925, 1.1775, 0.49, 1.275, 0.5875, 1.3725, 0.6875],
  "SoftwareVersions": "syngo_MR_E11",
  "SpacingBetweenSlices": 2,
  "StationName": "MRC35049",
  "TaskName": "friends",
  "TotalReadoutTime": 0.0576811,
  "TxRefAmp": 232.227,
  "WipMemBlock": "5ee86ba3-21d6-426b-aea0-671cb0e2a3db||Sequence: R016 ve11c/master r/e634e98; Dec 19 2017 11:00:25 by eja",
  "dcmmeta_affine": [
    [-1.995155692100525, 0.11504000425338745, -0.07822834700345993, 95.61466217041016],
    [0.13604404032230377, 1.8484995365142822, -0.7513598203659058, -76.11898040771484],
    [-0.02908431366086006, 0.7548611760139465, 1.8518472909927368, -69.42251586914062],
    [0.0, 0.0, 0.0, 1.0]
],
  "dcmmeta_reorient_transform": [
    [0.0, -1.0, 0.0, 103.0],
    [1.0, 0.0, 0.0, 0.0],
    [0.0, 0.0, 1.0, 0.0],
    [0.0, 0.0, 0.0, 1.0]
],
  "dcmmeta_shape": [104, 104, 60, 477],
  "dcmmeta_slice_dim": 2,
  "dcmmeta_version": 0.6,
  "global": {
    "const": {
      "AcquisitionMatrix": [104, 0, 0, 104],
      "AngioFlag": "N",
      "BitsAllocated": 16,
      "BitsStored": 16,
      "BodyPartExamined": "BRAIN",
      "Columns": 832,
      "EchoNumbers": 1,
      "EchoTime": 37.0,
      "EchoTrainLength": 104,
      "FlipAngle": 52.0,
      "HighBit": 15,
      "ImageOrientationPatient": [0.99757783193591, -0.0680220178092, -0.0145421567593, 0.05752000083595, 0.92424974571358, -0.3774305989877],
      "ImagePositionPatient": [-875.57500272785, -737.61025608493, 293.68435539502],
      "ImageType": [
        "ORIGINAL",
        "PRIMARY",
        "M",
        "MB",
        "ND",
        "MOSAIC"
],
      "ImagedNucleus": "1H",
      "ImagingFrequency": 123.259423,
      "InPlanePhaseEncodingDirection": "COL",
      "MRAcquisitionType": "2D",
      "MagneticFieldStrength": 3.0,
      "Manufacturer": "SIEMENS",
      "ManufacturerModelName": "Prisma_fit",
      "Modality": "MR",
      "NumberOfAverages": 1.0,
      "NumberOfPhaseEncodingSteps": 104,
      "PercentPhaseFieldOfView": 100.0,
      "PercentSampling": 100.0,
      "PerformedProcedureStepStartTime": "175201.856000",
      "PhotometricInterpretation": "MONOCHROME2",
      "PixelBandwidth": 2290.0,
      "PixelRepresentation": 0,
      "PixelSpacing": [2.0, 2.0],
      "ProtocolName": "func_task-friends-s01e15a",
      "RepetitionTime": 1490.0,
      "Rows": 832,
      "SAR": 0.03394912885958,
      "SamplesPerPixel": 1,
      "ScanOptions": "FS",
      "ScanningSequence": "EP",
      "SequenceName": "epfid2d1_104",
      "SequenceVariant": [
        "SK",
        "SS"
],
      "SeriesDescription": "func_task-friends-s01e15a",
      "SeriesNumber": 17,
      "SeriesTime": "185927.909000",
      "SliceLocation": -39.423466291466,
      "SliceThickness": 2.0,
      "SmallestImagePixelValue": 0,
      "SoftwareVersions": "syngo MR E11",
      "SpacingBetweenSlices": 1.9999999355403,
      "SpecificCharacterSet": "ISO_IR 100",
      "StudyID": "1",
      "StudyTime": "175201.699000",
      "TransmitCoilName": "Body",
      "VariableFlipAngleFlag": "N",
      "WindowCenterWidthExplanation": "Algo1",
      "dBdt": 0.0},
    "slices": {}
  },
  "time": {
    "samples": {
      "AcquisitionNumber": [1, 2, 3, 4, 5, 6, 7, 8, 9, 10, 11, 12, 13, 14, 15, 16, 17, 18, 19, 20, 21, 22, 23, 24, 25, 26, 27, 28, 29, 30, 31, 32, 33, 34, 35, 36, 37, 38, 39, 40, 41, 42, 43, 44, 45, 46, 47, 48, 49, 50, 51, 52, 53, 54, 55, 56, 57, 58, 59, 60, 61, 62, 63, 64, 65, 66, 67, 68, 69, 70, 71, 72, 73, 74, 75, 76, 77, 78, 79, 80, 81, 82, 83, 84, 85, 86, 87, 88, 89, 90, 91, 92, 93, 94, 95, 96, 97, 98, 99, 100, 101, 102, 103, 104, 105, 106, 107, 108, 109, 110, 111, 112, 113, 114, 115, 116, 117, 118, 119, 120, 121, 122, 123, 124, 125, 126, 127, 128, 129, 130, 131, 132, 133, 134, 135, 136, 137, 138, 139, 140, 141, 142, 143, 144, 145, 146, 147, 148, 149, 150, 151, 152, 153, 154, 155, 156, 157, 158, 159, 160, 161, 162, 163, 164, 165, 166, 167, 168, 169, 170, 171, 172, 173, 174, 175, 176, 177, 178, 179, 180, 181, 182, 183, 184, 185, 186, 187, 188, 189, 190, 191, 192, 193, 194, 195, 196, 197, 198, 199, 200, 201, 202, 203, 204, 205, 206, 207, 208, 209, 210, 211, 212, 213, 214, 215, 216, 217, 218, 219, 220, 221, 222, 223, 224, 225, 226, 227, 228, 229, 230, 231, 232, 233, 234, 235, 236, 237, 238, 239, 240, 241, 242, 243, 244, 245, 246, 247, 248, 249, 250, 251, 252, 253, 254, 255, 256, 257, 258, 259, 260, 261, 262, 263, 264, 265, 266, 267, 268, 269, 270, 271, 272, 273, 274, 275, 276, 277, 278, 279, 280, 281, 282, 283, 284, 285, 286, 287, 288, 289, 290, 291, 292, 293, 294, 295, 296, 297, 298, 299, 300, 301, 302, 303, 304, 305, 306, 307, 308, 309, 310, 311, 312, 313, 314, 315, 316, 317, 318, 319, 320, 321, 322, 323, 324, 325, 326, 327, 328, 329, 330, 331, 332, 333, 334, 335, 336, 337, 338, 339, 340, 341, 342, 343, 344, 345, 346, 347, 348, 349, 350, 351, 352, 353, 354, 355, 356, 357, 358, 359, 360, 361, 362, 363, 364, 365, 366, 367, 368, 369, 370, 371, 372, 373, 374, 375, 376, 377, 378, 379, 380, 381, 382, 383, 384, 385, 386, 387, 388, 389, 390, 391, 392, 393, 394, 395, 396, 397, 398, 399, 400, 401, 402, 403, 404, 405, 406, 407, 408, 409, 410, 411, 412, 413, 414, 415, 416, 417, 418, 419, 420, 421, 422, 423, 424, 425, 426, 427, 428, 429, 430, 431, 432, 433, 434, 435, 436, 437, 438, 439, 440, 441, 442, 443, 444, 445, 446, 447, 448, 449, 450, 451, 452, 453, 454, 455, 456, 457, 458, 459, 460, 461, 462, 463, 464, 465, 466, 467, 468, 469, 470, 471, 472, 473, 474, 475, 476, 477],
      "AcquisitionTime": ["185755.860000", "185757.350000", "185758.840000", "185800.330000", "185801.820000", "185803.310000", "185804.800000", "185806.290000", "185807.780000", "185809.270000", "185810.760000", "185812.250000", "185813.740000", "185815.230000", "185816.720000", "185818.210000", "185819.700000", "185821.190000", "185822.680000", "185824.170000", "185825.660000", "185827.150000", "185828.640000", "185830.130000", "185831.620000", "185833.110000", "185834.600000", "185836.090000", "185837.580000", "185839.070000", "185840.560000", "185842.050000", "185843.540000", "185845.030000", "185846.520000", "185848.010000", "185849.500000", "185850.990000", "185852.480000", "185853.970000", "185855.460000", "185856.950000", "185858.440000", "185859.930000", "185901.420000", "185902.910000", "185904.400000", "185905.890000", "185907.380000", "185908.870000", "185910.360000", "185911.850000", "185913.340000", "185914.830000", "185916.320000", "185917.810000", "185919.300000", "185920.790000", "185922.280000", "185923.770000", "185925.260000", "185926.750000", "185928.240000", "185929.730000", "185931.220000", "185932.710000", "185934.200000", "185935.690000", "185937.180000", "185938.670000", "185940.160000", "185941.650000", "185943.140000", "185944.630000", "185946.120000", "185947.610000", "185949.100000", "185950.590000", "185952.080000", "185953.570000", "185955.060000", "185956.550000", "185958.040000", "185959.530000", "190001.020000", "190002.510000", "190004.000000", "190005.490000", "190006.980000", "190008.470000", "190009.960000", "190011.450000", "190012.940000", "190014.430000", "190015.920000", "190017.410000", "190018.900000", "190020.390000", "190021.880000", "190023.370000", "190024.860000", "190026.350000", "190027.840000", "190029.330000", "190030.820000", "190032.310000", "190033.800000", "190035.290000", "190036.780000", "190038.270000", "190039.760000", "190041.250000", "190042.740000", "190044.230000", "190045.720000", "190047.210000", "190048.700000", "190050.190000", "190051.680000", "190053.170000", "190054.660000", "190056.150000", "190057.640000", "190059.130000", "190100.620000", "190102.110000", "190103.600000", "190105.090000", "190106.580000", "190108.070000", "190109.560000", "190111.050000", "190112.540000", "190114.030000", "190115.520000", "190117.010000", "190118.500000", "190119.990000", "190121.480000", "190122.970000", "190124.460000", "190125.950000", "190127.440000", "190128.930000", "190130.420000", "190131.910000", "190133.400000", "190134.890000", "190136.380000", "190137.870000", "190139.360000", "190140.850000", "190142.340000", "190143.830000", "190145.320000", "190146.810000", "190148.300000", "190149.790000", "190151.280000", "190152.770000", "190154.260000", "190155.750000", "190157.240000", "190158.730000", "190200.220000", "190201.710000", "190203.200000", "190204.690000", "190206.180000", "190207.670000", "190209.160000", "190210.650000", "190212.140000", "190213.630000", "190215.120000", "190216.610000", "190218.100000", "190219.590000", "190221.080000", "190222.570000", "190224.060000", "190225.550000", "190227.040000", "190228.530000", "190230.020000", "190231.510000", "190233.000000", "190234.490000", "190235.980000", "190237.470000", "190238.960000", "190240.450000", "190241.940000", "190243.430000", "190244.920000", "190246.410000", "190247.900000", "190249.390000", "190250.880000", "190252.370000", "190253.860000", "190255.350000", "190256.840000", "190258.330000", "190259.820000", "190301.310000", "190302.800000", "190304.290000", "190305.780000", "190307.270000", "190308.760000", "190310.250000", "190311.740000", "190313.230000", "190314.720000", "190316.210000", "190317.700000", "190319.190000", "190320.680000", "190322.170000", "190323.660000", "190325.150000", "190326.640000", "190328.130000", "190329.620000", "190331.110000", "190332.600000", "190334.090000", "190335.580000", "190337.070000", "190338.560000", "190340.050000", "190341.540000", "190343.030000", "190344.520000", "190346.010000", "190347.500000", "190348.990000", "190350.480000", "190351.970000", "190353.460000", "190354.950000", "190356.440000", "190357.930000", "190359.420000", "190400.910000", "190402.400000", "190403.890000", "190405.380000", "190406.870000", "190408.360000", "190409.850000", "190411.340000", "190412.830000", "190414.320000", "190415.810000", "190417.300000", "190418.790000", "190420.280000", "190421.770000", "190423.260000", "190424.750000", "190426.240000", "190427.730000", "190429.220000", "190430.710000", "190432.200000", "190433.690000", "190435.180000", "190436.670000", "190438.160000", "190439.650000", "190441.140000", "190442.630000", "190444.120000", "190445.610000", "190447.100000", "190448.590000", "190450.080000", "190451.570000", "190453.060000", "190454.550000", "190456.040000", "190457.530000", "190459.020000", "190500.510000", "190502.000000", "190503.490000", "190504.980000", "190506.470000", "190507.960000", "190509.450000", "190510.940000", "190512.430000", "190513.920000", "190515.410000", "190516.900000", "190518.390000", "190519.880000", "190521.370000", "190522.860000", "190524.350000", "190525.840000", "190527.330000", "190528.820000", "190530.310000", "190531.800000", "190533.290000", "190534.780000", "190536.270000", "190537.760000", "190539.250000", "190540.740000", "190542.230000", "190543.720000", "190545.210000", "190546.700000", "190548.190000", "190549.680000", "190551.170000", "190552.660000", "190554.150000", "190555.640000", "190557.130000", "190558.620000", "190600.110000", "190601.600000", "190603.090000", "190604.580000", "190606.070000", "190607.560000", "190609.050000", "190610.540000", "190612.030000", "190613.520000", "190615.010000", "190616.500000", "190617.990000", "190619.480000", "190620.970000", "190622.460000", "190623.950000", "190625.440000", "190626.930000", "190628.420000", "190629.910000", "190631.400000", "190632.890000", "190634.380000", "190635.870000", "190637.360000", "190638.850000", "190640.340000", "190641.830000", "190643.320000", "190644.810000", "190646.300000", "190647.790000", "190649.280000", "190650.770000", "190652.260000", "190653.750000", "190655.240000", "190656.730000", "190658.220000", "190659.710000", "190701.200000", "190702.690000", "190704.180000", "190705.670000", "190707.160000", "190708.650000", "190710.140000", "190711.630000", "190713.120000", "190714.610000", "190716.100000", "190717.590000", "190719.080000", "190720.570000", "190722.060000", "190723.550000", "190725.040000", "190726.530000", "190728.020000", "190729.510000", "190731.000000", "190732.490000", "190733.980000", "190735.470000", "190736.960000", "190738.450000", "190739.940000", "190741.430000", "190742.920000", "190744.410000", "190745.900000", "190747.390000", "190748.880000", "190750.370000", "190751.860000", "190753.350000", "190754.840000", "190756.330000", "190757.820000", "190759.310000", "190800.800000", "190802.290000", "190803.780000", "190805.270000", "190806.760000", "190808.250000", "190809.740000", "190811.230000", "190812.720000", "190814.210000", "190815.700000", "190817.190000", "190818.680000", "190820.170000", "190821.660000", "190823.150000", "190824.640000", "190826.130000", "190827.620000", "190829.110000", "190830.600000", "190832.090000", "190833.580000", "190835.070000", "190836.560000", "190838.050000", "190839.540000", "190841.030000", "190842.520000", "190844.010000", "190845.500000", "190846.990000", "190848.480000", "190849.970000", "190851.460000", "190852.950000", "190854.440000", "190855.930000", "190857.420000", "190858.910000", "190900.400000", "190901.890000", "190903.380000", "190904.870000", "190906.360000", "190907.850000", "190909.340000", "190910.830000", "190912.320000", "190913.810000", "190915.300000", "190916.790000", "190918.280000", "190919.770000", "190921.260000", "190922.750000", "190924.240000", "190925.730000", "190927.220000", "190928.710000", "190930.200000", "190931.690000", "190933.180000", "190934.670000", "190936.160000", "190937.650000", "190939.140000", "190940.630000", "190942.120000", "190943.610000", "190945.100000"],
      "ContentTime": ["185927.912000", "185927.915000", "185927.918000", "185927.921000", "185927.924000", "185927.927000", "185927.929000", "185927.932000", "185927.935000", "185927.938000", "185927.951000", "185927.954000", "185927.957000", "185927.960000", "185927.963000", "185927.966000", "185927.968000", "185927.971000", "185927.974000", "185927.977000", "185927.980000", "185927.982000", "185927.988000", "185927.990000", "185927.993000", "185927.996000", "185928.000000", "185928.003000", "185928.005000", "185928.008000", "185928.011000", "185928.014000", "185928.017000", "185928.020000", "185928.022000", "185928.025000", "185947.876000", "185947.879000", "185947.882000", "185947.884000", "185947.887000", "185947.890000", "185947.893000", "185947.895000", "185947.898000", "185947.901000", "185947.904000", "185947.907000", "185947.909000", "185947.912000", "185947.915000", "185947.918000", "185947.921000", "185947.923000", "185947.926000", "185947.929000", "190007.877000", "190007.880000", "190007.882000", "190007.885000", "190007.888000", "190007.891000", "190007.894000", "190007.896000", "190007.899000", "190007.902000", "190007.905000", "190007.908000", "190007.910000", "190007.913000", "190007.916000", "190007.919000", "190007.922000", "190007.924000", "190007.927000", "190007.930000", "190027.877000", "190027.880000", "190027.882000", "190027.885000", "190027.888000", "190027.891000", "190027.894000", "190027.896000", "190027.900000", "190027.904000", "190027.908000", "190027.912000", "190027.915000", "190027.918000", "190027.921000", "190027.924000", "190027.927000", "190027.930000", "190027.932000", "190027.935000", "190107.876000", "190107.879000", "190107.882000", "190107.884000", "190107.887000", "190107.890000", "190107.893000", "190107.895000", "190107.898000", "190107.901000", "190107.904000", "190107.907000", "190107.910000", "190107.912000", "190107.915000", "190107.918000", "190107.921000", "190107.923000", "190107.926000", "190107.929000", "190107.932000", "190107.935000", "190107.937000", "190107.940000", "190107.943000", "190107.946000", "190107.949000", "190107.951000", "190107.954000", "190107.957000", "190107.960000", "190107.963000", "190147.876000", "190147.879000", "190147.882000", "190147.884000", "190147.887000", "190147.890000", "190147.893000", "190147.896000", "190147.899000", "190147.901000", "190147.904000", "190147.907000", "190147.910000", "190147.913000", "190147.915000", "190147.918000", "190147.921000", "190147.924000", "190147.927000", "190147.930000", "190147.932000", "190147.935000", "190147.938000", "190147.941000", "190147.944000", "190147.947000", "190147.949000", "190207.876000", "190207.879000", "190207.882000", "190207.884000", "190207.887000", "190207.890000", "190207.893000", "190207.896000", "190207.899000", "190207.901000", "190207.904000", "190207.907000", "190207.910000", "190207.913000", "190247.877000", "190247.880000", "190247.883000", "190247.885000", "190247.888000", "190247.891000", "190247.894000", "190247.897000", "190247.900000", "190247.903000", "190247.905000", "190247.908000", "190247.911000", "190247.914000", "190247.917000", "190247.920000", "190247.922000", "190247.925000", "190247.928000", "190247.931000", "190247.934000", "190247.937000", "190247.939000", "190247.942000", "190247.945000", "190247.948000", "190327.876000", "190327.879000", "190327.882000", "190327.884000", "190327.887000", "190327.890000", "190327.893000", "190327.896000", "190327.899000", "190327.901000", "190327.904000", "190327.907000", "190327.910000", "190327.913000", "190327.916000", "190327.919000", "190327.922000", "190327.924000", "190327.927000", "190327.930000", "190327.933000", "190327.936000", "190327.939000", "190327.941000", "190327.944000", "190327.947000", "190327.950000", "190407.876000", "190407.879000", "190407.882000", "190407.884000", "190407.887000", "190407.890000", "190407.893000", "190407.896000", "190407.899000", "190407.901000", "190407.904000", "190407.907000", "190407.910000", "190407.913000", "190407.916000", "190407.918000", "190407.921000", "190407.924000", "190407.927000", "190407.930000", "190407.932000", "190407.935000", "190407.938000", "190407.941000", "190407.944000", "190407.946000", "190407.949000", "190447.877000", "190447.880000", "190447.883000", "190447.885000", "190447.888000", "190447.891000", "190447.894000", "190447.897000", "190447.900000", "190447.903000", "190447.906000", "190447.909000", "190447.912000", "190447.914000", "190447.917000", "190447.920000", "190447.923000", "190447.926000", "190447.929000", "190447.932000", "190447.934000", "190447.937000", "190447.940000", "190447.943000", "190447.946000", "190447.948000", "190447.951000", "190527.877000", "190527.880000", "190527.883000", "190527.885000", "190527.888000", "190527.891000", "190527.894000", "190527.897000", "190527.900000", "190527.903000", "190527.905000", "190527.908000", "190527.911000", "190527.914000", "190527.917000", "190527.919000", "190527.922000", "190527.925000", "190527.928000", "190527.931000", "190527.934000", "190527.936000", "190527.939000", "190527.942000", "190527.945000", "190527.948000", "190527.950000", "190607.876000", "190607.879000", "190607.882000", "190607.885000", "190607.887000", "190607.890000", "190607.893000", "190607.896000", "190607.899000", "190607.902000", "190607.904000", "190607.907000", "190607.910000", "190607.913000", "190607.916000", "190607.919000", "190607.922000", "190607.924000", "190607.927000", "190607.930000", "190607.933000", "190607.936000", "190607.938000", "190607.941000", "190607.944000", "190607.947000", "190607.950000", "190647.876000", "190647.879000", "190647.882000", "190647.884000", "190647.887000", "190647.890000", "190647.893000", "190647.896000", "190647.899000", "190647.902000", "190647.905000", "190647.907000", "190647.910000", "190647.913000", "190647.916000", "190647.919000", "190647.921000", "190647.924000", "190647.927000", "190647.930000", "190647.933000", "190647.936000", "190647.938000", "190647.941000", "190647.944000", "190647.947000", "190727.877000", "190727.880000", "190727.883000", "190727.886000", "190727.888000", "190727.905000", "190727.908000", "190727.911000", "190727.914000", "190727.917000", "190727.920000", "190727.922000", "190727.925000", "190727.928000", "190727.931000", "190727.934000", "190727.936000", "190727.939000", "190727.942000", "190727.945000", "190727.948000", "190727.951000", "190727.954000", "190727.956000", "190727.959000", "190727.962000", "190727.965000", "190807.876000", "190807.879000", "190807.888000", "190807.891000", "190807.893000", "190807.896000", "190807.899000", "190807.902000", "190807.905000", "190807.908000", "190807.911000", "190807.913000", "190807.916000", "190807.919000", "190807.922000", "190807.925000", "190807.927000", "190807.930000", "190807.933000", "190807.936000", "190807.939000", "190807.942000", "190807.945000", "190807.947000", "190807.950000", "190807.953000", "190807.956000", "190847.876000", "190847.879000", "190847.882000", "190847.884000", "190847.887000", "190847.890000", "190847.893000", "190847.896000", "190847.899000", "190847.902000", "190847.904000", "190847.907000", "190847.910000", "190847.913000", "190847.916000", "190847.919000", "190847.921000", "190847.924000", "190847.927000", "190847.930000", "190847.933000", "190847.936000", "190847.938000", "190847.941000", "190847.944000", "190847.947000", "190847.950000", "190927.877000", "190927.880000", "190927.883000", "190927.886000", "190927.888000", "190927.891000", "190927.894000", "190927.897000", "190927.900000", "190927.903000", "190927.905000", "190927.908000", "190927.911000", "190927.914000", "190927.917000", "190927.919000", "190927.922000", "190927.925000", "190927.928000", "190927.931000", "190927.934000", "190927.936000", "190927.939000", "190927.942000", "190927.945000", "190927.948000", "190927.950000", "190946.829000", "190946.832000", "190946.835000", "190946.838000", "190946.841000", "190946.844000", "190946.847000", "190946.850000", "190946.853000", "190946.856000", "190946.859000", "190946.861000", "190946.864000"],
