{
  "AcquisitionMatrixPE": 104,
  "AcquisitionNumber": 1,
  "AcquisitionTime": "18:20:24.755000",
  "BandwidthPerPixelPhaseEncode": 17.17,
  "BaseResolution": 104,
  "BodyPartExamined": "BRAIN",
  "CoilString": "HC1-7;NC1_2",
  "ConsistencyInfo": "N4_VE11C_LATEST_20160120",
  "ConversionSoftware": "dcm2niix",
  "ConversionSoftwareVersion": "v1.0.20190720  (JP2:OpenJPEG) GCC7.3.0",
  "DerivedVendorReportedEchoSpacing": 0.000560011,
  "DeviceSerialNumber": "167006",
  "DwellTime": 2.1e-06,
  "EchoTime": 0.037,
  "EchoTrainLength": 104,
  "EffectiveEchoSpacing": 0.000560011,
  "FlipAngle": 52,
  "ImageComments": "Unaliased_MB4_PE3_LB",
  "ImageOrientationPatientDICOM": [0.997578, -0.068022, -0.0145422, 0.05752, 0.92425, -0.377431],
  "ImageType": [
    "ORIGINAL",
    "PRIMARY",
    "M",
    "MB",
    "ND",
    "MOSAIC"
],
  "ImagingFrequency": 123.259,
  "InPlanePhaseEncodingDirectionDICOM": "COL",
  "InstitutionAddress": "Chemin_Queen-Mary_4565_Montreal_District_CA_H3W_1W5",
  "InstitutionName": "IUGM",
  "InstitutionalDepartmentName": "Department",
  "MRAcquisitionType": "2D",
  "MagneticFieldStrength": 3,
  "Manufacturer": "Siemens",
  "ManufacturersModelName": "Prisma_fit",
  "Modality": "MR",
  "MultibandAccelerationFactor": 4,
  "PartialFourier": 1,
  "PatientPosition": "HFS",
  "PercentPhaseFOV": 100,
  "PhaseEncodingDirection": "j",
  "PhaseEncodingSteps": 104,
  "PhaseResolution": 1,
  "PixelBandwidth": 2290,
  "ProcedureStepDescription": "video_friends",
  "ProtocolName": "func_task-friends-s01e13b",
  "PulseSequenceDetails": "%CustomerSeq%_cmrr_mbep2d_bold",
  "ReceiveCoilActiveElements": "HC1-7;NC1,2",
  "ReceiveCoilName": "HeadNeck_64",
  "ReconMatrixPE": 104,
  "RepetitionTime": 1.49,
  "SAR": 0.0339464,
  "ScanOptions": "FS",
  "ScanningSequence": "EP",
  "SequenceName": "epfid2d1_104",
  "SequenceVariant": "SK_SS",
  "SeriesDescription": "func_task-friends-s01e13b",
  "SeriesNumber": 11,
  "ShimSetting": [620, -7262, -8851, 424, 20, -419, 35, 38],
  "SliceThickness": 2,
  "SliceTiming": [0, 0.785, 0.0975, 0.8825, 0.1975, 0.98, 0.295, 1.0775, 0.3925, 1.1775, 0.49, 1.275, 0.5875, 1.3725, 0.6875, 0, 0.785, 0.0975, 0.8825, 0.1975, 0.98, 0.295, 1.0775, 0.3925, 1.1775, 0.49, 1.275, 0.5875, 1.3725, 0.6875, 0, 0.785, 0.0975, 0.8825, 0.1975, 0.98, 0.295, 1.0775, 0.3925, 1.1775, 0.49, 1.275, 0.5875, 1.3725, 0.6875, 0, 0.785, 0.0975, 0.8825, 0.1975, 0.98, 0.295, 1.0775, 0.3925, 1.1775, 0.49, 1.275, 0.5875, 1.3725, 0.6875],
  "SoftwareVersions": "syngo_MR_E11",
  "SpacingBetweenSlices": 2,
  "StationName": "MRC35049",
  "TaskName": "friends",
  "TotalReadoutTime": 0.0576811,
  "TxRefAmp": 232.227,
  "WipMemBlock": "c3b1ce61-e399-446b-b0c5-44443d5fc375||Sequence: R016 ve11c/master r/e634e98; Dec 19 2017 11:00:25 by eja",
  "dcmmeta_affine": [
    [-1.995155692100525, 0.11504000425338745, -0.07822834700345993, 95.61466217041016],
    [0.13604404032230377, 1.8484995365142822, -0.7513598203659058, -76.11898040771484],
    [-0.02908431366086006, 0.7548611760139465, 1.8518472909927368, -69.42251586914062],
    [0.0, 0.0, 0.0, 1.0]
],
  "dcmmeta_reorient_transform": [
    [0.0, -1.0, 0.0, 103.0],
    [1.0, 0.0, 0.0, 0.0],
    [0.0, 0.0, 1.0, 0.0],
    [0.0, 0.0, 0.0, 1.0]
],
  "dcmmeta_shape": [104, 104, 60, 468],
  "dcmmeta_slice_dim": 2,
  "dcmmeta_version": 0.6,
  "global": {
    "const": {
      "AcquisitionMatrix": [104, 0, 0, 104],
      "AngioFlag": "N",
      "BitsAllocated": 16,
      "BitsStored": 16,
      "BodyPartExamined": "BRAIN",
      "Columns": 832,
      "EchoNumbers": 1,
      "EchoTime": 37.0,
      "EchoTrainLength": 104,
      "FlipAngle": 52.0,
      "HighBit": 15,
      "ImageOrientationPatient": [0.99757783193591, -0.0680220178092, -0.0145421567593, 0.05752000083595, 0.92424974571358, -0.3774305989877],
      "ImagePositionPatient": [-875.57500272785, -737.61025608493, 293.68435539502],
      "ImageType": [
        "ORIGINAL",
        "PRIMARY",
        "M",
        "MB",
        "ND",
        "MOSAIC"
],
      "ImagedNucleus": "1H",
      "ImagingFrequency": 123.259407,
      "InPlanePhaseEncodingDirection": "COL",
      "MRAcquisitionType": "2D",
      "MagneticFieldStrength": 3.0,
      "Manufacturer": "SIEMENS",
      "ManufacturerModelName": "Prisma_fit",
      "Modality": "MR",
      "NumberOfAverages": 1.0,
      "NumberOfPhaseEncodingSteps": 104,
      "PercentPhaseFieldOfView": 100.0,
      "PercentSampling": 100.0,
      "PerformedProcedureStepStartTime": "175201.856000",
      "PhotometricInterpretation": "MONOCHROME2",
      "PixelBandwidth": 2290.0,
      "PixelRepresentation": 0,
      "PixelSpacing": [2.0, 2.0],
      "ProtocolName": "func_task-friends-s01e13b",
      "RepetitionTime": 1490.0,
      "Rows": 832,
      "SAR": 0.03394642121749,
      "SamplesPerPixel": 1,
      "ScanOptions": "FS",
      "ScanningSequence": "EP",
      "SequenceName": "epfid2d1_104",
      "SequenceVariant": [
        "SK",
        "SS"
],
      "SeriesDescription": "func_task-friends-s01e13b",
      "SeriesNumber": 11,
      "SeriesTime": "182147.901000",
      "SliceLocation": -39.423466291466,
      "SliceThickness": 2.0,
      "SmallestImagePixelValue": 0,
      "SoftwareVersions": "syngo MR E11",
      "SpacingBetweenSlices": 1.9999999355403,
      "SpecificCharacterSet": "ISO_IR 100",
      "StudyID": "1",
      "StudyTime": "175201.699000",
      "TransmitCoilName": "Body",
      "VariableFlipAngleFlag": "N",
      "WindowCenterWidthExplanation": "Algo1",
      "dBdt": 0.0},
    "slices": {}
  },
  "time": {
    "samples": {
      "AcquisitionNumber": [1, 2, 3, 4, 5, 6, 7, 8, 9, 10, 11, 12, 13, 14, 15, 16, 17, 18, 19, 20, 21, 22, 23, 24, 25, 26, 27, 28, 29, 30, 31, 32, 33, 34, 35, 36, 37, 38, 39, 40, 41, 42, 43, 44, 45, 46, 47, 48, 49, 50, 51, 52, 53, 54, 55, 56, 57, 58, 59, 60, 61, 62, 63, 64, 65, 66, 67, 68, 69, 70, 71, 72, 73, 74, 75, 76, 77, 78, 79, 80, 81, 82, 83, 84, 85, 86, 87, 88, 89, 90, 91, 92, 93, 94, 95, 96, 97, 98, 99, 100, 101, 102, 103, 104, 105, 106, 107, 108, 109, 110, 111, 112, 113, 114, 115, 116, 117, 118, 119, 120, 121, 122, 123, 124, 125, 126, 127, 128, 129, 130, 131, 132, 133, 134, 135, 136, 137, 138, 139, 140, 141, 142, 143, 144, 145, 146, 147, 148, 149, 150, 151, 152, 153, 154, 155, 156, 157, 158, 159, 160, 161, 162, 163, 164, 165, 166, 167, 168, 169, 170, 171, 172, 173, 174, 175, 176, 177, 178, 179, 180, 181, 182, 183, 184, 185, 186, 187, 188, 189, 190, 191, 192, 193, 194, 195, 196, 197, 198, 199, 200, 201, 202, 203, 204, 205, 206, 207, 208, 209, 210, 211, 212, 213, 214, 215, 216, 217, 218, 219, 220, 221, 222, 223, 224, 225, 226, 227, 228, 229, 230, 231, 232, 233, 234, 235, 236, 237, 238, 239, 240, 241, 242, 243, 244, 245, 246, 247, 248, 249, 250, 251, 252, 253, 254, 255, 256, 257, 258, 259, 260, 261, 262, 263, 264, 265, 266, 267, 268, 269, 270, 271, 272, 273, 274, 275, 276, 277, 278, 279, 280, 281, 282, 283, 284, 285, 286, 287, 288, 289, 290, 291, 292, 293, 294, 295, 296, 297, 298, 299, 300, 301, 302, 303, 304, 305, 306, 307, 308, 309, 310, 311, 312, 313, 314, 315, 316, 317, 318, 319, 320, 321, 322, 323, 324, 325, 326, 327, 328, 329, 330, 331, 332, 333, 334, 335, 336, 337, 338, 339, 340, 341, 342, 343, 344, 345, 346, 347, 348, 349, 350, 351, 352, 353, 354, 355, 356, 357, 358, 359, 360, 361, 362, 363, 364, 365, 366, 367, 368, 369, 370, 371, 372, 373, 374, 375, 376, 377, 378, 379, 380, 381, 382, 383, 384, 385, 386, 387, 388, 389, 390, 391, 392, 393, 394, 395, 396, 397, 398, 399, 400, 401, 402, 403, 404, 405, 406, 407, 408, 409, 410, 411, 412, 413, 414, 415, 416, 417, 418, 419, 420, 421, 422, 423, 424, 425, 426, 427, 428, 429, 430, 431, 432, 433, 434, 435, 436, 437, 438, 439, 440, 441, 442, 443, 444, 445, 446, 447, 448, 449, 450, 451, 452, 453, 454, 455, 456, 457, 458, 459, 460, 461, 462, 463, 464, 465, 466, 467, 468],
      "AcquisitionTime": ["182024.755000", "182026.245000", "182027.735000", "182029.225000", "182030.715000", "182032.205000", "182033.695000", "182035.185000", "182036.675000", "182038.165000", "182039.655000", "182041.145000", "182042.635000", "182044.125000", "182045.615000", "182047.105000", "182048.595000", "182050.085000", "182051.575000", "182053.065000", "182054.555000", "182056.045000", "182057.535000", "182059.025000", "182100.515000", "182102.005000", "182103.495000", "182104.985000", "182106.475000", "182107.965000", "182109.455000", "182110.945000", "182112.435000", "182113.925000", "182115.415000", "182116.905000", "182118.395000", "182119.885000", "182121.375000", "182122.865000", "182124.355000", "182125.845000", "182127.335000", "182128.825000", "182130.315000", "182131.805000", "182133.295000", "182134.785000", "182136.275000", "182137.765000", "182139.255000", "182140.745000", "182142.235000", "182143.725000", "182145.215000", "182146.705000", "182148.195000", "182149.685000", "182151.175000", "182152.665000", "182154.155000", "182155.645000", "182157.135000", "182158.625000", "182200.115000", "182201.605000", "182203.095000", "182204.585000", "182206.075000", "182207.565000", "182209.055000", "182210.545000", "182212.035000", "182213.525000", "182215.015000", "182216.505000", "182217.995000", "182219.485000", "182220.975000", "182222.465000", "182223.955000", "182225.445000", "182226.935000", "182228.425000", "182229.915000", "182231.405000", "182232.895000", "182234.385000", "182235.875000", "182237.365000", "182238.855000", "182240.345000", "182241.835000", "182243.325000", "182244.815000", "182246.305000", "182247.795000", "182249.285000", "182250.775000", "182252.265000", "182253.755000", "182255.245000", "182256.735000", "182258.225000", "182259.715000", "182301.205000", "182302.695000", "182304.185000", "182305.675000", "182307.165000", "182308.655000", "182310.145000", "182311.635000", "182313.125000", "182314.615000", "182316.105000", "182317.595000", "182319.085000", "182320.575000", "182322.065000", "182323.555000", "182325.045000", "182326.535000", "182328.025000", "182329.515000", "182331.005000", "182332.495000", "182333.985000", "182335.475000", "182336.965000", "182338.455000", "182339.945000", "182341.435000", "182342.925000", "182344.415000", "182345.905000", "182347.395000", "182348.885000", "182350.375000", "182351.865000", "182353.355000", "182354.845000", "182356.335000", "182357.825000", "182359.315000", "182400.805000", "182402.295000", "182403.785000", "182405.275000", "182406.765000", "182408.255000", "182409.745000", "182411.235000", "182412.725000", "182414.215000", "182415.705000", "182417.195000", "182418.685000", "182420.175000", "182421.665000", "182423.155000", "182424.645000", "182426.135000", "182427.625000", "182429.115000", "182430.605000", "182432.095000", "182433.585000", "182435.075000", "182436.565000", "182438.055000", "182439.545000", "182441.035000", "182442.525000", "182444.015000", "182445.505000", "182446.995000", "182448.485000", "182449.975000", "182451.465000", "182452.955000", "182454.445000", "182455.935000", "182457.425000", "182458.915000", "182500.405000", "182501.895000", "182503.385000", "182504.875000", "182506.365000", "182507.855000", "182509.345000", "182510.835000", "182512.325000", "182513.815000", "182515.305000", "182516.795000", "182518.285000", "182519.775000", "182521.265000", "182522.755000", "182524.245000", "182525.735000", "182527.225000", "182528.715000", "182530.205000", "182531.695000", "182533.185000", "182534.675000", "182536.165000", "182537.655000", "182539.145000", "182540.635000", "182542.125000", "182543.615000", "182545.105000", "182546.595000", "182548.085000", "182549.575000", "182551.065000", "182552.555000", "182554.045000", "182555.535000", "182557.025000", "182558.515000", "182600.005000", "182601.495000", "182602.985000", "182604.475000", "182605.965000", "182607.455000", "182608.945000", "182610.435000", "182611.925000", "182613.415000", "182614.905000", "182616.395000", "182617.885000", "182619.375000", "182620.865000", "182622.355000", "182623.845000", "182625.335000", "182626.825000", "182628.315000", "182629.805000", "182631.295000", "182632.785000", "182634.275000", "182635.765000", "182637.255000", "182638.745000", "182640.235000", "182641.725000", "182643.215000", "182644.705000", "182646.195000", "182647.685000", "182649.175000", "182650.665000", "182652.155000", "182653.645000", "182655.135000", "182656.625000", "182658.115000", "182659.605000", "182701.095000", "182702.585000", "182704.075000", "182705.565000", "182707.055000", "182708.545000", "182710.035000", "182711.525000", "182713.015000", "182714.505000", "182715.995000", "182717.485000", "182718.975000", "182720.465000", "182721.955000", "182723.445000", "182724.935000", "182726.425000", "182727.915000", "182729.405000", "182730.895000", "182732.385000", "182733.875000", "182735.365000", "182736.855000", "182738.345000", "182739.835000", "182741.325000", "182742.815000", "182744.305000", "182745.795000", "182747.285000", "182748.775000", "182750.265000", "182751.755000", "182753.245000", "182754.735000", "182756.225000", "182757.715000", "182759.205000", "182800.695000", "182802.185000", "182803.675000", "182805.165000", "182806.655000", "182808.145000", "182809.635000", "182811.125000", "182812.615000", "182814.105000", "182815.595000", "182817.085000", "182818.575000", "182820.065000", "182821.555000", "182823.045000", "182824.535000", "182826.025000", "182827.515000", "182829.005000", "182830.495000", "182831.985000", "182833.475000", "182834.965000", "182836.455000", "182837.945000", "182839.435000", "182840.925000", "182842.415000", "182843.905000", "182845.395000", "182846.885000", "182848.375000", "182849.865000", "182851.355000", "182852.845000", "182854.335000", "182855.825000", "182857.315000", "182858.805000", "182900.295000", "182901.785000", "182903.275000", "182904.765000", "182906.255000", "182907.745000", "182909.235000", "182910.725000", "182912.215000", "182913.705000", "182915.195000", "182916.685000", "182918.175000", "182919.665000", "182921.155000", "182922.645000", "182924.135000", "182925.625000", "182927.115000", "182928.605000", "182930.095000", "182931.585000", "182933.075000", "182934.565000", "182936.055000", "182937.545000", "182939.035000", "182940.525000", "182942.015000", "182943.505000", "182944.995000", "182946.485000", "182947.975000", "182949.465000", "182950.955000", "182952.445000", "182953.935000", "182955.425000", "182956.915000", "182958.405000", "182959.895000", "183001.385000", "183002.875000", "183004.365000", "183005.855000", "183007.345000", "183008.835000", "183010.325000", "183011.815000", "183013.305000", "183014.795000", "183016.285000", "183017.775000", "183019.265000", "183020.755000", "183022.245000", "183023.735000", "183025.225000", "183026.715000", "183028.205000", "183029.695000", "183031.185000", "183032.675000", "183034.165000", "183035.655000", "183037.145000", "183038.635000", "183040.125000", "183041.615000", "183043.105000", "183044.595000", "183046.085000", "183047.575000", "183049.065000", "183050.555000", "183052.045000", "183053.535000", "183055.025000", "183056.515000", "183058.005000", "183059.495000", "183100.985000", "183102.475000", "183103.965000", "183105.455000", "183106.945000", "183108.435000", "183109.925000", "183111.415000", "183112.905000", "183114.395000", "183115.885000", "183117.375000", "183118.865000", "183120.355000", "183121.845000", "183123.335000", "183124.825000", "183126.315000", "183127.805000", "183129.295000", "183130.785000", "183132.275000", "183133.765000", "183135.255000", "183136.745000", "183138.235000", "183139.725000", "183141.215000", "183142.705000", "183144.195000", "183145.685000", "183147.175000", "183148.665000", "183150.155000", "183151.645000", "183153.135000", "183154.625000", "183156.115000", "183157.605000", "183159.095000", "183200.585000"],
      "ContentTime": ["182147.903000", "182147.907000", "182147.927000", "182147.930000", "182147.933000", "182147.935000", "182147.938000", "182147.941000", "182147.944000", "182147.946000", "182147.949000", "182147.952000", "182147.955000", "182147.958000", "182147.960000", "182147.963000", "182147.971000", "182147.973000", "182147.976000", "182147.979000", "182147.982000", "182147.985000", "182147.987000", "182147.990000", "182147.993000", "182207.876000", "182207.879000", "182207.882000", "182207.884000", "182207.887000", "182207.890000", "182207.893000", "182207.896000", "182207.899000", "182207.901000", "182207.904000", "182207.907000", "182207.910000", "182207.912000", "182207.915000", "182207.918000", "182207.921000", "182207.924000", "182207.927000", "182207.930000", "182207.932000", "182227.876000", "182227.879000", "182227.882000", "182227.884000", "182227.887000", "182227.890000", "182227.893000", "182227.896000", "182227.898000", "182227.901000", "182227.904000", "182227.907000", "182227.910000", "182227.912000", "182227.915000", "182227.918000", "182227.921000", "182227.924000", "182227.926000", "182227.929000", "182247.876000", "182247.879000", "182247.881000", "182247.884000", "182247.887000", "182247.890000", "182247.893000", "182247.895000", "182247.898000", "182247.901000", "182247.904000", "182247.907000", "182247.910000", "182247.913000", "182247.915000", "182247.918000", "182247.921000", "182247.924000", "182247.927000", "182247.930000", "182307.877000", "182307.880000", "182307.883000", "182307.885000", "182307.888000", "182307.891000", "182307.894000", "182307.897000", "182307.899000", "182307.902000", "182307.905000", "182307.908000", "182307.910000", "182307.913000", "182307.916000", "182307.924000", "182307.927000", "182307.929000", "182307.932000", "182307.935000", "182347.893000", "182347.896000", "182347.899000", "182347.901000", "182347.904000", "182347.916000", "182347.919000", "182347.922000", "182347.924000", "182347.927000", "182347.930000", "182347.933000", "182347.935000", "182347.938000", "182347.941000", "182347.944000", "182347.947000", "182347.949000", "182347.952000", "182347.955000", "182347.958000", "182347.961000", "182347.964000", "182347.966000", "182347.969000", "182347.972000", "182347.975000", "182347.978000", "182347.980000", "182427.876000", "182427.879000", "182427.882000", "182427.884000", "182427.887000", "182427.890000", "182427.893000", "182427.896000", "182427.898000", "182427.901000", "182427.904000", "182427.907000", "182427.910000", "182427.912000", "182427.915000", "182427.918000", "182427.921000", "182427.924000", "182427.926000", "182427.929000", "182427.932000", "182427.935000", "182427.937000", "182427.940000", "182427.943000", "182427.946000", "182427.949000", "182507.877000", "182507.880000", "182507.883000", "182507.885000", "182507.888000", "182507.891000", "182507.894000", "182507.897000", "182507.899000", "182507.902000", "182507.905000", "182507.908000", "182507.911000", "182507.913000", "182507.916000", "182507.919000", "182507.922000", "182507.925000", "182507.927000", "182507.930000", "182507.933000", "182507.936000", "182507.939000", "182507.941000", "182507.944000", "182507.947000", "182507.950000", "182547.877000", "182547.880000", "182547.883000", "182547.885000", "182547.888000", "182547.891000", "182547.894000", "182547.897000", "182547.899000", "182547.902000", "182547.905000", "182547.908000", "182547.911000", "182547.914000", "182547.916000", "182547.919000", "182547.922000", "182547.925000", "182547.927000", "182547.930000", "182547.933000", "182547.936000", "182547.939000", "182547.941000", "182547.944000", "182547.947000", "182547.950000", "182627.876000", "182627.879000", "182627.882000", "182627.884000", "182627.887000", "182627.890000", "182627.893000", "182627.896000", "182627.898000", "182627.901000", "182627.904000", "182627.907000", "182627.910000", "182627.913000", "182627.915000", "182627.918000", "182627.921000", "182627.924000", "182627.926000", "182627.929000", "182627.932000", "182627.935000", "182627.938000", "182627.940000", "182627.943000", "182627.946000", "182627.949000", "182707.876000", "182707.879000", "182707.882000", "182707.885000", "182707.887000", "182707.890000", "182707.893000", "182707.896000", "182707.899000", "182707.902000", "182707.905000", "182707.908000", "182707.910000", "182707.923000", "182707.926000", "182707.929000", "182707.932000", "182707.934000", "182707.937000", "182707.940000", "182707.943000", "182707.946000", "182707.948000", "182707.951000", "182707.954000", "182707.957000", "182747.877000", "182747.880000", "182747.883000", "182747.885000", "182747.888000", "182747.891000", "182747.894000", "182747.897000", "182747.899000", "182747.902000", "182747.905000", "182747.908000", "182747.911000", "182747.913000", "182747.916000", "182747.919000", "182747.922000", "182747.925000", "182747.927000", "182747.930000", "182747.933000", "182747.936000", "182747.939000", "182747.941000", "182747.944000", "182747.947000", "182747.950000", "182827.877000", "182827.880000", "182827.883000", "182827.886000", "182827.888000", "182827.891000", "182827.894000", "182827.897000", "182827.900000", "182827.903000", "182827.905000", "182827.908000", "182827.922000", "182827.925000", "182827.927000", "182827.930000", "182827.933000", "182827.936000", "182827.939000", "182827.941000", "182827.944000", "182827.947000", "182827.950000", "182827.953000", "182827.955000", "182827.958000", "182827.961000", "182907.876000", "182907.879000", "182907.882000", "182907.885000", "182907.887000", "182907.890000", "182907.893000", "182907.896000", "182907.899000", "182907.901000", "182907.904000", "182907.907000", "182907.910000", "182907.913000", "182907.915000", "182907.918000", "182907.921000", "182907.924000", "182907.927000", "182907.929000", "182907.932000", "182907.935000", "182907.938000", "182907.941000", "182907.943000", "182907.946000", "182907.949000", "182947.877000", "182947.880000", "182947.883000", "182947.886000", "182947.889000", "182947.891000", "182947.894000", "182947.897000", "182947.900000", "182947.903000", "182947.905000", "182947.908000", "182947.911000", "182947.914000", "182947.917000", "182947.920000", "182947.922000", "182947.925000", "182947.928000", "182947.931000", "182947.933000", "182947.936000", "182947.939000", "182947.942000", "182947.945000", "182947.948000", "182947.950000", "183027.877000", "183027.880000", "183027.883000", "183027.886000", "183027.888000", "183027.891000", "183027.894000", "183027.897000", "183027.900000", "183027.902000", "183027.905000", "183027.908000", "183027.911000", "183027.914000", "183027.917000", "183027.919000", "183027.922000", "183027.925000", "183027.928000", "183027.931000", "183027.933000", "183027.936000", "183027.939000", "183027.942000", "183027.945000", "183027.948000", "183027.950000", "183107.876000", "183107.879000", "183107.882000", "183107.885000", "183107.887000", "183107.890000", "183107.893000", "183107.896000", "183107.899000", "183107.901000", "183107.904000", "183107.907000", "183107.910000", "183107.913000", "183107.916000", "183107.918000", "183107.921000", "183107.924000", "183107.927000", "183107.930000", "183107.933000", "183107.935000", "183107.938000", "183107.941000", "183107.944000", "183107.947000", "183147.876000", "183147.879000", "183147.882000", "183147.884000", "183147.887000", "183147.890000", "183147.893000", "183147.896000", "183147.899000", "183147.901000", "183147.904000", "183147.907000", "183147.910000", "183147.913000", "183147.916000", "183147.918000", "183147.921000", "183147.924000", "183147.927000", "183147.930000", "183147.932000", "183147.935000", "183147.938000", "183147.941000", "183147.944000", "183147.946000", "183147.949000", "183203.039000", "183203.042000", "183203.045000", "183203.048000", "183203.051000", "183203.054000", "183203.056000", "183203.059000", "183203.062000", "183203.065000", "183203.068000"],
