{
  "AcquisitionMatrixPE": 104,
  "AcquisitionNumber": 1,
  "AcquisitionTime": "16:30:55.840000",
  "BandwidthPerPixelPhaseEncode": 17.17,
  "BaseResolution": 104,
  "BodyPartExamined": "BRAIN",
  "CoilCombinationMethod": "Sum of Squares",
  "ConsistencyInfo": "N4_VE11C_LATEST_20160120",
  "ConversionSoftware": "dcm2niix",
  "ConversionSoftwareVersion": "v1.0.20230411",
  "DerivedVendorReportedEchoSpacing": 0.000560011,
  "DeviceSerialNumber": "167006",
  "DwellTime": 2.1e-06,
  "EchoTime": 0.037,
  "EchoTrainLength": 104,
  "EffectiveEchoSpacing": 0.000560011,
  "FlipAngle": 52,
  "HeudiconvVersion": "0.5.3.post861+ge7d3c7f",
  "ImageComments": "Unaliased MB4/PE3/LB",
  "ImageOrientationPatientDICOM": [0.999969, -0.00647205, -0.00437448, 0.0045378, 0.937074, -0.349101],
  "ImageOrientationText": "Tra>Cor(-20.4)>Sag(-0.4)",
  "ImageType": [
    "ORIGINAL",
    "PRIMARY",
    "M",
    "MB",
    "ND",
    "MOSAIC"
],
  "ImagingFrequency": 123.249683,
  "InPlanePhaseEncodingDirectionDICOM": "COL",
  "InstitutionAddress": "Chemin Queen-Mary 4565,Montreal,District,CA,H3W 1W5",
  "InstitutionName": "IUGM",
  "InstitutionalDepartmentName": "Department",
  "MRAcquisitionType": "2D",
  "MagneticFieldStrength": 3,
  "Manufacturer": "Siemens",
  "ManufacturersModelName": "Prisma_fit",
  "MatrixCoilMode": "SENSE",
  "Modality": "MR",
  "MultibandAccelerationFactor": 4,
  "NonlinearGradientCorrection": false,
  "PartialFourier": 1,
  "PatientPosition": "HFS",
  "PercentPhaseFOV": 100,
  "PercentSampling": 100,
  "PhaseEncodingDirection": "j",
  "PhaseEncodingSteps": 104,
  "PhaseResolution": 1,
  "PixelBandwidth": 2290,
  "ProcedureStepDescription": "video^friends",
  "ProtocolName": "func_task-friends-s07e23d",
  "PulseSequenceDetails": "%CustomerSeq%\\cmrr_mbep2d_bold",
  "ReceiveCoilActiveElements": "HC1-7;NC1,2",
  "ReceiveCoilName": "HeadNeck_64",
  "ReconMatrixPE": 104,
  "RepetitionTime": 1.49,
  "SAR": 0.0500962,
  "ScanOptions": "FS",
  "ScanningSequence": "EP",
  "SequenceName": "epfid2d1_104",
  "SequenceVariant": "SK\\SS",
  "SeriesDescription": "func_task-friends-s07e23d",
  "SeriesNumber": 14,
  "ShimSetting": [604, -7299, -8826, 477, 33, -270, -132, 63],
  "SliceThickness": 2,
  "SliceTiming": [0, 0.785, 0.0975, 0.8825, 0.195, 0.98, 0.295, 1.0775, 0.3925, 1.175, 0.49, 1.275, 0.5875, 1.3725, 0.685, 0, 0.785, 0.0975, 0.8825, 0.195, 0.98, 0.295, 1.0775, 0.3925, 1.175, 0.49, 1.275, 0.5875, 1.3725, 0.685, 0, 0.785, 0.0975, 0.8825, 0.195, 0.98, 0.295, 1.0775, 0.3925, 1.175, 0.49, 1.275, 0.5875, 1.3725, 0.685, 0, 0.785, 0.0975, 0.8825, 0.195, 0.98, 0.295, 1.0775, 0.3925, 1.175, 0.49, 1.275, 0.5875, 1.3725, 0.685],
  "SoftwareVersions": "syngo MR E11",
  "SpacingBetweenSlices": 2,
  "StationName": "MRC35049",
  "TaskName": "s07e23d",
  "TotalReadoutTime": 0.0576811,
  "TxRefAmp": 242.215,
  "WipMemBlock": "83f9e12b-4348-4ab2-8f92-3cb6f378d41d||Sequence: R017 ve11c/master r/75a17815+; Jun 28 2022 16:32:11 by eja",
  "dcmmeta_affine": [
    [-1.99993896484375, 0.009075596928596497, -0.012717215344309807, 102.64777374267578],
    [0.012944103218615055, 1.8741484880447388, -0.6981401443481445, -73.09613037109375],
    [-0.008748956024646759, 0.6982011795043945, 1.874150037765503, -68.59138488769531],
    [0.0, 0.0, 0.0, 1.0]
],
  "dcmmeta_reorient_transform": [
    [0.0, -1.0, 0.0, 103.0],
    [1.0, 0.0, 0.0, 0.0],
    [0.0, 0.0, 1.0, 0.0],
    [0.0, 0.0, 0.0, 1.0]
],
  "dcmmeta_shape": [104, 104, 60, 515],
  "dcmmeta_slice_dim": 2,
  "dcmmeta_version": 0.6,
  "global": {
    "const": {
      "AcquisitionMatrix": [104, 0, 0, 104],
      "AngioFlag": "N",
      "BitsAllocated": 16,
      "BitsStored": 16,
      "BodyPartExamined": "BRAIN",
      "Columns": 832,
      "EchoNumbers": 1,
      "EchoTime": 37.0,
      "EchoTrainLength": 104,
      "FlipAngle": 52.0,
      "HighBit": 15,
      "ImageOrientationPatient": [0.99996948778102, -0.0064720514248, -0.0043744779483, 0.00453779854049, 0.93707427241594, -0.3491005820112],
      "ImagePositionPatient": [-834.8638631624, -797.41958286827, 260.65317768173],
      "ImageType": [
        "ORIGINAL",
        "PRIMARY",
        "M",
        "MB",
        "ND",
        "MOSAIC"
],
      "ImagedNucleus": "1H",
      "ImagingFrequency": 123.249683,
      "InPlanePhaseEncodingDirection": "COL",
      "MRAcquisitionType": "2D",
      "MagneticFieldStrength": 3.0,
      "Manufacturer": "SIEMENS",
      "ManufacturerModelName": "Prisma_fit",
      "Modality": "MR",
      "NumberOfAverages": 1.0,
      "NumberOfPhaseEncodingSteps": 104,
      "PercentPhaseFieldOfView": 100.0,
      "PercentSampling": 100.0,
      "PerformedProcedureStepStartTime": "155555.780000",
      "PhotometricInterpretation": "MONOCHROME2",
      "PixelBandwidth": 2290.0,
      "PixelRepresentation": 0,
      "PixelSpacing": [2.0, 2.0],
      "ProtocolName": "func_task-friends-s07e23d",
      "RepetitionTime": 1490.0,
      "Rows": 832,
      "SAR": 0.05009621956271,
      "SamplesPerPixel": 1,
      "ScanOptions": "FS",
      "ScanningSequence": "EP",
      "SequenceName": "epfid2d1_104",
      "SequenceVariant": [
        "SK",
        "SS"
],
      "SeriesDescription": "func_task-friends-s07e23d",
      "SeriesNumber": 14,
      "SeriesTime": "163204.126000",
      "SliceLocation": -39.412299818634,
      "SliceThickness": 2.0,
      "SmallestImagePixelValue": 0,
      "SoftwareVersions": "syngo MR E11",
      "SpacingBetweenSlices": 1.9999999399226,
      "SpecificCharacterSet": "ISO_IR 100",
      "StudyID": "1",
      "StudyTime": "155555.691000",
      "TransmitCoilName": "Body",
      "VariableFlipAngleFlag": "N",
      "WindowCenterWidthExplanation": "Algo1",
      "dBdt": 0.0},
    "slices": {}
  },
  "time": {
    "samples": {
      "AcquisitionNumber": [1, 2, 3, 4, 5, 6, 7, 8, 9, 10, 11, 12, 13, 14, 15, 16, 17, 18, 19, 20, 21, 22, 23, 24, 25, 26, 27, 28, 29, 30, 31, 32, 33, 34, 35, 36, 37, 38, 39, 40, 41, 42, 43, 44, 45, 46, 47, 48, 49, 50, 51, 52, 53, 54, 55, 56, 57, 58, 59, 60, 61, 62, 63, 64, 65, 66, 67, 68, 69, 70, 71, 72, 73, 74, 75, 76, 77, 78, 79, 80, 81, 82, 83, 84, 85, 86, 87, 88, 89, 90, 91, 92, 93, 94, 95, 96, 97, 98, 99, 100, 101, 102, 103, 104, 105, 106, 107, 108, 109, 110, 111, 112, 113, 114, 115, 116, 117, 118, 119, 120, 121, 122, 123, 124, 125, 126, 127, 128, 129, 130, 131, 132, 133, 134, 135, 136, 137, 138, 139, 140, 141, 142, 143, 144, 145, 146, 147, 148, 149, 150, 151, 152, 153, 154, 155, 156, 157, 158, 159, 160, 161, 162, 163, 164, 165, 166, 167, 168, 169, 170, 171, 172, 173, 174, 175, 176, 177, 178, 179, 180, 181, 182, 183, 184, 185, 186, 187, 188, 189, 190, 191, 192, 193, 194, 195, 196, 197, 198, 199, 200, 201, 202, 203, 204, 205, 206, 207, 208, 209, 210, 211, 212, 213, 214, 215, 216, 217, 218, 219, 220, 221, 222, 223, 224, 225, 226, 227, 228, 229, 230, 231, 232, 233, 234, 235, 236, 237, 238, 239, 240, 241, 242, 243, 244, 245, 246, 247, 248, 249, 250, 251, 252, 253, 254, 255, 256, 257, 258, 259, 260, 261, 262, 263, 264, 265, 266, 267, 268, 269, 270, 271, 272, 273, 274, 275, 276, 277, 278, 279, 280, 281, 282, 283, 284, 285, 286, 287, 288, 289, 290, 291, 292, 293, 294, 295, 296, 297, 298, 299, 300, 301, 302, 303, 304, 305, 306, 307, 308, 309, 310, 311, 312, 313, 314, 315, 316, 317, 318, 319, 320, 321, 322, 323, 324, 325, 326, 327, 328, 329, 330, 331, 332, 333, 334, 335, 336, 337, 338, 339, 340, 341, 342, 343, 344, 345, 346, 347, 348, 349, 350, 351, 352, 353, 354, 355, 356, 357, 358, 359, 360, 361, 362, 363, 364, 365, 366, 367, 368, 369, 370, 371, 372, 373, 374, 375, 376, 377, 378, 379, 380, 381, 382, 383, 384, 385, 386, 387, 388, 389, 390, 391, 392, 393, 394, 395, 396, 397, 398, 399, 400, 401, 402, 403, 404, 405, 406, 407, 408, 409, 410, 411, 412, 413, 414, 415, 416, 417, 418, 419, 420, 421, 422, 423, 424, 425, 426, 427, 428, 429, 430, 431, 432, 433, 434, 435, 436, 437, 438, 439, 440, 441, 442, 443, 444, 445, 446, 447, 448, 449, 450, 451, 452, 453, 454, 455, 456, 457, 458, 459, 460, 461, 462, 463, 464, 465, 466, 467, 468, 469, 470, 471, 472, 473, 474, 475, 476, 477, 478, 479, 480, 481, 482, 483, 484, 485, 486, 487, 488, 489, 490, 491, 492, 493, 494, 495, 496, 497, 498, 499, 500, 501, 502, 503, 504, 505, 506, 507, 508, 509, 510, 511, 512, 513, 514, 515],
      "AcquisitionTime": ["163055.840000", "163057.330000", "163058.820000", "163100.310000", "163101.800000", "163103.290000", "163104.780000", "163106.270000", "163107.760000", "163109.250000", "163110.740000", "163112.230000", "163113.720000", "163115.210000", "163116.700000", "163118.190000", "163119.680000", "163121.170000", "163122.660000", "163124.150000", "163125.640000", "163127.130000", "163128.620000", "163130.110000", "163131.600000", "163133.090000", "163134.580000", "163136.070000", "163137.560000", "163139.050000", "163140.540000", "163142.030000", "163143.520000", "163145.010000", "163146.500000", "163147.990000", "163149.480000", "163150.970000", "163152.460000", "163153.950000", "163155.440000", "163156.930000", "163158.420000", "163159.910000", "163201.400000", "163202.890000", "163204.380000", "163205.870000", "163207.360000", "163208.850000", "163210.340000", "163211.830000", "163213.320000", "163214.810000", "163216.300000", "163217.790000", "163219.280000", "163220.770000", "163222.260000", "163223.750000", "163225.240000", "163226.730000", "163228.220000", "163229.710000", "163231.200000", "163232.690000", "163234.180000", "163235.670000", "163237.160000", "163238.650000", "163240.140000", "163241.630000", "163243.120000", "163244.610000", "163246.100000", "163247.590000", "163249.080000", "163250.570000", "163252.060000", "163253.550000", "163255.040000", "163256.530000", "163258.020000", "163259.510000", "163301.000000", "163302.490000", "163303.980000", "163305.470000", "163306.960000", "163308.450000", "163309.940000", "163311.430000", "163312.920000", "163314.410000", "163315.900000", "163317.390000", "163318.880000", "163320.370000", "163321.860000", "163323.350000", "163324.840000", "163326.330000", "163327.820000", "163329.310000", "163330.800000", "163332.290000", "163333.780000", "163335.270000", "163336.760000", "163338.250000", "163339.740000", "163341.230000", "163342.720000", "163344.210000", "163345.700000", "163347.190000", "163348.680000", "163350.170000", "163351.660000", "163353.150000", "163354.640000", "163356.130000", "163357.620000", "163359.110000", "163400.600000", "163402.090000", "163403.580000", "163405.070000", "163406.560000", "163408.050000", "163409.540000", "163411.030000", "163412.520000", "163414.010000", "163415.500000", "163416.990000", "163418.480000", "163419.970000", "163421.460000", "163422.950000", "163424.440000", "163425.930000", "163427.420000", "163428.910000", "163430.400000", "163431.890000", "163433.380000", "163434.870000", "163436.360000", "163437.850000", "163439.340000", "163440.830000", "163442.320000", "163443.810000", "163445.300000", "163446.790000", "163448.280000", "163449.770000", "163451.260000", "163452.750000", "163454.240000", "163455.730000", "163457.220000", "163458.710000", "163500.200000", "163501.690000", "163503.180000", "163504.670000", "163506.160000", "163507.650000", "163509.140000", "163510.630000", "163512.120000", "163513.610000", "163515.100000", "163516.590000", "163518.080000", "163519.570000", "163521.060000", "163522.550000", "163524.040000", "163525.530000", "163527.020000", "163528.510000", "163530.000000", "163531.490000", "163532.980000", "163534.470000", "163535.960000", "163537.450000", "163538.940000", "163540.430000", "163541.920000", "163543.410000", "163544.900000", "163546.390000", "163547.880000", "163549.370000", "163550.860000", "163552.350000", "163553.840000", "163555.330000", "163556.820000", "163558.310000", "163559.800000", "163601.290000", "163602.780000", "163604.270000", "163605.760000", "163607.250000", "163608.740000", "163610.230000", "163611.720000", "163613.210000", "163614.700000", "163616.190000", "163617.680000", "163619.170000", "163620.660000", "163622.150000", "163623.640000", "163625.130000", "163626.620000", "163628.110000", "163629.600000", "163631.090000", "163632.580000", "163634.070000", "163635.560000", "163637.050000", "163638.540000", "163640.030000", "163641.520000", "163643.010000", "163644.500000", "163645.990000", "163647.480000", "163648.970000", "163650.460000", "163651.950000", "163653.440000", "163654.930000", "163656.420000", "163657.910000", "163659.400000", "163700.890000", "163702.380000", "163703.870000", "163705.360000", "163706.850000", "163708.340000", "163709.830000", "163711.320000", "163712.810000", "163714.300000", "163715.790000", "163717.280000", "163718.770000", "163720.260000", "163721.750000", "163723.240000", "163724.730000", "163726.220000", "163727.710000", "163729.200000", "163730.690000", "163732.180000", "163733.670000", "163735.160000", "163736.650000", "163738.140000", "163739.630000", "163741.120000", "163742.610000", "163744.100000", "163745.590000", "163747.080000", "163748.570000", "163750.060000", "163751.550000", "163753.040000", "163754.530000", "163756.020000", "163757.510000", "163759.000000", "163800.490000", "163801.980000", "163803.470000", "163804.960000", "163806.450000", "163807.940000", "163809.430000", "163810.920000", "163812.410000", "163813.900000", "163815.390000", "163816.880000", "163818.370000", "163819.860000", "163821.350000", "163822.840000", "163824.330000", "163825.820000", "163827.310000", "163828.800000", "163830.290000", "163831.780000", "163833.270000", "163834.760000", "163836.250000", "163837.740000", "163839.230000", "163840.720000", "163842.210000", "163843.700000", "163845.190000", "163846.680000", "163848.170000", "163849.660000", "163851.150000", "163852.640000", "163854.130000", "163855.620000", "163857.110000", "163858.600000", "163900.090000", "163901.580000", "163903.070000", "163904.560000", "163906.050000", "163907.540000", "163909.030000", "163910.520000", "163912.010000", "163913.500000", "163914.990000", "163916.480000", "163917.970000", "163919.460000", "163920.950000", "163922.440000", "163923.930000", "163925.420000", "163926.910000", "163928.400000", "163929.890000", "163931.380000", "163932.870000", "163934.360000", "163935.850000", "163937.340000", "163938.830000", "163940.320000", "163941.810000", "163943.300000", "163944.790000", "163946.280000", "163947.770000", "163949.260000", "163950.750000", "163952.240000", "163953.730000", "163955.220000", "163956.710000", "163958.200000", "163959.690000", "164001.180000", "164002.670000", "164004.160000", "164005.650000", "164007.140000", "164008.630000", "164010.120000", "164011.610000", "164013.100000", "164014.590000", "164016.080000", "164017.570000", "164019.060000", "164020.550000", "164022.040000", "164023.530000", "164025.020000", "164026.510000", "164028.000000", "164029.490000", "164030.980000", "164032.470000", "164033.960000", "164035.450000", "164036.940000", "164038.430000", "164039.920000", "164041.410000", "164042.900000", "164044.390000", "164045.880000", "164047.370000", "164048.860000", "164050.350000", "164051.840000", "164053.330000", "164054.820000", "164056.310000", "164057.800000", "164059.290000", "164100.780000", "164102.270000", "164103.760000", "164105.250000", "164106.740000", "164108.230000", "164109.720000", "164111.210000", "164112.700000", "164114.190000", "164115.680000", "164117.170000", "164118.660000", "164120.150000", "164121.640000", "164123.130000", "164124.620000", "164126.110000", "164127.600000", "164129.090000", "164130.580000", "164132.070000", "164133.560000", "164135.050000", "164136.540000", "164138.030000", "164139.520000", "164141.010000", "164142.500000", "164143.990000", "164145.480000", "164146.970000", "164148.460000", "164149.950000", "164151.440000", "164152.930000", "164154.420000", "164155.910000", "164157.400000", "164158.890000", "164200.380000", "164201.870000", "164203.360000", "164204.850000", "164206.340000", "164207.830000", "164209.320000", "164210.810000", "164212.300000", "164213.790000", "164215.280000", "164216.770000", "164218.260000", "164219.750000", "164221.240000", "164222.730000", "164224.220000", "164225.710000", "164227.200000", "164228.690000", "164230.180000", "164231.670000", "164233.160000", "164234.650000", "164236.140000", "164237.630000", "164239.120000", "164240.610000", "164242.100000", "164243.590000", "164245.080000", "164246.570000", "164248.060000", "164249.550000", "164251.040000", "164252.530000", "164254.020000", "164255.510000", "164257.000000", "164258.490000", "164259.980000", "164301.470000", "164302.960000", "164304.450000", "164305.940000", "164307.430000", "164308.920000", "164310.410000", "164311.900000", "164313.390000", "164314.880000", "164316.370000", "164317.860000", "164319.350000", "164320.840000", "164322.330000", "164323.820000", "164325.310000", "164326.800000", "164328.290000", "164329.780000", "164331.270000", "164332.760000", "164334.250000", "164335.740000", "164337.230000", "164338.720000", "164340.210000", "164341.700000"],
      "ContentTime": ["163204.129000", "163204.133000", "163204.135000", "163204.138000", "163204.141000", "163204.144000", "163204.147000", "163204.150000", "163204.153000", "163204.156000", "163204.159000", "163204.162000", "163204.164000", "163204.207000", "163204.210000", "163204.212000", "163204.215000", "163204.218000", "163204.226000", "163204.229000", "163224.098000", "163224.101000", "163224.104000", "163224.107000", "163224.109000", "163224.112000", "163224.118000", "163224.121000", "163224.124000", "163224.127000", "163224.130000", "163224.133000", "163224.135000", "163224.138000", "163224.141000", "163224.144000", "163224.147000", "163224.149000", "163224.152000", "163224.155000", "163224.158000", "163244.098000", "163244.101000", "163244.104000", "163244.106000", "163244.109000", "163244.112000", "163244.115000", "163244.118000", "163244.121000", "163244.123000", "163244.126000", "163244.129000", "163244.132000", "163244.136000", "163244.143000", "163244.145000", "163244.148000", "163244.151000", "163244.154000", "163244.157000", "163304.098000", "163304.101000", "163304.104000", "163304.107000", "163304.110000", "163304.113000", "163304.115000", "163304.118000", "163304.121000", "163304.124000", "163304.127000", "163304.129000", "163304.132000", "163304.135000", "163304.138000", "163304.141000", "163304.143000", "163304.146000", "163304.149000", "163304.152000", "163344.098000", "163344.101000", "163344.104000", "163344.107000", "163344.109000", "163344.112000", "163344.115000", "163344.118000", "163344.121000", "163344.124000", "163344.126000", "163344.129000", "163344.132000", "163344.135000", "163344.138000", "163344.141000", "163344.143000", "163344.146000", "163344.155000", "163344.158000", "163344.161000", "163344.164000", "163344.167000", "163344.169000", "163344.172000", "163344.175000", "163344.178000", "163344.181000", "163344.183000", "163344.186000", "163344.189000", "163424.098000", "163424.101000", "163424.104000", "163424.107000", "163424.109000", "163424.112000", "163424.115000", "163424.118000", "163424.121000", "163424.123000", "163424.126000", "163424.129000", "163424.132000", "163424.135000", "163424.138000", "163424.141000", "163424.143000", "163424.146000", "163424.149000", "163424.152000", "163424.155000", "163424.158000", "163424.161000", "163424.163000", "163424.166000", "163424.169000", "163424.172000", "163504.098000", "163504.101000", "163504.104000", "163504.107000", "163504.110000", "163504.112000", "163504.115000", "163504.118000", "163504.121000", "163504.124000", "163504.127000", "163504.130000", "163504.132000", "163504.135000", "163504.138000", "163504.141000", "163504.144000", "163504.147000", "163504.149000", "163504.152000", "163504.155000", "163504.158000", "163504.162000", "163504.165000", "163504.168000", "163504.171000", "163504.173000", "163544.098000", "163544.101000", "163544.104000", "163544.106000", "163544.109000", "163544.112000", "163544.115000", "163544.118000", "163544.121000", "163544.124000", "163544.126000", "163544.129000", "163544.140000", "163544.143000", "163544.146000", "163544.149000", "163544.152000", "163544.154000", "163544.157000", "163544.160000", "163544.163000", "163544.177000", "163544.179000", "163544.182000", "163544.185000", "163544.188000", "163544.191000", "163604.098000", "163604.101000", "163604.104000", "163604.106000", "163604.109000", "163604.112000", "163604.115000", "163604.118000", "163604.121000", "163604.124000", "163604.126000", "163604.129000", "163604.132000", "163644.099000", "163644.102000", "163644.105000", "163644.108000", "163644.111000", "163644.114000", "163644.116000", "163644.119000", "163644.122000", "163644.125000", "163644.128000", "163644.131000", "163644.133000", "163644.136000", "163644.139000", "163644.142000", "163644.145000", "163644.147000", "163644.150000", "163644.153000", "163644.156000", "163644.159000", "163644.162000", "163644.164000", "163644.167000", "163644.170000", "163644.173000", "163724.098000", "163724.101000", "163724.104000", "163724.107000", "163724.110000", "163724.112000", "163724.115000", "163724.118000", "163724.121000", "163724.124000", "163724.127000", "163724.130000", "163724.133000", "163724.135000", "163724.138000", "163724.141000", "163724.144000", "163724.147000", "163724.150000", "163724.152000", "163724.155000", "163724.158000", "163724.161000", "163724.164000", "163724.167000", "163724.169000", "163724.172000", "163804.098000", "163804.101000", "163804.104000", "163804.106000", "163804.109000", "163804.112000", "163804.115000", "163804.118000", "163804.121000", "163804.123000", "163804.126000", "163804.129000", "163804.132000", "163804.135000", "163804.138000", "163804.140000", "163804.143000", "163804.146000", "163804.157000", "163804.160000", "163804.162000", "163804.165000", "163804.168000", "163804.171000", "163804.174000", "163804.177000", "163804.180000", "163844.098000", "163844.101000", "163844.104000", "163844.113000", "163844.116000", "163844.120000", "163844.122000", "163844.125000", "163844.128000", "163844.131000", "163844.134000", "163844.137000", "163844.139000", "163844.142000", "163844.145000", "163844.148000", "163844.151000", "163844.154000", "163844.157000", "163844.159000", "163844.162000", "163844.165000", "163844.168000", "163844.171000", "163844.173000", "163844.176000", "163924.098000", "163924.101000", "163924.104000", "163924.106000", "163924.109000", "163924.112000", "163924.115000", "163924.118000", "163924.120000", "163924.123000", "163924.126000", "163924.129000", "163924.132000", "163924.135000", "163924.137000", "163924.140000", "163924.143000", "163924.146000", "163924.149000", "163924.151000", "163924.154000", "163924.157000", "163924.160000", "163924.163000", "163924.166000", "163924.168000", "163924.171000", "164004.098000", "164004.101000", "164004.104000", "164004.107000", "164004.109000", "164004.112000", "164004.115000", "164004.118000", "164004.121000", "164004.124000", "164004.126000", "164004.129000", "164004.132000", "164004.135000", "164004.138000", "164004.140000", "164004.143000", "164004.146000", "164004.149000", "164004.152000", "164004.155000", "164004.158000", "164004.161000", "164004.163000", "164004.166000", "164004.169000", "164004.172000", "164044.098000", "164044.109000", "164044.112000", "164044.114000", "164044.117000", "164044.120000", "164044.123000", "164044.126000", "164044.144000", "164044.147000", "164044.150000", "164044.153000", "164044.156000", "164044.159000", "164044.161000", "164044.164000", "164044.167000", "164044.170000", "164044.173000", "164044.176000", "164044.178000", "164044.181000", "164044.184000", "164044.187000", "164044.190000", "164044.193000", "164044.196000", "164124.098000", "164124.101000", "164124.104000", "164124.107000", "164124.109000", "164124.112000", "164124.115000", "164124.118000", "164124.121000", "164124.124000", "164124.126000", "164124.129000", "164124.132000", "164124.135000", "164124.138000", "164124.141000", "164124.143000", "164124.146000", "164124.149000", "164124.152000", "164124.155000", "164124.157000", "164124.160000", "164124.163000", "164124.166000", "164124.169000", "164124.172000", "164204.098000", "164204.101000", "164204.104000", "164204.106000", "164204.109000", "164204.112000", "164204.115000", "164204.118000", "164204.121000", "164204.123000", "164204.126000", "164204.129000", "164204.132000", "164204.135000", "164204.137000", "164204.140000", "164204.143000", "164204.146000", "164204.148000", "164204.151000", "164204.154000", "164204.157000", "164204.160000", "164204.162000", "164204.165000", "164204.168000", "164204.171000", "164244.098000", "164244.101000", "164244.104000", "164244.107000", "164244.110000", "164244.113000", "164244.116000", "164244.118000", "164244.121000", "164244.124000", "164244.127000", "164244.130000", "164244.133000", "164244.135000", "164244.138000", "164244.141000", "164244.144000", "164244.146000", "164244.149000", "164244.152000", "164244.155000", "164244.158000", "164244.161000", "164244.163000", "164244.166000", "164244.169000", "164244.172000", "164324.098000", "164324.101000", "164324.104000", "164324.107000", "164324.109000", "164324.112000", "164324.115000", "164324.118000", "164324.121000", "164324.124000", "164324.126000", "164324.129000", "164324.132000", "164324.135000", "164324.138000", "164324.141000", "164324.144000", "164324.146000", "164324.149000", "164324.152000", "164324.155000", "164324.158000", "164324.161000", "164324.163000", "164324.166000", "164324.169000", "164343.646000", "164343.649000", "164343.652000", "164343.655000", "164343.658000", "164343.661000", "164343.664000", "164343.666000", "164343.669000", "164343.672000", "164343.675000", "164343.678000", "164343.681000", "164343.684000"],
