{
  "AcquisitionMatrixPE": 104,
  "AcquisitionNumber": 1,
  "AcquisitionTime": "16:01:28.857500",
  "BandwidthPerPixelPhaseEncode": 17.17,
  "BaseResolution": 104,
  "BodyPartExamined": "BRAIN",
  "CoilCombinationMethod": "Sum of Squares",
  "ConsistencyInfo": "N4_VE11C_LATEST_20160120",
  "ConversionSoftware": "dcm2niix",
  "ConversionSoftwareVersion": "v1.0.20230411",
  "DerivedVendorReportedEchoSpacing": 0.000560011,
  "DeviceSerialNumber": "167006",
  "DwellTime": 2.1e-06,
  "EchoTime": 0.037,
  "EchoTrainLength": 104,
  "EffectiveEchoSpacing": 0.000560011,
  "FlipAngle": 52,
  "HeudiconvVersion": "0.5.3.post861+ge7d3c7f",
  "ImageComments": "Unaliased MB4/PE3/LB",
  "ImageOrientationPatientDICOM": [0.999969, -0.00647205, -0.00437448, 0.0045378, 0.937074, -0.349101],
  "ImageOrientationText": "Tra>Cor(-20.4)>Sag(-0.4)",
  "ImageType": [
    "ORIGINAL",
    "PRIMARY",
    "M",
    "MB",
    "ND",
    "MOSAIC"
],
  "ImagingFrequency": 123.249677,
  "InPlanePhaseEncodingDirectionDICOM": "COL",
  "InstitutionAddress": "Chemin Queen-Mary 4565,Montreal,District,CA,H3W 1W5",
  "InstitutionName": "IUGM",
  "InstitutionalDepartmentName": "Department",
  "MRAcquisitionType": "2D",
  "MagneticFieldStrength": 3,
  "Manufacturer": "Siemens",
  "ManufacturersModelName": "Prisma_fit",
  "MatrixCoilMode": "SENSE",
  "Modality": "MR",
  "MultibandAccelerationFactor": 4,
  "NonlinearGradientCorrection": false,
  "PartialFourier": 1,
  "PatientPosition": "HFS",
  "PercentPhaseFOV": 100,
  "PercentSampling": 100,
  "PhaseEncodingDirection": "j",
  "PhaseEncodingSteps": 104,
  "PhaseResolution": 1,
  "PixelBandwidth": 2290,
  "ProcedureStepDescription": "video^friends",
  "ProtocolName": "func_task-friends-s07e23b",
  "PulseSequenceDetails": "%CustomerSeq%\\cmrr_mbep2d_bold",
  "ReceiveCoilActiveElements": "HC1-7;NC1,2",
  "ReceiveCoilName": "HeadNeck_64",
  "ReconMatrixPE": 104,
  "RepetitionTime": 1.49,
  "SAR": 0.0500962,
  "ScanOptions": "FS",
  "ScanningSequence": "EP",
  "SequenceName": "epfid2d1_104",
  "SequenceVariant": "SK\\SS",
  "SeriesDescription": "func_task-friends-s07e23b",
  "SeriesNumber": 10,
  "ShimSetting": [604, -7299, -8826, 477, 33, -270, -132, 63],
  "SliceThickness": 2,
  "SliceTiming": [0, 0.7825, 0.0975, 0.88, 0.195, 0.98, 0.2925, 1.0775, 0.39, 1.175, 0.49, 1.2725, 0.5875, 1.37, 0.685, 0, 0.7825, 0.0975, 0.88, 0.195, 0.98, 0.2925, 1.0775, 0.39, 1.175, 0.49, 1.2725, 0.5875, 1.37, 0.685, 0, 0.7825, 0.0975, 0.88, 0.195, 0.98, 0.2925, 1.0775, 0.39, 1.175, 0.49, 1.2725, 0.5875, 1.37, 0.685, 0, 0.7825, 0.0975, 0.88, 0.195, 0.98, 0.2925, 1.0775, 0.39, 1.175, 0.49, 1.2725, 0.5875, 1.37, 0.685],
  "SoftwareVersions": "syngo MR E11",
  "SpacingBetweenSlices": 2,
  "StationName": "MRC35049",
  "TaskName": "s07e23b",
  "TotalReadoutTime": 0.0576811,
  "TxRefAmp": 242.215,
  "WipMemBlock": "87ff5936-68bf-408a-a1d7-10572a2c69f1||Sequence: R017 ve11c/master r/75a17815+; Jun 28 2022 16:32:11 by eja",
  "dcmmeta_affine": [
    [-1.99993896484375, 0.009075596928596497, -0.012717215344309807, 102.64777374267578],
    [0.012944103218615055, 1.8741484880447388, -0.6981401443481445, -73.09613037109375],
    [-0.008748956024646759, 0.6982011795043945, 1.874150037765503, -68.59138488769531],
    [0.0, 0.0, 0.0, 1.0]
],
  "dcmmeta_reorient_transform": [
    [0.0, -1.0, 0.0, 103.0],
    [1.0, 0.0, 0.0, 0.0],
    [0.0, 0.0, 1.0, 0.0],
    [0.0, 0.0, 0.0, 1.0]
],
  "dcmmeta_shape": [104, 104, 60, 484],
  "dcmmeta_slice_dim": 2,
  "dcmmeta_version": 0.6,
  "global": {
    "const": {
      "AcquisitionMatrix": [104, 0, 0, 104],
      "AngioFlag": "N",
      "BitsAllocated": 16,
      "BitsStored": 16,
      "BodyPartExamined": "BRAIN",
      "Columns": 832,
      "EchoNumbers": 1,
      "EchoTime": 37.0,
      "EchoTrainLength": 104,
      "FlipAngle": 52.0,
      "HighBit": 15,
      "ImageOrientationPatient": [0.99996948778102, -0.0064720514248, -0.0043744779483, 0.00453779854049, 0.93707427241594, -0.3491005820112],
      "ImagePositionPatient": [-834.8638631624, -797.41958286827, 260.65317768173],
      "ImageType": [
        "ORIGINAL",
        "PRIMARY",
        "M",
        "MB",
        "ND",
        "MOSAIC"
],
      "ImagedNucleus": "1H",
      "ImagingFrequency": 123.249677,
      "InPlanePhaseEncodingDirection": "COL",
      "MRAcquisitionType": "2D",
      "MagneticFieldStrength": 3.0,
      "Manufacturer": "SIEMENS",
      "ManufacturerModelName": "Prisma_fit",
      "Modality": "MR",
      "NumberOfAverages": 1.0,
      "NumberOfPhaseEncodingSteps": 104,
      "PercentPhaseFieldOfView": 100.0,
      "PercentSampling": 100.0,
      "PerformedProcedureStepStartTime": "155555.780000",
      "PhotometricInterpretation": "MONOCHROME2",
      "PixelBandwidth": 2290.0,
      "PixelRepresentation": 0,
      "PixelSpacing": [2.0, 2.0],
      "ProtocolName": "func_task-friends-s07e23b",
      "RepetitionTime": 1490.0,
      "Rows": 832,
      "SAR": 0.05009621893744,
      "SamplesPerPixel": 1,
      "ScanOptions": "FS",
      "ScanningSequence": "EP",
      "SequenceName": "epfid2d1_104",
      "SequenceVariant": [
        "SK",
        "SS"
],
      "SeriesDescription": "func_task-friends-s07e23b",
      "SeriesNumber": 10,
      "SeriesTime": "160239.026000",
      "SliceLocation": -39.412299818634,
      "SliceThickness": 2.0,
      "SmallestImagePixelValue": 0,
      "SoftwareVersions": "syngo MR E11",
      "SpacingBetweenSlices": 1.9999999399226,
      "SpecificCharacterSet": "ISO_IR 100",
      "StudyID": "1",
      "StudyTime": "155555.691000",
      "TransmitCoilName": "Body",
      "VariableFlipAngleFlag": "N",
      "WindowCenterWidthExplanation": "Algo1",
      "dBdt": 0.0},
    "slices": {}
  },
  "time": {
    "samples": {
      "AcquisitionNumber": [1, 2, 3, 4, 5, 6, 7, 8, 9, 10, 11, 12, 13, 14, 15, 16, 17, 18, 19, 20, 21, 22, 23, 24, 25, 26, 27, 28, 29, 30, 31, 32, 33, 34, 35, 36, 37, 38, 39, 40, 41, 42, 43, 44, 45, 46, 47, 48, 49, 50, 51, 52, 53, 54, 55, 56, 57, 58, 59, 60, 61, 62, 63, 64, 65, 66, 67, 68, 69, 70, 71, 72, 73, 74, 75, 76, 77, 78, 79, 80, 81, 82, 83, 84, 85, 86, 87, 88, 89, 90, 91, 92, 93, 94, 95, 96, 97, 98, 99, 100, 101, 102, 103, 104, 105, 106, 107, 108, 109, 110, 111, 112, 113, 114, 115, 116, 117, 118, 119, 120, 121, 122, 123, 124, 125, 126, 127, 128, 129, 130, 131, 132, 133, 134, 135, 136, 137, 138, 139, 140, 141, 142, 143, 144, 145, 146, 147, 148, 149, 150, 151, 152, 153, 154, 155, 156, 157, 158, 159, 160, 161, 162, 163, 164, 165, 166, 167, 168, 169, 170, 171, 172, 173, 174, 175, 176, 177, 178, 179, 180, 181, 182, 183, 184, 185, 186, 187, 188, 189, 190, 191, 192, 193, 194, 195, 196, 197, 198, 199, 200, 201, 202, 203, 204, 205, 206, 207, 208, 209, 210, 211, 212, 213, 214, 215, 216, 217, 218, 219, 220, 221, 222, 223, 224, 225, 226, 227, 228, 229, 230, 231, 232, 233, 234, 235, 236, 237, 238, 239, 240, 241, 242, 243, 244, 245, 246, 247, 248, 249, 250, 251, 252, 253, 254, 255, 256, 257, 258, 259, 260, 261, 262, 263, 264, 265, 266, 267, 268, 269, 270, 271, 272, 273, 274, 275, 276, 277, 278, 279, 280, 281, 282, 283, 284, 285, 286, 287, 288, 289, 290, 291, 292, 293, 294, 295, 296, 297, 298, 299, 300, 301, 302, 303, 304, 305, 306, 307, 308, 309, 310, 311, 312, 313, 314, 315, 316, 317, 318, 319, 320, 321, 322, 323, 324, 325, 326, 327, 328, 329, 330, 331, 332, 333, 334, 335, 336, 337, 338, 339, 340, 341, 342, 343, 344, 345, 346, 347, 348, 349, 350, 351, 352, 353, 354, 355, 356, 357, 358, 359, 360, 361, 362, 363, 364, 365, 366, 367, 368, 369, 370, 371, 372, 373, 374, 375, 376, 377, 378, 379, 380, 381, 382, 383, 384, 385, 386, 387, 388, 389, 390, 391, 392, 393, 394, 395, 396, 397, 398, 399, 400, 401, 402, 403, 404, 405, 406, 407, 408, 409, 410, 411, 412, 413, 414, 415, 416, 417, 418, 419, 420, 421, 422, 423, 424, 425, 426, 427, 428, 429, 430, 431, 432, 433, 434, 435, 436, 437, 438, 439, 440, 441, 442, 443, 444, 445, 446, 447, 448, 449, 450, 451, 452, 453, 454, 455, 456, 457, 458, 459, 460, 461, 462, 463, 464, 465, 466, 467, 468, 469, 470, 471, 472, 473, 474, 475, 476, 477, 478, 479, 480, 481, 482, 483, 484],
      "AcquisitionTime": ["160128.857500", "160130.347500", "160131.837500", "160133.327500", "160134.817500", "160136.307500", "160137.797500", "160139.287500", "160140.777500", "160142.267500", "160143.757500", "160145.247500", "160146.737500", "160148.227500", "160149.717500", "160151.207500", "160152.697500", "160154.187500", "160155.677500", "160157.167500", "160158.657500", "160200.147500", "160201.637500", "160203.127500", "160204.617500", "160206.107500", "160207.597500", "160209.087500", "160210.577500", "160212.067500", "160213.557500", "160215.047500", "160216.537500", "160218.027500", "160219.517500", "160221.007500", "160222.497500", "160223.987500", "160225.477500", "160226.967500", "160228.457500", "160229.947500", "160231.437500", "160232.927500", "160234.417500", "160235.907500", "160237.397500", "160238.887500", "160240.377500", "160241.867500", "160243.357500", "160244.847500", "160246.337500", "160247.827500", "160249.317500", "160250.807500", "160252.297500", "160253.787500", "160255.277500", "160256.767500", "160258.257500", "160259.747500", "160301.237500", "160302.727500", "160304.217500", "160305.707500", "160307.197500", "160308.687500", "160310.177500", "160311.667500", "160313.157500", "160314.647500", "160316.137500", "160317.627500", "160319.117500", "160320.607500", "160322.097500", "160323.587500", "160325.077500", "160326.567500", "160328.057500", "160329.547500", "160331.037500", "160332.527500", "160334.017500", "160335.507500", "160336.997500", "160338.487500", "160339.977500", "160341.467500", "160342.957500", "160344.447500", "160345.937500", "160347.427500", "160348.917500", "160350.407500", "160351.897500", "160353.387500", "160354.877500", "160356.367500", "160357.857500", "160359.347500", "160400.837500", "160402.327500", "160403.817500", "160405.307500", "160406.797500", "160408.287500", "160409.777500", "160411.267500", "160412.757500", "160414.247500", "160415.737500", "160417.227500", "160418.717500", "160420.207500", "160421.697500", "160423.187500", "160424.677500", "160426.167500", "160427.657500", "160429.147500", "160430.637500", "160432.127500", "160433.617500", "160435.107500", "160436.597500", "160438.087500", "160439.577500", "160441.067500", "160442.557500", "160444.047500", "160445.537500", "160447.027500", "160448.517500", "160450.007500", "160451.497500", "160452.987500", "160454.477500", "160455.967500", "160457.457500", "160458.947500", "160500.437500", "160501.927500", "160503.417500", "160504.907500", "160506.397500", "160507.887500", "160509.377500", "160510.867500", "160512.357500", "160513.847500", "160515.337500", "160516.827500", "160518.317500", "160519.807500", "160521.297500", "160522.787500", "160524.277500", "160525.767500", "160527.257500", "160528.747500", "160530.237500", "160531.727500", "160533.217500", "160534.707500", "160536.197500", "160537.687500", "160539.177500", "160540.667500", "160542.157500", "160543.647500", "160545.137500", "160546.627500", "160548.117500", "160549.607500", "160551.097500", "160552.587500", "160554.077500", "160555.567500", "160557.057500", "160558.547500", "160600.037500", "160601.527500", "160603.017500", "160604.507500", "160605.997500", "160607.487500", "160608.977500", "160610.467500", "160611.957500", "160613.447500", "160614.937500", "160616.427500", "160617.917500", "160619.407500", "160620.897500", "160622.387500", "160623.877500", "160625.367500", "160626.857500", "160628.347500", "160629.837500", "160631.327500", "160632.817500", "160634.307500", "160635.797500", "160637.287500", "160638.777500", "160640.267500", "160641.757500", "160643.247500", "160644.737500", "160646.227500", "160647.717500", "160649.207500", "160650.697500", "160652.187500", "160653.677500", "160655.167500", "160656.657500", "160658.147500", "160659.637500", "160701.127500", "160702.617500", "160704.107500", "160705.597500", "160707.087500", "160708.577500", "160710.067500", "160711.557500", "160713.047500", "160714.537500", "160716.027500", "160717.517500", "160719.007500", "160720.497500", "160721.987500", "160723.477500", "160724.967500", "160726.457500", "160727.947500", "160729.437500", "160730.927500", "160732.417500", "160733.907500", "160735.397500", "160736.887500", "160738.377500", "160739.867500", "160741.357500", "160742.847500", "160744.337500", "160745.827500", "160747.317500", "160748.807500", "160750.297500", "160751.787500", "160753.277500", "160754.767500", "160756.257500", "160757.747500", "160759.237500", "160800.727500", "160802.217500", "160803.707500", "160805.197500", "160806.687500", "160808.177500", "160809.667500", "160811.157500", "160812.647500", "160814.137500", "160815.627500", "160817.117500", "160818.607500", "160820.097500", "160821.587500", "160823.077500", "160824.567500", "160826.057500", "160827.547500", "160829.037500", "160830.527500", "160832.017500", "160833.507500", "160834.997500", "160836.487500", "160837.977500", "160839.467500", "160840.957500", "160842.447500", "160843.937500", "160845.427500", "160846.917500", "160848.407500", "160849.897500", "160851.387500", "160852.877500", "160854.367500", "160855.857500", "160857.347500", "160858.837500", "160900.327500", "160901.817500", "160903.307500", "160904.797500", "160906.287500", "160907.777500", "160909.267500", "160910.757500", "160912.247500", "160913.737500", "160915.227500", "160916.717500", "160918.207500", "160919.697500", "160921.187500", "160922.677500", "160924.167500", "160925.657500", "160927.147500", "160928.637500", "160930.127500", "160931.617500", "160933.107500", "160934.597500", "160936.087500", "160937.577500", "160939.067500", "160940.557500", "160942.047500", "160943.537500", "160945.027500", "160946.517500", "160948.007500", "160949.497500", "160950.987500", "160952.477500", "160953.967500", "160955.457500", "160956.947500", "160958.437500", "160959.927500", "161001.417500", "161002.907500", "161004.397500", "161005.887500", "161007.377500", "161008.867500", "161010.357500", "161011.847500", "161013.337500", "161014.827500", "161016.317500", "161017.807500", "161019.297500", "161020.787500", "161022.277500", "161023.767500", "161025.257500", "161026.747500", "161028.237500", "161029.727500", "161031.217500", "161032.707500", "161034.197500", "161035.687500", "161037.177500", "161038.667500", "161040.157500", "161041.647500", "161043.137500", "161044.627500", "161046.117500", "161047.607500", "161049.097500", "161050.587500", "161052.077500", "161053.567500", "161055.057500", "161056.547500", "161058.037500", "161059.527500", "161101.017500", "161102.507500", "161103.997500", "161105.487500", "161106.977500", "161108.467500", "161109.957500", "161111.447500", "161112.937500", "161114.427500", "161115.917500", "161117.407500", "161118.897500", "161120.387500", "161121.877500", "161123.367500", "161124.857500", "161126.347500", "161127.837500", "161129.327500", "161130.817500", "161132.307500", "161133.797500", "161135.287500", "161136.777500", "161138.267500", "161139.757500", "161141.247500", "161142.737500", "161144.227500", "161145.717500", "161147.207500", "161148.697500", "161150.187500", "161151.677500", "161153.167500", "161154.657500", "161156.147500", "161157.637500", "161159.127500", "161200.617500", "161202.107500", "161203.597500", "161205.087500", "161206.577500", "161208.067500", "161209.557500", "161211.047500", "161212.537500", "161214.027500", "161215.517500", "161217.007500", "161218.497500", "161219.987500", "161221.477500", "161222.967500", "161224.457500", "161225.947500", "161227.437500", "161228.927500", "161230.417500", "161231.907500", "161233.397500", "161234.887500", "161236.377500", "161237.867500", "161239.357500", "161240.847500", "161242.337500", "161243.827500", "161245.317500", "161246.807500", "161248.297500", "161249.787500", "161251.277500", "161252.767500", "161254.257500", "161255.747500", "161257.237500", "161258.727500", "161300.217500", "161301.707500", "161303.197500", "161304.687500", "161306.177500", "161307.667500", "161309.157500", "161310.647500", "161312.137500", "161313.627500", "161315.117500", "161316.607500", "161318.097500", "161319.587500", "161321.077500", "161322.567500", "161324.057500", "161325.547500", "161327.037500", "161328.527500"],
      "ContentTime": ["160239.029000", "160239.032000", "160239.035000", "160239.038000", "160239.041000", "160239.043000", "160239.046000", "160239.049000", "160239.052000", "160239.055000", "160239.065000", "160239.068000", "160239.071000", "160239.074000", "160239.082000", "160239.085000", "160239.088000", "160239.090000", "160239.093000", "160239.096000", "160259.001000", "160259.004000", "160259.006000", "160259.009000", "160259.012000", "160259.015000", "160259.018000", "160259.021000", "160259.024000", "160259.026000", "160259.029000", "160259.032000", "160259.035000", "160259.038000", "160259.040000", "160259.043000", "160259.046000", "160259.049000", "160259.052000", "160259.054000", "160319.001000", "160319.004000", "160319.006000", "160319.009000", "160319.012000", "160319.015000", "160319.018000", "160319.020000", "160319.023000", "160319.026000", "160319.029000", "160319.045000", "160319.048000", "160319.051000", "160319.054000", "160319.056000", "160319.059000", "160319.062000", "160319.065000", "160319.068000", "160339.001000", "160339.004000", "160339.006000", "160339.009000", "160339.012000", "160339.015000", "160339.018000", "160339.020000", "160339.023000", "160339.026000", "160339.029000", "160339.031000", "160339.034000", "160339.037000", "160339.040000", "160339.043000", "160339.045000", "160339.048000", "160339.051000", "160339.054000", "160359.001000", "160359.004000", "160359.007000", "160359.009000", "160359.012000", "160359.015000", "160359.018000", "160359.020000", "160359.023000", "160359.026000", "160359.029000", "160359.032000", "160359.034000", "160359.037000", "160359.040000", "160359.043000", "160359.046000", "160359.048000", "160359.051000", "160359.054000", "160439.001000", "160439.004000", "160439.007000", "160439.009000", "160439.012000", "160439.015000", "160439.018000", "160439.021000", "160439.023000", "160439.026000", "160439.029000", "160439.032000", "160439.034000", "160439.037000", "160439.040000", "160439.043000", "160439.045000", "160439.048000", "160439.051000", "160439.054000", "160439.057000", "160439.059000", "160439.062000", "160439.065000", "160439.068000", "160439.071000", "160439.073000", "160519.001000", "160519.004000", "160519.007000", "160519.010000", "160519.012000", "160519.015000", "160519.018000", "160519.021000", "160519.024000", "160519.026000", "160519.030000", "160519.033000", "160519.035000", "160519.038000", "160519.041000", "160519.044000", "160519.047000", "160519.050000", "160519.052000", "160519.055000", "160519.058000", "160519.061000", "160519.063000", "160519.066000", "160519.069000", "160519.072000", "160559.001000", "160559.004000", "160559.007000", "160559.010000", "160559.012000", "160559.015000", "160559.018000", "160559.021000", "160559.024000", "160559.026000", "160559.029000", "160559.032000", "160559.035000", "160559.038000", "160559.041000", "160559.043000", "160559.046000", "160559.049000", "160559.052000", "160559.055000", "160559.058000", "160559.060000", "160559.063000", "160559.066000", "160559.069000", "160559.072000", "160559.075000", "160639.001000", "160639.004000", "160639.007000", "160639.009000", "160639.012000", "160639.015000", "160639.018000", "160639.021000", "160639.023000", "160639.026000", "160639.029000", "160639.032000", "160639.035000", "160639.037000", "160639.040000", "160639.043000", "160639.046000", "160639.049000", "160639.052000", "160639.055000", "160639.058000", "160639.061000", "160639.063000", "160639.066000", "160639.069000", "160639.072000", "160639.074000", "160719.001000", "160719.004000", "160719.007000", "160719.009000", "160719.012000", "160719.015000", "160719.018000", "160719.021000", "160719.024000", "160719.026000", "160719.029000", "160719.032000", "160719.035000", "160719.038000", "160719.040000", "160719.043000", "160719.046000", "160719.049000", "160719.052000", "160719.055000", "160719.057000", "160719.060000", "160719.063000", "160719.066000", "160719.069000", "160719.071000", "160719.074000", "160759.001000", "160759.004000", "160759.007000", "160759.010000", "160759.012000", "160759.015000", "160759.023000", "160759.026000", "160759.028000", "160759.031000", "160759.034000", "160759.037000", "160759.040000", "160759.061000", "160759.064000", "160759.067000", "160759.069000", "160759.072000", "160759.075000", "160759.078000", "160759.081000", "160759.084000", "160759.086000", "160759.089000", "160759.092000", "160759.095000", "160759.098000", "160839.001000", "160839.004000", "160839.007000", "160839.010000", "160839.012000", "160839.015000", "160839.018000", "160839.021000", "160839.023000", "160839.026000", "160839.029000", "160839.032000", "160839.035000", "160839.038000", "160839.041000", "160839.043000", "160839.046000", "160839.049000", "160839.052000", "160839.055000", "160839.057000", "160839.060000", "160839.063000", "160839.066000", "160839.068000", "160839.071000", "160839.074000", "160919.001000", "160919.004000", "160919.007000", "160919.009000", "160919.012000", "160919.015000", "160919.018000", "160919.021000", "160919.024000", "160919.027000", "160919.030000", "160919.033000", "160919.035000", "160919.038000", "160919.041000", "160919.044000", "160919.047000", "160919.049000", "160919.052000", "160919.055000", "160919.058000", "160919.061000", "160919.063000", "160919.066000", "160919.069000", "160919.072000", "160959.001000", "160959.004000", "160959.007000", "160959.010000", "160959.012000", "160959.015000", "160959.018000", "160959.021000", "160959.024000", "160959.026000", "160959.029000", "160959.032000", "160959.035000", "160959.038000", "160959.041000", "160959.043000", "160959.046000", "160959.049000", "160959.052000", "160959.055000", "160959.057000", "160959.060000", "160959.063000", "160959.066000", "160959.069000", "160959.071000", "160959.074000", "161039.001000", "161039.004000", "161039.007000", "161039.010000", "161039.012000", "161039.015000", "161039.018000", "161039.021000", "161039.024000", "161039.027000", "161039.029000", "161039.032000", "161039.035000", "161039.038000", "161039.041000", "161039.044000", "161039.046000", "161039.049000", "161039.052000", "161039.055000", "161039.057000", "161039.060000", "161039.063000", "161039.066000", "161039.069000", "161039.072000", "161039.075000", "161119.001000", "161119.004000", "161119.007000", "161119.010000", "161119.012000", "161119.015000", "161119.018000", "161119.021000", "161119.024000", "161119.026000", "161119.029000", "161119.032000", "161119.035000", "161119.038000", "161119.041000", "161119.044000", "161119.046000", "161119.049000", "161119.052000", "161119.055000", "161119.058000", "161119.060000", "161119.063000", "161119.066000", "161119.069000", "161119.072000", "161119.075000", "161159.001000", "161159.004000", "161159.007000", "161159.009000", "161159.012000", "161159.015000", "161159.018000", "161159.021000", "161159.024000", "161159.027000", "161159.029000", "161159.032000", "161159.035000", "161159.038000", "161159.041000", "161159.043000", "161159.046000", "161159.049000", "161159.052000", "161159.055000", "161159.058000", "161159.060000", "161159.063000", "161159.066000", "161159.069000", "161159.072000", "161159.075000", "161239.001000", "161239.004000", "161239.007000", "161239.010000", "161239.012000", "161239.015000", "161239.018000", "161239.021000", "161239.024000", "161239.027000", "161239.029000", "161239.032000", "161239.035000", "161239.038000", "161239.041000", "161239.043000", "161239.046000", "161239.049000", "161239.052000", "161239.055000", "161239.058000", "161239.061000", "161239.064000", "161239.066000", "161239.069000", "161239.072000", "161239.075000", "161319.000000", "161319.003000", "161319.006000", "161319.009000", "161319.012000", "161319.015000", "161319.017000", "161319.020000", "161319.023000", "161319.026000", "161319.029000", "161319.032000", "161319.035000", "161319.037000", "161319.040000", "161319.043000", "161319.046000", "161319.049000", "161319.052000", "161319.054000", "161319.057000", "161319.060000", "161319.063000", "161319.066000", "161319.069000", "161319.071000", "161319.074000", "161330.946000", "161330.949000", "161330.952000", "161330.955000", "161330.967000", "161330.969000", "161330.972000", "161330.975000"],
