{
  "AcquisitionMatrixPE": 104,
  "AcquisitionNumber": 1,
  "AcquisitionTime": "10:00:47.472500",
  "BandwidthPerPixelPhaseEncode": 17.17,
  "BaseResolution": 104,
  "BodyPartExamined": "BRAIN",
  "CoilString": "HC1-7;NC1_2",
  "ConsistencyInfo": "N4_VE11C_LATEST_20160120",
  "ConversionSoftware": "dcm2niix",
  "ConversionSoftwareVersion": "v1.0.20190720  (JP2:OpenJPEG) GCC7.3.0",
  "DerivedVendorReportedEchoSpacing": 0.000560011,
  "DeviceSerialNumber": "167006",
  "DwellTime": 2.1e-06,
  "EchoTime": 0.037,
  "EchoTrainLength": 104,
  "EffectiveEchoSpacing": 0.000560011,
  "FlipAngle": 52,
  "ImageComments": "Unaliased_MB4_PE3_LB",
  "ImageOrientationPatientDICOM": [0.998163, -0.00660189, -0.0602188, -0.00540062, 0.980389, -0.197],
  "ImageType": [
    "ORIGINAL",
    "PRIMARY",
    "M",
    "MB",
    "ND",
    "MOSAIC"
],
  "ImagingFrequency": 123.259,
  "InPlanePhaseEncodingDirectionDICOM": "COL",
  "InstitutionAddress": "Chemin_Queen-Mary_4565_Montreal_District_CA_H3W_1W5",
  "InstitutionName": "IUGM",
  "InstitutionalDepartmentName": "Department",
  "MRAcquisitionType": "2D",
  "MagneticFieldStrength": 3,
  "Manufacturer": "Siemens",
  "ManufacturersModelName": "Prisma_fit",
  "Modality": "MR",
  "MultibandAccelerationFactor": 4,
  "PartialFourier": 1,
  "PatientPosition": "HFS",
  "PercentPhaseFOV": 100,
  "PhaseEncodingDirection": "j",
  "PhaseEncodingSteps": 104,
  "PhaseResolution": 1,
  "PixelBandwidth": 2290,
  "ProcedureStepDescription": "video_friends",
  "ProtocolName": "func_task-friends-s01e14b",
  "PulseSequenceDetails": "%CustomerSeq%_cmrr_mbep2d_bold",
  "ReceiveCoilActiveElements": "HC1-7;NC1,2",
  "ReceiveCoilName": "HeadNeck_64",
  "ReconMatrixPE": 104,
  "RepetitionTime": 1.49,
  "SAR": 0.0326498,
  "ScanOptions": "FS",
  "ScanningSequence": "EP",
  "SequenceName": "epfid2d1_104",
  "SequenceVariant": "SK_SS",
  "SeriesDescription": "func_task-friends-s01e14b",
  "SeriesNumber": 13,
  "ShimSetting": [597, -7263, -8816, 593, -62, -320, 49, 54],
  "SliceThickness": 2,
  "SliceTiming": [0, 0.785, 0.1, 0.8825, 0.1975, 0.98, 0.295, 1.08, 0.3925, 1.1775, 0.49, 1.275, 0.59, 1.3725, 0.6875, 0, 0.785, 0.1, 0.8825, 0.1975, 0.98, 0.295, 1.08, 0.3925, 1.1775, 0.49, 1.275, 0.59, 1.3725, 0.6875, 0, 0.785, 0.1, 0.8825, 0.1975, 0.98, 0.295, 1.08, 0.3925, 1.1775, 0.49, 1.275, 0.59, 1.3725, 0.6875, 0, 0.785, 0.1, 0.8825, 0.1975, 0.98, 0.295, 1.08, 0.3925, 1.1775, 0.49, 1.275, 0.59, 1.3725, 0.6875],
  "SoftwareVersions": "syngo_MR_E11",
  "SpacingBetweenSlices": 2,
  "StationName": "MRC35049",
  "TaskName": "friends",
  "TotalReadoutTime": 0.0576811,
  "TxRefAmp": 215.499,
  "WipMemBlock": "ecf063db-40cb-45ac-a585-5630bf4022de||Sequence: R016 ve11c/master r/e634e98; Dec 19 2017 11:00:25 by eja",
  "dcmmeta_affine": [
    [-1.9963266849517822, -0.010801248252391815, -0.12067675590515137, 102.39408111572266],
    [0.013203781098127365, 1.9607770442962646, -0.39392760396003723, -84.41083526611328],
    [-0.12043756246566772, 0.394000768661499, 1.9571045637130737, -40.86989212036133],
    [0.0, 0.0, 0.0, 1.0]
],
  "dcmmeta_reorient_transform": [
    [0.0, -1.0, 0.0, 103.0],
    [1.0, 0.0, 0.0, 0.0],
    [0.0, 0.0, 1.0, 0.0],
    [0.0, 0.0, 0.0, 1.0]
],
  "dcmmeta_shape": [104, 104, 60, 491],
  "dcmmeta_slice_dim": 2,
  "dcmmeta_version": 0.6,
  "global": {
    "const": {
      "AcquisitionMatrix": [104, 0, 0, 104],
      "AngioFlag": "N",
      "BitsAllocated": 16,
      "BitsStored": 16,
      "BodyPartExamined": "BRAIN",
      "Columns": 832,
      "EchoNumbers": 1,
      "EchoTime": 37.0,
      "EchoTrainLength": 104,
      "FlipAngle": 52.0,
      "HighBit": 15,
      "ImageOrientationPatient": [0.9981633702145, -0.0066018907482, -0.0602187794677, -0.0054006240885, 0.98038853469379, -0.197000391625],
      "ImagePositionPatient": [-824.01283393619, -826.46588220239, 186.96774561277],
      "ImageType": [
        "ORIGINAL",
        "PRIMARY",
        "M",
        "MB",
        "ND",
        "MOSAIC"
],
      "ImagedNucleus": "1H",
      "ImagingFrequency": 123.259098,
      "InPlanePhaseEncodingDirection": "COL",
      "MRAcquisitionType": "2D",
      "MagneticFieldStrength": 3.0,
      "Manufacturer": "SIEMENS",
      "ManufacturerModelName": "Prisma_fit",
      "Modality": "MR",
      "NumberOfAverages": 1.0,
      "NumberOfPhaseEncodingSteps": 104,
      "PercentPhaseFieldOfView": 100.0,
      "PercentSampling": 100.0,
      "PerformedProcedureStepStartTime": "094257.070000",
      "PhotometricInterpretation": "MONOCHROME2",
      "PixelBandwidth": 2290.0,
      "PixelRepresentation": 0,
      "PixelSpacing": [2.0, 2.0],
      "ProtocolName": "func_task-friends-s01e14b",
      "RepetitionTime": 1490.0,
      "Rows": 832,
      "SAR": 0.03264980251557,
      "SamplesPerPixel": 1,
      "ScanOptions": "FS",
      "ScanningSequence": "EP",
      "SequenceName": "epfid2d1_104",
      "SequenceVariant": [
        "SK",
        "SS"
],
      "SeriesDescription": "func_task-friends-s01e14b",
      "SeriesNumber": 13,
      "SeriesTime": "100214.597000",
      "SliceLocation": -29.545740045736,
      "SliceThickness": 2.0,
      "SmallestImagePixelValue": 0,
      "SoftwareVersions": "syngo MR E11",
      "SpacingBetweenSlices": 2.0000000230077,
      "SpecificCharacterSet": "ISO_IR 100",
      "StudyID": "1",
      "StudyTime": "094256.899000",
      "TransmitCoilName": "Body",
      "VariableFlipAngleFlag": "N",
      "WindowCenterWidthExplanation": "Algo1",
      "dBdt": 0.0},
    "slices": {}
  },
  "time": {
    "samples": {
      "AcquisitionNumber": [1, 2, 3, 4, 5, 6, 7, 8, 9, 10, 11, 12, 13, 14, 15, 16, 17, 18, 19, 20, 21, 22, 23, 24, 25, 26, 27, 28, 29, 30, 31, 32, 33, 34, 35, 36, 37, 38, 39, 40, 41, 42, 43, 44, 45, 46, 47, 48, 49, 50, 51, 52, 53, 54, 55, 56, 57, 58, 59, 60, 61, 62, 63, 64, 65, 66, 67, 68, 69, 70, 71, 72, 73, 74, 75, 76, 77, 78, 79, 80, 81, 82, 83, 84, 85, 86, 87, 88, 89, 90, 91, 92, 93, 94, 95, 96, 97, 98, 99, 100, 101, 102, 103, 104, 105, 106, 107, 108, 109, 110, 111, 112, 113, 114, 115, 116, 117, 118, 119, 120, 121, 122, 123, 124, 125, 126, 127, 128, 129, 130, 131, 132, 133, 134, 135, 136, 137, 138, 139, 140, 141, 142, 143, 144, 145, 146, 147, 148, 149, 150, 151, 152, 153, 154, 155, 156, 157, 158, 159, 160, 161, 162, 163, 164, 165, 166, 167, 168, 169, 170, 171, 172, 173, 174, 175, 176, 177, 178, 179, 180, 181, 182, 183, 184, 185, 186, 187, 188, 189, 190, 191, 192, 193, 194, 195, 196, 197, 198, 199, 200, 201, 202, 203, 204, 205, 206, 207, 208, 209, 210, 211, 212, 213, 214, 215, 216, 217, 218, 219, 220, 221, 222, 223, 224, 225, 226, 227, 228, 229, 230, 231, 232, 233, 234, 235, 236, 237, 238, 239, 240, 241, 242, 243, 244, 245, 246, 247, 248, 249, 250, 251, 252, 253, 254, 255, 256, 257, 258, 259, 260, 261, 262, 263, 264, 265, 266, 267, 268, 269, 270, 271, 272, 273, 274, 275, 276, 277, 278, 279, 280, 281, 282, 283, 284, 285, 286, 287, 288, 289, 290, 291, 292, 293, 294, 295, 296, 297, 298, 299, 300, 301, 302, 303, 304, 305, 306, 307, 308, 309, 310, 311, 312, 313, 314, 315, 316, 317, 318, 319, 320, 321, 322, 323, 324, 325, 326, 327, 328, 329, 330, 331, 332, 333, 334, 335, 336, 337, 338, 339, 340, 341, 342, 343, 344, 345, 346, 347, 348, 349, 350, 351, 352, 353, 354, 355, 356, 357, 358, 359, 360, 361, 362, 363, 364, 365, 366, 367, 368, 369, 370, 371, 372, 373, 374, 375, 376, 377, 378, 379, 380, 381, 382, 383, 384, 385, 386, 387, 388, 389, 390, 391, 392, 393, 394, 395, 396, 397, 398, 399, 400, 401, 402, 403, 404, 405, 406, 407, 408, 409, 410, 411, 412, 413, 414, 415, 416, 417, 418, 419, 420, 421, 422, 423, 424, 425, 426, 427, 428, 429, 430, 431, 432, 433, 434, 435, 436, 437, 438, 439, 440, 441, 442, 443, 444, 445, 446, 447, 448, 449, 450, 451, 452, 453, 454, 455, 456, 457, 458, 459, 460, 461, 462, 463, 464, 465, 466, 467, 468, 469, 470, 471, 472, 473, 474, 475, 476, 477, 478, 479, 480, 481, 482, 483, 484, 485, 486, 487, 488, 489, 490, 491],
      "AcquisitionTime": ["100047.472500", "100048.962500", "100050.452500", "100051.942500", "100053.432500", "100054.922500", "100056.412500", "100057.902500", "100059.392500", "100100.882500", "100102.372500", "100103.862500", "100105.352500", "100106.842500", "100108.332500", "100109.822500", "100111.312500", "100112.802500", "100114.292500", "100115.782500", "100117.272500", "100118.762500", "100120.252500", "100121.742500", "100123.232500", "100124.722500", "100126.212500", "100127.702500", "100129.192500", "100130.682500", "100132.172500", "100133.662500", "100135.152500", "100136.642500", "100138.132500", "100139.622500", "100141.112500", "100142.602500", "100144.092500", "100145.582500", "100147.072500", "100148.562500", "100150.052500", "100151.542500", "100153.032500", "100154.522500", "100156.012500", "100157.502500", "100158.992500", "100200.482500", "100201.972500", "100203.462500", "100204.952500", "100206.442500", "100207.932500", "100209.422500", "100210.912500", "100212.402500", "100213.892500", "100215.382500", "100216.872500", "100218.362500", "100219.852500", "100221.342500", "100222.832500", "100224.322500", "100225.812500", "100227.302500", "100228.792500", "100230.282500", "100231.772500", "100233.262500", "100234.752500", "100236.242500", "100237.732500", "100239.222500", "100240.712500", "100242.202500", "100243.692500", "100245.182500", "100246.672500", "100248.162500", "100249.652500", "100251.142500", "100252.632500", "100254.122500", "100255.612500", "100257.102500", "100258.592500", "100300.082500", "100301.572500", "100303.062500", "100304.552500", "100306.042500", "100307.532500", "100309.022500", "100310.512500", "100312.002500", "100313.492500", "100314.982500", "100316.472500", "100317.962500", "100319.452500", "100320.942500", "100322.432500", "100323.922500", "100325.412500", "100326.902500", "100328.392500", "100329.882500", "100331.372500", "100332.862500", "100334.352500", "100335.842500", "100337.332500", "100338.822500", "100340.312500", "100341.802500", "100343.292500", "100344.782500", "100346.272500", "100347.762500", "100349.252500", "100350.742500", "100352.232500", "100353.722500", "100355.212500", "100356.702500", "100358.192500", "100359.682500", "100401.172500", "100402.662500", "100404.152500", "100405.642500", "100407.132500", "100408.622500", "100410.112500", "100411.602500", "100413.092500", "100414.582500", "100416.072500", "100417.562500", "100419.052500", "100420.542500", "100422.032500", "100423.522500", "100425.012500", "100426.502500", "100427.992500", "100429.482500", "100430.972500", "100432.462500", "100433.952500", "100435.442500", "100436.932500", "100438.422500", "100439.912500", "100441.402500", "100442.892500", "100444.382500", "100445.872500", "100447.362500", "100448.852500", "100450.342500", "100451.832500", "100453.322500", "100454.812500", "100456.302500", "100457.792500", "100459.282500", "100500.772500", "100502.262500", "100503.752500", "100505.242500", "100506.732500", "100508.222500", "100509.712500", "100511.202500", "100512.692500", "100514.182500", "100515.672500", "100517.162500", "100518.652500", "100520.142500", "100521.632500", "100523.122500", "100524.612500", "100526.102500", "100527.592500", "100529.082500", "100530.572500", "100532.062500", "100533.552500", "100535.042500", "100536.532500", "100538.022500", "100539.512500", "100541.002500", "100542.492500", "100543.982500", "100545.472500", "100546.962500", "100548.452500", "100549.942500", "100551.432500", "100552.922500", "100554.412500", "100555.902500", "100557.392500", "100558.882500", "100600.372500", "100601.862500", "100603.352500", "100604.842500", "100606.332500", "100607.822500", "100609.312500", "100610.802500", "100612.292500", "100613.782500", "100615.272500", "100616.762500", "100618.252500", "100619.742500", "100621.232500", "100622.722500", "100624.212500", "100625.702500", "100627.192500", "100628.682500", "100630.172500", "100631.662500", "100633.152500", "100634.642500", "100636.132500", "100637.622500", "100639.112500", "100640.602500", "100642.092500", "100643.582500", "100645.072500", "100646.562500", "100648.052500", "100649.542500", "100651.032500", "100652.522500", "100654.012500", "100655.502500", "100656.992500", "100658.482500", "100659.972500", "100701.462500", "100702.952500", "100704.442500", "100705.932500", "100707.422500", "100708.912500", "100710.402500", "100711.892500", "100713.382500", "100714.872500", "100716.362500", "100717.852500", "100719.342500", "100720.832500", "100722.322500", "100723.812500", "100725.302500", "100726.792500", "100728.282500", "100729.772500", "100731.262500", "100732.752500", "100734.242500", "100735.732500", "100737.222500", "100738.712500", "100740.202500", "100741.692500", "100743.182500", "100744.672500", "100746.162500", "100747.652500", "100749.142500", "100750.632500", "100752.122500", "100753.612500", "100755.102500", "100756.592500", "100758.082500", "100759.572500", "100801.062500", "100802.552500", "100804.042500", "100805.532500", "100807.022500", "100808.512500", "100810.002500", "100811.492500", "100812.982500", "100814.472500", "100815.962500", "100817.452500", "100818.942500", "100820.432500", "100821.922500", "100823.412500", "100824.902500", "100826.392500", "100827.882500", "100829.372500", "100830.862500", "100832.352500", "100833.842500", "100835.332500", "100836.822500", "100838.312500", "100839.802500", "100841.292500", "100842.782500", "100844.272500", "100845.762500", "100847.252500", "100848.742500", "100850.232500", "100851.722500", "100853.212500", "100854.702500", "100856.192500", "100857.682500", "100859.172500", "100900.662500", "100902.152500", "100903.642500", "100905.132500", "100906.622500", "100908.112500", "100909.602500", "100911.092500", "100912.582500", "100914.072500", "100915.562500", "100917.052500", "100918.542500", "100920.032500", "100921.522500", "100923.012500", "100924.502500", "100925.992500", "100927.482500", "100928.972500", "100930.462500", "100931.952500", "100933.442500", "100934.932500", "100936.422500", "100937.912500", "100939.402500", "100940.892500", "100942.382500", "100943.872500", "100945.362500", "100946.852500", "100948.342500", "100949.832500", "100951.322500", "100952.812500", "100954.302500", "100955.792500", "100957.282500", "100958.772500", "101000.262500", "101001.752500", "101003.242500", "101004.732500", "101006.222500", "101007.712500", "101009.202500", "101010.692500", "101012.182500", "101013.672500", "101015.162500", "101016.652500", "101018.142500", "101019.632500", "101021.122500", "101022.612500", "101024.102500", "101025.592500", "101027.082500", "101028.572500", "101030.062500", "101031.552500", "101033.042500", "101034.532500", "101036.022500", "101037.512500", "101039.002500", "101040.492500", "101041.982500", "101043.472500", "101044.962500", "101046.452500", "101047.942500", "101049.432500", "101050.922500", "101052.412500", "101053.902500", "101055.392500", "101056.882500", "101058.372500", "101059.862500", "101101.352500", "101102.842500", "101104.332500", "101105.822500", "101107.312500", "101108.802500", "101110.292500", "101111.782500", "101113.272500", "101114.762500", "101116.252500", "101117.742500", "101119.232500", "101120.722500", "101122.212500", "101123.702500", "101125.192500", "101126.682500", "101128.172500", "101129.662500", "101131.152500", "101132.642500", "101134.132500", "101135.622500", "101137.112500", "101138.602500", "101140.092500", "101141.582500", "101143.072500", "101144.562500", "101146.052500", "101147.542500", "101149.032500", "101150.522500", "101152.012500", "101153.502500", "101154.992500", "101156.482500", "101157.972500", "101159.462500", "101200.952500", "101202.442500", "101203.932500", "101205.422500", "101206.912500", "101208.402500", "101209.892500", "101211.382500", "101212.872500", "101214.362500", "101215.852500", "101217.342500", "101218.832500", "101220.322500", "101221.812500", "101223.302500", "101224.792500", "101226.282500", "101227.772500", "101229.262500", "101230.752500", "101232.242500", "101233.732500", "101235.222500", "101236.712500", "101238.202500", "101239.692500", "101241.182500", "101242.672500", "101244.162500", "101245.652500", "101247.142500", "101248.632500", "101250.122500", "101251.612500", "101253.102500", "101254.592500", "101256.082500", "101257.572500"],
      "ContentTime": ["100214.599000", "100214.603000", "100214.606000", "100214.609000", "100214.611000", "100214.614000", "100214.617000", "100214.620000", "100214.623000", "100214.626000", "100214.629000", "100214.632000", "100214.635000", "100214.637000", "100214.640000", "100214.643000", "100214.646000", "100214.649000", "100214.652000", "100214.655000", "100214.658000", "100214.660000", "100214.663000", "100214.666000", "100214.669000", "100214.672000", "100214.675000", "100214.678000", "100214.681000", "100214.683000", "100214.686000", "100214.689000", "100234.564000", "100234.567000", "100234.570000", "100234.573000", "100234.576000", "100234.579000", "100234.588000", "100234.591000", "100234.594000", "100234.596000", "100234.599000", "100234.602000", "100234.605000", "100234.608000", "100234.611000", "100234.614000", "100234.617000", "100234.619000", "100234.622000", "100234.625000", "100254.564000", "100254.567000", "100254.570000", "100254.573000", "100254.576000", "100254.578000", "100254.581000", "100254.584000", "100254.587000", "100254.590000", "100254.593000", "100254.596000", "100254.599000", "100254.601000", "100254.604000", "100254.607000", "100254.610000", "100254.613000", "100254.616000", "100254.619000", "100314.564000", "100314.567000", "100314.570000", "100314.573000", "100314.576000", "100314.579000", "100314.582000", "100314.585000", "100314.587000", "100314.590000", "100314.593000", "100314.596000", "100314.608000", "100314.611000", "100314.614000", "100314.617000", "100314.620000", "100314.623000", "100314.625000", "100314.628000", "100354.564000", "100354.567000", "100354.570000", "100354.573000", "100354.576000", "100354.578000", "100354.581000", "100354.584000", "100354.587000", "100354.590000", "100354.593000", "100354.596000", "100354.599000", "100354.601000", "100354.604000", "100354.607000", "100354.610000", "100354.613000", "100354.616000", "100354.619000", "100354.623000", "100354.626000", "100354.629000", "100354.631000", "100354.634000", "100354.637000", "100354.640000", "100354.654000", "100354.657000", "100354.660000", "100354.663000", "100354.666000", "100354.669000", "100434.564000", "100434.567000", "100434.570000", "100434.573000", "100434.580000", "100434.583000", "100434.586000", "100434.589000", "100434.592000", "100434.595000", "100434.598000", "100434.601000", "100434.603000", "100434.606000", "100434.609000", "100434.612000", "100434.615000", "100434.618000", "100434.621000", "100434.624000", "100434.627000", "100434.630000", "100434.632000", "100434.635000", "100434.638000", "100434.641000", "100434.644000", "100514.564000", "100514.567000", "100514.570000", "100514.573000", "100514.576000", "100514.578000", "100514.581000", "100514.584000", "100514.587000", "100514.590000", "100514.593000", "100514.604000", "100514.607000", "100514.610000", "100514.613000", "100514.615000", "100514.618000", "100514.621000", "100514.624000", "100514.627000", "100514.630000", "100514.633000", "100514.636000", "100514.639000", "100514.641000", "100514.644000", "100514.647000", "100554.563000", "100554.566000", "100554.569000", "100554.572000", "100554.575000", "100554.578000", "100554.580000", "100554.583000", "100554.604000", "100554.607000", "100554.610000", "100554.613000", "100554.616000", "100554.619000", "100554.622000", "100554.625000", "100554.628000", "100554.631000", "100554.634000", "100554.636000", "100554.639000", "100554.642000", "100554.645000", "100554.648000", "100554.651000", "100554.654000", "100634.564000", "100634.567000", "100634.570000", "100634.573000", "100634.576000", "100634.579000", "100634.582000", "100634.584000", "100634.588000", "100634.590000", "100634.593000", "100634.596000", "100634.599000", "100634.602000", "100634.605000", "100634.608000", "100634.611000", "100634.613000", "100634.616000", "100634.619000", "100634.622000", "100634.625000", "100634.633000", "100634.636000", "100634.639000", "100634.642000", "100634.645000", "100714.564000", "100714.567000", "100714.570000", "100714.573000", "100714.576000", "100714.579000", "100714.582000", "100714.585000", "100714.588000", "100714.591000", "100714.594000", "100714.596000", "100714.599000", "100714.602000", "100714.605000", "100714.608000", "100714.611000", "100714.614000", "100714.617000", "100714.620000", "100714.622000", "100714.625000", "100714.628000", "100714.631000", "100714.634000", "100714.637000", "100714.640000", "100754.564000", "100754.567000", "100754.570000", "100754.573000", "100754.576000", "100754.579000", "100754.582000", "100754.584000", "100754.587000", "100754.590000", "100754.593000", "100754.596000", "100754.599000", "100754.602000", "100754.605000", "100754.608000", "100754.610000", "100754.613000", "100754.616000", "100754.619000", "100754.622000", "100754.625000", "100754.628000", "100754.631000", "100754.634000", "100754.637000", "100754.639000", "100814.563000", "100814.566000", "100814.569000", "100814.572000", "100814.575000", "100814.578000", "100814.581000", "100814.584000", "100814.587000", "100814.589000", "100814.592000", "100814.595000", "100814.598000", "100854.564000", "100854.567000", "100854.570000", "100854.573000", "100854.576000", "100854.579000", "100854.582000", "100854.585000", "100854.588000", "100854.591000", "100854.594000", "100854.597000", "100854.600000", "100854.603000", "100854.605000", "100854.608000", "100854.611000", "100854.614000", "100854.617000", "100854.620000", "100854.623000", "100854.626000", "100854.629000", "100854.632000", "100854.634000", "100854.637000", "100854.640000", "100934.564000", "100934.567000", "100934.570000", "100934.573000", "100934.576000", "100934.579000", "100934.582000", "100934.585000", "100934.588000", "100934.591000", "100934.594000", "100934.597000", "100934.599000", "100934.602000", "100934.605000", "100934.608000", "100934.611000", "100934.614000", "100934.617000", "100934.620000", "100934.622000", "100934.625000", "100934.628000", "100934.631000", "100934.634000", "100934.637000", "100934.640000", "101014.565000", "101014.568000", "101014.571000", "101014.574000", "101014.577000", "101014.580000", "101014.583000", "101014.585000", "101014.588000", "101014.591000", "101014.594000", "101014.597000", "101014.600000", "101014.603000", "101014.606000", "101014.609000", "101014.612000", "101014.614000", "101014.617000", "101014.620000", "101014.623000", "101014.626000", "101014.629000", "101014.632000", "101014.635000", "101014.638000", "101014.640000", "101054.564000", "101054.567000", "101054.570000", "101054.573000", "101054.576000", "101054.579000", "101054.582000", "101054.585000", "101054.588000", "101054.591000", "101054.594000", "101054.597000", "101054.600000", "101054.603000", "101054.606000", "101054.609000", "101054.612000", "101054.614000", "101054.618000", "101054.620000", "101054.623000", "101054.626000", "101054.629000", "101054.632000", "101054.635000", "101054.638000", "101054.641000", "101134.564000", "101134.567000", "101134.570000", "101134.573000", "101134.576000", "101134.579000", "101134.582000", "101134.585000", "101134.588000", "101134.591000", "101134.594000", "101134.597000", "101134.600000", "101134.603000", "101134.606000", "101134.609000", "101134.611000", "101134.617000", "101134.620000", "101134.623000", "101134.626000", "101134.629000", "101134.632000", "101134.635000", "101134.637000", "101134.640000", "101134.643000", "101214.564000", "101214.567000", "101214.570000", "101214.573000", "101214.576000", "101214.579000", "101214.582000", "101214.585000", "101214.588000", "101214.591000", "101214.594000", "101214.597000", "101214.600000", "101214.603000", "101214.606000", "101214.609000", "101214.612000", "101214.615000", "101214.618000", "101214.621000", "101214.623000", "101214.626000", "101214.629000", "101214.632000", "101214.635000", "101214.638000", "101254.563000", "101254.566000", "101254.569000", "101254.572000", "101254.575000", "101254.578000", "101254.581000", "101254.584000", "101254.587000", "101254.590000", "101254.593000", "101254.596000", "101254.599000", "101254.602000", "101254.605000", "101254.608000", "101254.611000", "101254.614000", "101254.617000", "101254.620000", "101254.622000", "101254.625000", "101254.628000", "101254.631000", "101254.634000", "101254.637000", "101254.640000", "101259.429000", "101259.432000", "101259.435000", "101259.438000"],
