{
  "AcquisitionMatrixPE": 104,
  "AcquisitionNumber": 1,
  "AcquisitionTime": "18:01:13.370000",
  "BandwidthPerPixelPhaseEncode": 17.17,
  "BaseResolution": 104,
  "BodyPartExamined": "BRAIN",
  "CoilString": "HC1-7;NC1_2",
  "ConsistencyInfo": "N4_VE11C_LATEST_20160120",
  "ConversionSoftware": "dcm2niix",
  "ConversionSoftwareVersion": "v1.0.20190902",
  "DerivedVendorReportedEchoSpacing": 0.000560011,
  "DeviceSerialNumber": "167006",
  "DwellTime": 2.1e-06,
  "EchoTime": 0.037,
  "EchoTrainLength": 104,
  "EffectiveEchoSpacing": 0.000560011,
  "FlipAngle": 52,
  "ImageComments": "Unaliased_MB4_PE3_LB",
  "ImageOrientationPatientDICOM": [0.999841, -0.0130833, -0.0120914, 0.00959808, 0.967397, -0.253084],
  "ImageType": [
    "ORIGINAL",
    "PRIMARY",
    "M",
    "MB",
    "ND",
    "MOSAIC"
],
  "ImagingFrequency": 123.259,
  "InPlanePhaseEncodingDirectionDICOM": "COL",
  "InstitutionAddress": "Chemin_Queen-Mary_4565_Montreal_District_CA_H3W_1W5",
  "InstitutionName": "IUGM",
  "InstitutionalDepartmentName": "Department",
  "MRAcquisitionType": "2D",
  "MagneticFieldStrength": 3,
  "Manufacturer": "Siemens",
  "ManufacturersModelName": "Prisma_fit",
  "Modality": "MR",
  "MultibandAccelerationFactor": 4,
  "PartialFourier": 1,
  "PatientPosition": "HFS",
  "PercentPhaseFOV": 100,
  "PhaseEncodingDirection": "j",
  "PhaseEncodingSteps": 104,
  "PhaseResolution": 1,
  "PixelBandwidth": 2290,
  "ProcedureStepDescription": "video_friends",
  "ProtocolName": "func_task-friends-s04e19b",
  "PulseSequenceDetails": "%CustomerSeq%_cmrr_mbep2d_bold",
  "ReceiveCoilActiveElements": "HC1-7;NC1,2",
  "ReceiveCoilName": "HeadNeck_64",
  "ReconMatrixPE": 104,
  "RepetitionTime": 1.49,
  "SAR": 0.0290285,
  "ScanOptions": "FS",
  "ScanningSequence": "EP",
  "SequenceName": "epfid2d1_104",
  "SequenceVariant": "SK_SS",
  "SeriesDescription": "func_task-friends-s04e19b",
  "SeriesNumber": 15,
  "ShimSetting": [631, -7222, -8762, 706, 41, -14, 119, 0],
  "SliceThickness": 2,
  "SliceTiming": [0, 0.7825, 0.0975, 0.8825, 0.195, 0.98, 0.2925, 1.0775, 0.3925, 1.175, 0.49, 1.2725, 0.5875, 1.3725, 0.685, 0, 0.7825, 0.0975, 0.8825, 0.195, 0.98, 0.2925, 1.0775, 0.3925, 1.175, 0.49, 1.2725, 0.5875, 1.3725, 0.685, 0, 0.7825, 0.0975, 0.8825, 0.195, 0.98, 0.2925, 1.0775, 0.3925, 1.175, 0.49, 1.2725, 0.5875, 1.3725, 0.685, 0, 0.7825, 0.0975, 0.8825, 0.195, 0.98, 0.2925, 1.0775, 0.3925, 1.175, 0.49, 1.2725, 0.5875, 1.3725, 0.685],
  "SoftwareVersions": "syngo_MR_E11",
  "SpacingBetweenSlices": 2,
  "StationName": "MRC35049",
  "TaskName": "s04e19b",
  "TotalReadoutTime": 0.0576811,
  "TxRefAmp": 206.024,
  "WipMemBlock": "fc147e41-d5f1-4d33-84e0-1c26e6933549||Sequence: R016 ve11c/master r/e634e98; Dec 19 2017 11:00:25 by eja",
  "dcmmeta_affine": [
    [-1.9996825456619263, 0.0191961620002985, -0.03001672588288784, 105.34619903564453],
    [0.0261665228754282, 1.9347933530807495, -0.5058556795120239, -85.28912353515625],
    [-0.024182837456464767, 0.5061681270599365, 1.9347374439239502, -49.495033264160156],
    [0.0, 0.0, 0.0, 1.0]
],
  "dcmmeta_reorient_transform": [
    [0.0, -1.0, 0.0, 103.0],
    [1.0, 0.0, 0.0, 0.0],
    [0.0, 0.0, 1.0, 0.0],
    [0.0, 0.0, 0.0, 1.0]
],
  "dcmmeta_shape": [104, 104, 60, 437],
  "dcmmeta_slice_dim": 2,
  "dcmmeta_version": 0.6,
  "global": {
    "const": {
      "AcquisitionMatrix": [104, 0, 0, 104],
      "AngioFlag": "N",
      "BitsAllocated": 16,
      "BitsStored": 16,
      "BodyPartExamined": "BRAIN",
      "Columns": 832,
      "EchoNumbers": 1,
      "EchoTime": 37.0,
      "EchoTrainLength": 104,
      "FlipAngle": 52.0,
      "HighBit": 15,
      "ImageOrientationPatient": [0.99984130033913, -0.01308326122, -0.0120914189409, 0.00959808114496, 0.96739667723819, -0.2530840684572],
      "ImagePositionPatient": [-842.19527572382, -808.73476241701, 195.6880382148],
      "ImageType": [
        "ORIGINAL",
        "PRIMARY",
        "M",
        "MB",
        "ND",
        "MOSAIC"
],
      "ImagedNucleus": "1H",
      "ImagingFrequency": 123.259029,
      "InPlanePhaseEncodingDirection": "COL",
      "MRAcquisitionType": "2D",
      "MagneticFieldStrength": 3.0,
      "Manufacturer": "SIEMENS",
      "ManufacturerModelName": "Prisma_fit",
      "Modality": "MR",
      "NumberOfAverages": 1.0,
      "NumberOfPhaseEncodingSteps": 104,
      "PercentPhaseFieldOfView": 100.0,
      "PercentSampling": 100.0,
      "PerformedProcedureStepStartTime": "170505.890000",
      "PhotometricInterpretation": "MONOCHROME2",
      "PixelBandwidth": 2290.0,
      "PixelRepresentation": 0,
      "PixelSpacing": [2.0, 2.0],
      "ProtocolName": "func_task-friends-s04e19b",
      "RepetitionTime": 1490.0,
      "Rows": 832,
      "SAR": 0.0290285373327,
      "SamplesPerPixel": 1,
      "ScanOptions": "FS",
      "ScanningSequence": "EP",
      "SequenceName": "epfid2d1_104",
      "SequenceVariant": [
        "SK",
        "SS"
],
      "SeriesDescription": "func_task-friends-s04e19b",
      "SeriesNumber": 15,
      "SeriesTime": "180236.162000",
      "SliceLocation": -27.889029038869,
      "SliceThickness": 2.0,
      "SmallestImagePixelValue": 0,
      "SoftwareVersions": "syngo MR E11",
      "SpacingBetweenSlices": 1.9999999707782,
      "SpecificCharacterSet": "ISO_IR 100",
      "StudyID": "1",
      "StudyTime": "170505.819000",
      "TransmitCoilName": "Body",
      "VariableFlipAngleFlag": "N",
      "WindowCenterWidthExplanation": "Algo1",
      "dBdt": 0.0},
    "slices": {}
  },
  "time": {
    "samples": {
      "AcquisitionNumber": [1, 2, 3, 4, 5, 6, 7, 8, 9, 10, 11, 12, 13, 14, 15, 16, 17, 18, 19, 20, 21, 22, 23, 24, 25, 26, 27, 28, 29, 30, 31, 32, 33, 34, 35, 36, 37, 38, 39, 40, 41, 42, 43, 44, 45, 46, 47, 48, 49, 50, 51, 52, 53, 54, 55, 56, 57, 58, 59, 60, 61, 62, 63, 64, 65, 66, 67, 68, 69, 70, 71, 72, 73, 74, 75, 76, 77, 78, 79, 80, 81, 82, 83, 84, 85, 86, 87, 88, 89, 90, 91, 92, 93, 94, 95, 96, 97, 98, 99, 100, 101, 102, 103, 104, 105, 106, 107, 108, 109, 110, 111, 112, 113, 114, 115, 116, 117, 118, 119, 120, 121, 122, 123, 124, 125, 126, 127, 128, 129, 130, 131, 132, 133, 134, 135, 136, 137, 138, 139, 140, 141, 142, 143, 144, 145, 146, 147, 148, 149, 150, 151, 152, 153, 154, 155, 156, 157, 158, 159, 160, 161, 162, 163, 164, 165, 166, 167, 168, 169, 170, 171, 172, 173, 174, 175, 176, 177, 178, 179, 180, 181, 182, 183, 184, 185, 186, 187, 188, 189, 190, 191, 192, 193, 194, 195, 196, 197, 198, 199, 200, 201, 202, 203, 204, 205, 206, 207, 208, 209, 210, 211, 212, 213, 214, 215, 216, 217, 218, 219, 220, 221, 222, 223, 224, 225, 226, 227, 228, 229, 230, 231, 232, 233, 234, 235, 236, 237, 238, 239, 240, 241, 242, 243, 244, 245, 246, 247, 248, 249, 250, 251, 252, 253, 254, 255, 256, 257, 258, 259, 260, 261, 262, 263, 264, 265, 266, 267, 268, 269, 270, 271, 272, 273, 274, 275, 276, 277, 278, 279, 280, 281, 282, 283, 284, 285, 286, 287, 288, 289, 290, 291, 292, 293, 294, 295, 296, 297, 298, 299, 300, 301, 302, 303, 304, 305, 306, 307, 308, 309, 310, 311, 312, 313, 314, 315, 316, 317, 318, 319, 320, 321, 322, 323, 324, 325, 326, 327, 328, 329, 330, 331, 332, 333, 334, 335, 336, 337, 338, 339, 340, 341, 342, 343, 344, 345, 346, 347, 348, 349, 350, 351, 352, 353, 354, 355, 356, 357, 358, 359, 360, 361, 362, 363, 364, 365, 366, 367, 368, 369, 370, 371, 372, 373, 374, 375, 376, 377, 378, 379, 380, 381, 382, 383, 384, 385, 386, 387, 388, 389, 390, 391, 392, 393, 394, 395, 396, 397, 398, 399, 400, 401, 402, 403, 404, 405, 406, 407, 408, 409, 410, 411, 412, 413, 414, 415, 416, 417, 418, 419, 420, 421, 422, 423, 424, 425, 426, 427, 428, 429, 430, 431, 432, 433, 434, 435, 436, 437],
      "AcquisitionTime": ["180113.370000", "180114.860000", "180116.350000", "180117.840000", "180119.330000", "180120.820000", "180122.310000", "180123.800000", "180125.290000", "180126.780000", "180128.270000", "180129.760000", "180131.250000", "180132.740000", "180134.230000", "180135.720000", "180137.210000", "180138.700000", "180140.190000", "180141.680000", "180143.170000", "180144.660000", "180146.150000", "180147.640000", "180149.130000", "180150.620000", "180152.110000", "180153.600000", "180155.090000", "180156.580000", "180158.070000", "180159.560000", "180201.050000", "180202.540000", "180204.030000", "180205.520000", "180207.010000", "180208.500000", "180209.990000", "180211.480000", "180212.970000", "180214.460000", "180215.950000", "180217.440000", "180218.930000", "180220.420000", "180221.910000", "180223.400000", "180224.890000", "180226.380000", "180227.870000", "180229.360000", "180230.850000", "180232.340000", "180233.830000", "180235.320000", "180236.810000", "180238.300000", "180239.790000", "180241.280000", "180242.770000", "180244.260000", "180245.750000", "180247.240000", "180248.730000", "180250.220000", "180251.710000", "180253.200000", "180254.690000", "180256.180000", "180257.670000", "180259.160000", "180300.650000", "180302.140000", "180303.630000", "180305.120000", "180306.610000", "180308.100000", "180309.590000", "180311.080000", "180312.570000", "180314.060000", "180315.550000", "180317.040000", "180318.530000", "180320.020000", "180321.510000", "180323.000000", "180324.490000", "180325.980000", "180327.470000", "180328.960000", "180330.450000", "180331.940000", "180333.430000", "180334.920000", "180336.410000", "180337.900000", "180339.390000", "180340.880000", "180342.370000", "180343.860000", "180345.350000", "180346.840000", "180348.330000", "180349.820000", "180351.310000", "180352.800000", "180354.290000", "180355.780000", "180357.270000", "180358.760000", "180400.250000", "180401.740000", "180403.230000", "180404.720000", "180406.210000", "180407.700000", "180409.190000", "180410.680000", "180412.170000", "180413.660000", "180415.150000", "180416.640000", "180418.130000", "180419.620000", "180421.110000", "180422.600000", "180424.090000", "180425.580000", "180427.070000", "180428.560000", "180430.050000", "180431.540000", "180433.030000", "180434.520000", "180436.010000", "180437.500000", "180438.990000", "180440.480000", "180441.970000", "180443.460000", "180444.950000", "180446.440000", "180447.930000", "180449.420000", "180450.910000", "180452.400000", "180453.890000", "180455.380000", "180456.870000", "180458.360000", "180459.850000", "180501.340000", "180502.830000", "180504.320000", "180505.810000", "180507.300000", "180508.790000", "180510.280000", "180511.770000", "180513.260000", "180514.750000", "180516.240000", "180517.730000", "180519.220000", "180520.710000", "180522.200000", "180523.690000", "180525.180000", "180526.670000", "180528.160000", "180529.650000", "180531.140000", "180532.630000", "180534.120000", "180535.610000", "180537.100000", "180538.590000", "180540.080000", "180541.570000", "180543.060000", "180544.550000", "180546.040000", "180547.530000", "180549.020000", "180550.510000", "180552.000000", "180553.490000", "180554.980000", "180556.470000", "180557.960000", "180559.450000", "180600.940000", "180602.430000", "180603.920000", "180605.410000", "180606.900000", "180608.390000", "180609.880000", "180611.370000", "180612.860000", "180614.350000", "180615.840000", "180617.330000", "180618.820000", "180620.310000", "180621.800000", "180623.290000", "180624.780000", "180626.270000", "180627.760000", "180629.250000", "180630.740000", "180632.230000", "180633.720000", "180635.210000", "180636.700000", "180638.190000", "180639.680000", "180641.170000", "180642.660000", "180644.150000", "180645.640000", "180647.130000", "180648.620000", "180650.110000", "180651.600000", "180653.090000", "180654.580000", "180656.070000", "180657.560000", "180659.050000", "180700.540000", "180702.030000", "180703.520000", "180705.010000", "180706.500000", "180707.990000", "180709.480000", "180710.970000", "180712.460000", "180713.950000", "180715.440000", "180716.930000", "180718.420000", "180719.910000", "180721.400000", "180722.890000", "180724.380000", "180725.870000", "180727.360000", "180728.850000", "180730.340000", "180731.830000", "180733.320000", "180734.810000", "180736.300000", "180737.790000", "180739.280000", "180740.770000", "180742.260000", "180743.750000", "180745.240000", "180746.730000", "180748.220000", "180749.710000", "180751.200000", "180752.690000", "180754.180000", "180755.670000", "180757.160000", "180758.650000", "180800.140000", "180801.630000", "180803.120000", "180804.610000", "180806.100000", "180807.590000", "180809.080000", "180810.570000", "180812.060000", "180813.550000", "180815.040000", "180816.530000", "180818.020000", "180819.510000", "180821.000000", "180822.490000", "180823.980000", "180825.470000", "180826.960000", "180828.450000", "180829.940000", "180831.430000", "180832.920000", "180834.410000", "180835.900000", "180837.390000", "180838.880000", "180840.370000", "180841.860000", "180843.350000", "180844.840000", "180846.330000", "180847.820000", "180849.310000", "180850.800000", "180852.290000", "180853.780000", "180855.270000", "180856.760000", "180858.250000", "180859.740000", "180901.230000", "180902.720000", "180904.210000", "180905.700000", "180907.190000", "180908.680000", "180910.170000", "180911.660000", "180913.150000", "180914.640000", "180916.130000", "180917.620000", "180919.110000", "180920.600000", "180922.090000", "180923.580000", "180925.070000", "180926.560000", "180928.050000", "180929.540000", "180931.030000", "180932.520000", "180934.010000", "180935.500000", "180936.990000", "180938.480000", "180939.970000", "180941.460000", "180942.950000", "180944.440000", "180945.930000", "180947.420000", "180948.910000", "180950.400000", "180951.890000", "180953.380000", "180954.870000", "180956.360000", "180957.850000", "180959.340000", "181000.830000", "181002.320000", "181003.810000", "181005.300000", "181006.790000", "181008.280000", "181009.770000", "181011.260000", "181012.750000", "181014.240000", "181015.730000", "181017.220000", "181018.710000", "181020.200000", "181021.690000", "181023.180000", "181024.670000", "181026.160000", "181027.650000", "181029.140000", "181030.630000", "181032.120000", "181033.610000", "181035.100000", "181036.590000", "181038.080000", "181039.570000", "181041.060000", "181042.550000", "181044.040000", "181045.530000", "181047.020000", "181048.510000", "181050.000000", "181051.490000", "181052.980000", "181054.470000", "181055.960000", "181057.450000", "181058.940000", "181100.430000", "181101.920000", "181103.410000", "181104.900000", "181106.390000", "181107.880000", "181109.370000", "181110.860000", "181112.350000", "181113.840000", "181115.330000", "181116.820000", "181118.310000", "181119.800000", "181121.290000", "181122.780000", "181124.270000", "181125.760000", "181127.250000", "181128.740000", "181130.230000", "181131.720000", "181133.210000", "181134.700000", "181136.190000", "181137.680000", "181139.170000", "181140.660000", "181142.150000", "181143.640000", "181145.130000", "181146.620000", "181148.110000", "181149.600000", "181151.090000", "181152.580000", "181154.070000", "181155.560000", "181157.050000", "181158.540000", "181200.030000", "181201.520000", "181203.010000"],
      "ContentTime": ["180236.165000", "180236.172000", "180236.175000", "180236.177000", "180236.180000", "180236.183000", "180236.186000", "180236.189000", "180236.192000", "180236.195000", "180236.198000", "180236.201000", "180236.204000", "180236.207000", "180236.210000", "180236.212000", "180236.215000", "180236.218000", "180236.221000", "180236.224000", "180236.227000", "180236.230000", "180236.233000", "180236.236000", "180236.239000", "180236.242000", "180236.245000", "180256.132000", "180256.135000", "180256.138000", "180256.141000", "180256.144000", "180256.147000", "180256.150000", "180256.152000", "180256.155000", "180256.158000", "180256.161000", "180256.164000", "180256.167000", "180256.170000", "180256.173000", "180256.176000", "180256.179000", "180256.182000", "180256.185000", "180256.187000", "180316.132000", "180316.135000", "180316.138000", "180316.141000", "180316.144000", "180316.159000", "180316.162000", "180316.165000", "180316.168000", "180316.171000", "180316.174000", "180316.177000", "180316.180000", "180316.183000", "180316.186000", "180316.188000", "180316.191000", "180316.194000", "180316.202000", "180316.205000", "180336.132000", "180336.135000", "180336.138000", "180336.141000", "180336.144000", "180336.147000", "180336.150000", "180336.153000", "180336.156000", "180336.159000", "180336.162000", "180336.165000", "180336.168000", "180336.171000", "180336.174000", "180336.178000", "180336.181000", "180336.184000", "180336.187000", "180336.190000", "180356.132000", "180356.135000", "180356.138000", "180356.141000", "180356.144000", "180356.147000", "180356.150000", "180356.156000", "180356.159000", "180356.162000", "180356.165000", "180356.168000", "180356.171000", "180356.174000", "180356.177000", "180356.180000", "180356.183000", "180356.185000", "180356.188000", "180356.191000", "180356.194000", "180436.132000", "180436.135000", "180436.138000", "180436.141000", "180436.144000", "180436.147000", "180436.150000", "180436.152000", "180436.155000", "180436.158000", "180436.166000", "180436.169000", "180436.172000", "180436.175000", "180436.178000", "180436.181000", "180436.184000", "180436.187000", "180436.190000", "180436.193000", "180436.196000", "180436.199000", "180436.202000", "180436.205000", "180436.208000", "180436.210000", "180436.213000", "180516.132000", "180516.135000", "180516.138000", "180516.141000", "180516.144000", "180516.147000", "180516.150000", "180516.153000", "180516.155000", "180516.158000", "180516.161000", "180516.164000", "180516.167000", "180516.170000", "180516.173000", "180516.176000", "180516.179000", "180516.182000", "180516.185000", "180516.188000", "180516.190000", "180516.193000", "180516.196000", "180516.199000", "180516.202000", "180516.205000", "180516.208000", "180556.132000", "180556.135000", "180556.138000", "180556.141000", "180556.144000", "180556.147000", "180556.150000", "180556.153000", "180556.156000", "180556.159000", "180556.162000", "180556.165000", "180556.168000", "180556.171000", "180556.174000", "180556.177000", "180556.179000", "180556.182000", "180556.185000", "180556.188000", "180556.191000", "180556.194000", "180556.197000", "180556.200000", "180556.203000", "180556.206000", "180556.209000", "180636.132000", "180636.135000", "180636.138000", "180636.141000", "180636.144000", "180636.147000", "180636.150000", "180636.153000", "180636.156000", "180636.159000", "180636.162000", "180636.164000", "180636.167000", "180636.170000", "180636.173000", "180636.176000", "180636.179000", "180636.182000", "180636.185000", "180636.188000", "180636.191000", "180636.194000", "180636.197000", "180636.200000", "180636.203000", "180636.206000", "180636.209000", "180716.132000", "180716.135000", "180716.138000", "180716.141000", "180716.144000", "180716.147000", "180716.150000", "180716.152000", "180716.155000", "180716.158000", "180716.161000", "180716.164000", "180716.167000", "180716.170000", "180716.173000", "180716.176000", "180716.179000", "180716.182000", "180716.184000", "180716.187000", "180716.190000", "180716.193000", "180716.196000", "180716.199000", "180716.202000", "180716.205000", "180716.208000", "180756.132000", "180756.135000", "180756.138000", "180756.141000", "180756.144000", "180756.147000", "180756.150000", "180756.153000", "180756.156000", "180756.159000", "180756.161000", "180756.176000", "180756.179000", "180756.182000", "180756.185000", "180756.188000", "180756.191000", "180756.194000", "180756.196000", "180756.199000", "180756.202000", "180756.205000", "180756.208000", "180756.211000", "180756.214000", "180756.220000", "180756.223000", "180836.132000", "180836.135000", "180836.138000", "180836.141000", "180836.144000", "180836.147000", "180836.150000", "180836.153000", "180836.156000", "180836.159000", "180836.161000", "180836.164000", "180836.167000", "180836.170000", "180836.173000", "180836.176000", "180836.179000", "180836.182000", "180836.185000", "180836.188000", "180836.192000", "180836.195000", "180836.198000", "180836.201000", "180836.204000", "180836.207000", "180916.132000", "180916.135000", "180916.138000", "180916.141000", "180916.144000", "180916.147000", "180916.150000", "180916.153000", "180916.156000", "180916.159000", "180916.161000", "180916.164000", "180916.168000", "180916.171000", "180916.173000", "180916.176000", "180916.179000", "180916.182000", "180916.185000", "180916.188000", "180916.191000", "180916.194000", "180916.197000", "180916.200000", "180916.203000", "180916.206000", "180916.209000", "180956.132000", "180956.135000", "180956.138000", "180956.141000", "180956.144000", "180956.147000", "180956.150000", "180956.153000", "180956.156000", "180956.159000", "180956.161000", "180956.164000", "180956.167000", "180956.170000", "180956.173000", "180956.176000", "180956.179000", "180956.182000", "180956.185000", "180956.188000", "180956.191000", "180956.194000", "180956.196000", "180956.199000", "180956.202000", "180956.205000", "180956.208000", "181036.132000", "181036.135000", "181036.138000", "181036.141000", "181036.144000", "181036.147000", "181036.150000", "181036.153000", "181036.156000", "181036.159000", "181036.162000", "181036.165000", "181036.168000", "181036.171000", "181036.174000", "181036.176000", "181036.179000", "181036.182000", "181036.185000", "181036.188000", "181036.191000", "181036.194000", "181036.197000", "181036.200000", "181036.203000", "181036.206000", "181036.209000", "181116.132000", "181116.135000", "181116.138000", "181116.144000", "181116.147000", "181116.150000", "181116.153000", "181116.156000", "181116.159000", "181116.162000", "181116.165000", "181116.168000", "181116.171000", "181116.174000", "181116.177000", "181116.180000", "181116.183000", "181116.186000", "181116.189000", "181116.191000", "181116.194000", "181116.197000", "181116.200000", "181116.203000", "181116.206000", "181116.209000", "181116.212000", "181156.132000", "181156.135000", "181156.138000", "181156.141000", "181156.144000", "181156.147000", "181156.150000", "181156.153000", "181156.156000", "181156.159000", "181156.162000", "181156.165000", "181156.168000", "181156.171000", "181156.174000", "181156.176000", "181156.179000", "181156.182000", "181156.185000", "181156.188000", "181156.191000", "181156.194000", "181156.197000", "181156.200000", "181156.203000", "181156.206000", "181156.209000", "181204.844000", "181204.848000", "181204.851000", "181204.854000", "181204.857000", "181204.860000"],
