{
  "AcquisitionMatrixPE": 104,
  "AcquisitionNumber": 1,
  "AcquisitionTime": "17:38:22.892500",
  "BandwidthPerPixelPhaseEncode": 17.17,
  "BaseResolution": 104,
  "BodyPartExamined": "BRAIN",
  "CoilString": "HC1-7;NC1_2",
  "ConsistencyInfo": "N4_VE11C_LATEST_20160120",
  "ConversionSoftware": "dcm2niix",
  "ConversionSoftwareVersion": "v1.0.20190902",
  "DerivedVendorReportedEchoSpacing": 0.000560011,
  "DeviceSerialNumber": "167006",
  "DwellTime": 2.1e-06,
  "EchoTime": 0.037,
  "EchoTrainLength": 104,
  "EffectiveEchoSpacing": 0.000560011,
  "FlipAngle": 52,
  "ImageComments": "Unaliased_MB4_PE3_LB",
  "ImageOrientationPatientDICOM": [0.999841, -0.0130833, -0.0120914, 0.00959808, 0.967397, -0.253084],
  "ImageType": [
    "ORIGINAL",
    "PRIMARY",
    "M",
    "MB",
    "ND",
    "MOSAIC"
],
  "ImagingFrequency": 123.259,
  "InPlanePhaseEncodingDirectionDICOM": "COL",
  "InstitutionAddress": "Chemin_Queen-Mary_4565_Montreal_District_CA_H3W_1W5",
  "InstitutionName": "IUGM",
  "InstitutionalDepartmentName": "Department",
  "MRAcquisitionType": "2D",
  "MagneticFieldStrength": 3,
  "Manufacturer": "Siemens",
  "ManufacturersModelName": "Prisma_fit",
  "Modality": "MR",
  "MultibandAccelerationFactor": 4,
  "PartialFourier": 1,
  "PatientPosition": "HFS",
  "PercentPhaseFOV": 100,
  "PhaseEncodingDirection": "j",
  "PhaseEncodingSteps": 104,
  "PhaseResolution": 1,
  "PixelBandwidth": 2290,
  "ProcedureStepDescription": "video_friends",
  "ProtocolName": "func_task-friends-s04e18b",
  "PulseSequenceDetails": "%CustomerSeq%_cmrr_mbep2d_bold",
  "ReceiveCoilActiveElements": "HC1-7;NC1,2",
  "ReceiveCoilName": "HeadNeck_64",
  "ReconMatrixPE": 104,
  "RepetitionTime": 1.49,
  "SAR": 0.0290323,
  "ScanOptions": "FS",
  "ScanningSequence": "EP",
  "SequenceName": "epfid2d1_104",
  "SequenceVariant": "SK_SS",
  "SeriesDescription": "func_task-friends-s04e18b",
  "SeriesNumber": 11,
  "ShimSetting": [631, -7222, -8762, 706, 41, -14, 119, 0],
  "SliceThickness": 2,
  "SliceTiming": [0, 0.785, 0.0975, 0.8825, 0.195, 0.98, 0.295, 1.0775, 0.3925, 1.175, 0.49, 1.275, 0.5875, 1.3725, 0.685, 0, 0.785, 0.0975, 0.8825, 0.195, 0.98, 0.295, 1.0775, 0.3925, 1.175, 0.49, 1.275, 0.5875, 1.3725, 0.685, 0, 0.785, 0.0975, 0.8825, 0.195, 0.98, 0.295, 1.0775, 0.3925, 1.175, 0.49, 1.275, 0.5875, 1.3725, 0.685, 0, 0.785, 0.0975, 0.8825, 0.195, 0.98, 0.295, 1.0775, 0.3925, 1.175, 0.49, 1.275, 0.5875, 1.3725, 0.685],
  "SoftwareVersions": "syngo_MR_E11",
  "SpacingBetweenSlices": 2,
  "StationName": "MRC35049",
  "TaskName": "s04e18b",
  "TotalReadoutTime": 0.0576811,
  "TxRefAmp": 206.024,
  "WipMemBlock": "2f1f1dea-6e0d-4858-ba96-aaa54fd17d18||Sequence: R016 ve11c/master r/e634e98; Dec 19 2017 11:00:25 by eja",
  "dcmmeta_affine": [
    [-1.9996825456619263, 0.0191961620002985, -0.03001672588288784, 105.34619903564453],
    [0.0261665228754282, 1.9347933530807495, -0.5058556795120239, -85.28912353515625],
    [-0.024182837456464767, 0.5061681270599365, 1.9347374439239502, -49.495033264160156],
    [0.0, 0.0, 0.0, 1.0]
],
  "dcmmeta_reorient_transform": [
    [0.0, -1.0, 0.0, 103.0],
    [1.0, 0.0, 0.0, 0.0],
    [0.0, 0.0, 1.0, 0.0],
    [0.0, 0.0, 0.0, 1.0]
],
  "dcmmeta_shape": [104, 104, 60, 450],
  "dcmmeta_slice_dim": 2,
  "dcmmeta_version": 0.6,
  "global": {
    "const": {
      "AcquisitionMatrix": [104, 0, 0, 104],
      "AngioFlag": "N",
      "BitsAllocated": 16,
      "BitsStored": 16,
      "BodyPartExamined": "BRAIN",
      "Columns": 832,
      "EchoNumbers": 1,
      "EchoTime": 37.0,
      "EchoTrainLength": 104,
      "FlipAngle": 52.0,
      "HighBit": 15,
      "ImageOrientationPatient": [0.99984130033913, -0.01308326122, -0.0120914189409, 0.00959808114496, 0.96739667723819, -0.2530840684572],
      "ImagePositionPatient": [-842.19527572382, -808.73476241701, 195.6880382148],
      "ImageType": [
        "ORIGINAL",
        "PRIMARY",
        "M",
        "MB",
        "ND",
        "MOSAIC"
],
      "ImagedNucleus": "1H",
      "ImagingFrequency": 123.259018,
      "InPlanePhaseEncodingDirection": "COL",
      "MRAcquisitionType": "2D",
      "MagneticFieldStrength": 3.0,
      "Manufacturer": "SIEMENS",
      "ManufacturerModelName": "Prisma_fit",
      "Modality": "MR",
      "NumberOfAverages": 1.0,
      "NumberOfPhaseEncodingSteps": 104,
      "PercentPhaseFieldOfView": 100.0,
      "PercentSampling": 100.0,
      "PerformedProcedureStepStartTime": "170505.890000",
      "PhotometricInterpretation": "MONOCHROME2",
      "PixelBandwidth": 2290.0,
      "PixelRepresentation": 0,
      "PixelSpacing": [2.0, 2.0],
      "ProtocolName": "func_task-friends-s04e18b",
      "RepetitionTime": 1490.0,
      "Rows": 832,
      "SAR": 0.0290323243027,
      "SamplesPerPixel": 1,
      "ScanOptions": "FS",
      "ScanningSequence": "EP",
      "SequenceName": "epfid2d1_104",
      "SequenceVariant": [
        "SK",
        "SS"
],
      "SeriesDescription": "func_task-friends-s04e18b",
      "SeriesNumber": 11,
      "SeriesTime": "173950.772000",
      "SliceLocation": -27.889029038869,
      "SliceThickness": 2.0,
      "SmallestImagePixelValue": 0,
      "SoftwareVersions": "syngo MR E11",
      "SpacingBetweenSlices": 1.9999999707782,
      "SpecificCharacterSet": "ISO_IR 100",
      "StudyID": "1",
      "StudyTime": "170505.819000",
      "TransmitCoilName": "Body",
      "VariableFlipAngleFlag": "N",
      "WindowCenterWidthExplanation": "Algo1",
      "dBdt": 0.0},
    "slices": {}
  },
  "time": {
    "samples": {
      "AcquisitionNumber": [1, 2, 3, 4, 5, 6, 7, 8, 9, 10, 11, 12, 13, 14, 15, 16, 17, 18, 19, 20, 21, 22, 23, 24, 25, 26, 27, 28, 29, 30, 31, 32, 33, 34, 35, 36, 37, 38, 39, 40, 41, 42, 43, 44, 45, 46, 47, 48, 49, 50, 51, 52, 53, 54, 55, 56, 57, 58, 59, 60, 61, 62, 63, 64, 65, 66, 67, 68, 69, 70, 71, 72, 73, 74, 75, 76, 77, 78, 79, 80, 81, 82, 83, 84, 85, 86, 87, 88, 89, 90, 91, 92, 93, 94, 95, 96, 97, 98, 99, 100, 101, 102, 103, 104, 105, 106, 107, 108, 109, 110, 111, 112, 113, 114, 115, 116, 117, 118, 119, 120, 121, 122, 123, 124, 125, 126, 127, 128, 129, 130, 131, 132, 133, 134, 135, 136, 137, 138, 139, 140, 141, 142, 143, 144, 145, 146, 147, 148, 149, 150, 151, 152, 153, 154, 155, 156, 157, 158, 159, 160, 161, 162, 163, 164, 165, 166, 167, 168, 169, 170, 171, 172, 173, 174, 175, 176, 177, 178, 179, 180, 181, 182, 183, 184, 185, 186, 187, 188, 189, 190, 191, 192, 193, 194, 195, 196, 197, 198, 199, 200, 201, 202, 203, 204, 205, 206, 207, 208, 209, 210, 211, 212, 213, 214, 215, 216, 217, 218, 219, 220, 221, 222, 223, 224, 225, 226, 227, 228, 229, 230, 231, 232, 233, 234, 235, 236, 237, 238, 239, 240, 241, 242, 243, 244, 245, 246, 247, 248, 249, 250, 251, 252, 253, 254, 255, 256, 257, 258, 259, 260, 261, 262, 263, 264, 265, 266, 267, 268, 269, 270, 271, 272, 273, 274, 275, 276, 277, 278, 279, 280, 281, 282, 283, 284, 285, 286, 287, 288, 289, 290, 291, 292, 293, 294, 295, 296, 297, 298, 299, 300, 301, 302, 303, 304, 305, 306, 307, 308, 309, 310, 311, 312, 313, 314, 315, 316, 317, 318, 319, 320, 321, 322, 323, 324, 325, 326, 327, 328, 329, 330, 331, 332, 333, 334, 335, 336, 337, 338, 339, 340, 341, 342, 343, 344, 345, 346, 347, 348, 349, 350, 351, 352, 353, 354, 355, 356, 357, 358, 359, 360, 361, 362, 363, 364, 365, 366, 367, 368, 369, 370, 371, 372, 373, 374, 375, 376, 377, 378, 379, 380, 381, 382, 383, 384, 385, 386, 387, 388, 389, 390, 391, 392, 393, 394, 395, 396, 397, 398, 399, 400, 401, 402, 403, 404, 405, 406, 407, 408, 409, 410, 411, 412, 413, 414, 415, 416, 417, 418, 419, 420, 421, 422, 423, 424, 425, 426, 427, 428, 429, 430, 431, 432, 433, 434, 435, 436, 437, 438, 439, 440, 441, 442, 443, 444, 445, 446, 447, 448, 449, 450],
      "AcquisitionTime": ["173822.892500", "173824.382500", "173825.872500", "173827.362500", "173828.852500", "173830.342500", "173831.832500", "173833.322500", "173834.812500", "173836.302500", "173837.792500", "173839.282500", "173840.772500", "173842.262500", "173843.752500", "173845.242500", "173846.732500", "173848.222500", "173849.712500", "173851.202500", "173852.692500", "173854.182500", "173855.672500", "173857.162500", "173858.652500", "173900.142500", "173901.632500", "173903.122500", "173904.612500", "173906.102500", "173907.592500", "173909.082500", "173910.572500", "173912.062500", "173913.552500", "173915.042500", "173916.532500", "173918.022500", "173919.512500", "173921.002500", "173922.492500", "173923.982500", "173925.472500", "173926.962500", "173928.452500", "173929.942500", "173931.432500", "173932.922500", "173934.412500", "173935.902500", "173937.392500", "173938.882500", "173940.372500", "173941.862500", "173943.352500", "173944.842500", "173946.332500", "173947.822500", "173949.312500", "173950.802500", "173952.292500", "173953.782500", "173955.272500", "173956.762500", "173958.252500", "173959.742500", "174001.232500", "174002.722500", "174004.212500", "174005.702500", "174007.192500", "174008.682500", "174010.172500", "174011.662500", "174013.152500", "174014.642500", "174016.132500", "174017.622500", "174019.112500", "174020.602500", "174022.092500", "174023.582500", "174025.072500", "174026.562500", "174028.052500", "174029.542500", "174031.032500", "174032.522500", "174034.012500", "174035.502500", "174036.992500", "174038.482500", "174039.972500", "174041.462500", "174042.952500", "174044.442500", "174045.932500", "174047.422500", "174048.912500", "174050.402500", "174051.892500", "174053.382500", "174054.872500", "174056.362500", "174057.852500", "174059.342500", "174100.832500", "174102.322500", "174103.812500", "174105.302500", "174106.792500", "174108.282500", "174109.772500", "174111.262500", "174112.752500", "174114.242500", "174115.732500", "174117.222500", "174118.712500", "174120.202500", "174121.692500", "174123.182500", "174124.672500", "174126.162500", "174127.652500", "174129.142500", "174130.632500", "174132.122500", "174133.612500", "174135.102500", "174136.592500", "174138.082500", "174139.572500", "174141.062500", "174142.552500", "174144.042500", "174145.532500", "174147.022500", "174148.512500", "174150.002500", "174151.492500", "174152.982500", "174154.472500", "174155.962500", "174157.452500", "174158.942500", "174200.432500", "174201.922500", "174203.412500", "174204.902500", "174206.392500", "174207.882500", "174209.372500", "174210.862500", "174212.352500", "174213.842500", "174215.332500", "174216.822500", "174218.312500", "174219.802500", "174221.292500", "174222.782500", "174224.272500", "174225.762500", "174227.252500", "174228.742500", "174230.232500", "174231.722500", "174233.212500", "174234.702500", "174236.192500", "174237.682500", "174239.172500", "174240.662500", "174242.152500", "174243.642500", "174245.132500", "174246.622500", "174248.112500", "174249.602500", "174251.092500", "174252.582500", "174254.072500", "174255.562500", "174257.052500", "174258.542500", "174300.032500", "174301.522500", "174303.012500", "174304.502500", "174305.992500", "174307.482500", "174308.972500", "174310.462500", "174311.952500", "174313.442500", "174314.932500", "174316.422500", "174317.912500", "174319.402500", "174320.892500", "174322.382500", "174323.872500", "174325.362500", "174326.852500", "174328.342500", "174329.832500", "174331.322500", "174332.812500", "174334.302500", "174335.792500", "174337.282500", "174338.772500", "174340.262500", "174341.752500", "174343.242500", "174344.732500", "174346.222500", "174347.712500", "174349.202500", "174350.692500", "174352.182500", "174353.672500", "174355.162500", "174356.652500", "174358.142500", "174359.632500", "174401.122500", "174402.612500", "174404.102500", "174405.592500", "174407.082500", "174408.572500", "174410.062500", "174411.552500", "174413.042500", "174414.532500", "174416.022500", "174417.512500", "174419.002500", "174420.492500", "174421.982500", "174423.472500", "174424.962500", "174426.452500", "174427.942500", "174429.432500", "174430.922500", "174432.412500", "174433.902500", "174435.392500", "174436.882500", "174438.372500", "174439.862500", "174441.352500", "174442.842500", "174444.332500", "174445.822500", "174447.312500", "174448.802500", "174450.292500", "174451.782500", "174453.272500", "174454.762500", "174456.252500", "174457.742500", "174459.232500", "174500.722500", "174502.212500", "174503.702500", "174505.192500", "174506.682500", "174508.172500", "174509.662500", "174511.152500", "174512.642500", "174514.132500", "174515.622500", "174517.112500", "174518.602500", "174520.092500", "174521.582500", "174523.072500", "174524.562500", "174526.052500", "174527.542500", "174529.032500", "174530.522500", "174532.012500", "174533.502500", "174534.992500", "174536.482500", "174537.972500", "174539.462500", "174540.952500", "174542.442500", "174543.932500", "174545.422500", "174546.912500", "174548.402500", "174549.892500", "174551.382500", "174552.872500", "174554.362500", "174555.852500", "174557.342500", "174558.832500", "174600.322500", "174601.812500", "174603.302500", "174604.792500", "174606.282500", "174607.772500", "174609.262500", "174610.752500", "174612.242500", "174613.732500", "174615.222500", "174616.712500", "174618.202500", "174619.692500", "174621.182500", "174622.672500", "174624.162500", "174625.652500", "174627.142500", "174628.632500", "174630.122500", "174631.612500", "174633.102500", "174634.592500", "174636.082500", "174637.572500", "174639.062500", "174640.552500", "174642.042500", "174643.532500", "174645.022500", "174646.512500", "174648.002500", "174649.492500", "174650.982500", "174652.472500", "174653.962500", "174655.452500", "174656.942500", "174658.432500", "174659.922500", "174701.412500", "174702.902500", "174704.392500", "174705.882500", "174707.372500", "174708.862500", "174710.352500", "174711.842500", "174713.332500", "174714.822500", "174716.312500", "174717.802500", "174719.292500", "174720.782500", "174722.272500", "174723.762500", "174725.252500", "174726.742500", "174728.232500", "174729.722500", "174731.212500", "174732.702500", "174734.192500", "174735.682500", "174737.172500", "174738.662500", "174740.152500", "174741.642500", "174743.132500", "174744.622500", "174746.112500", "174747.602500", "174749.092500", "174750.582500", "174752.072500", "174753.562500", "174755.052500", "174756.542500", "174758.032500", "174759.522500", "174801.012500", "174802.502500", "174803.992500", "174805.482500", "174806.972500", "174808.462500", "174809.952500", "174811.442500", "174812.932500", "174814.422500", "174815.912500", "174817.402500", "174818.892500", "174820.382500", "174821.872500", "174823.362500", "174824.852500", "174826.342500", "174827.832500", "174829.322500", "174830.812500", "174832.302500", "174833.792500", "174835.282500", "174836.772500", "174838.262500", "174839.752500", "174841.242500", "174842.732500", "174844.222500", "174845.712500", "174847.202500", "174848.692500", "174850.182500", "174851.672500", "174853.162500", "174854.652500", "174856.142500", "174857.632500", "174859.122500", "174900.612500", "174902.102500", "174903.592500", "174905.082500", "174906.572500", "174908.062500", "174909.552500", "174911.042500", "174912.532500", "174914.022500", "174915.512500", "174917.002500", "174918.492500", "174919.982500", "174921.472500", "174922.962500", "174924.452500", "174925.942500", "174927.432500", "174928.922500", "174930.412500", "174931.902500"],
      "ContentTime": ["173950.775000", "173950.790000", "173950.793000", "173950.796000", "173950.799000", "173950.801000", "173950.804000", "173950.807000", "173950.810000", "173950.814000", "173950.817000", "173950.820000", "173950.823000", "173950.826000", "173950.829000", "173950.832000", "173950.835000", "173950.838000", "173950.841000", "173950.844000", "173950.847000", "173950.850000", "173950.852000", "173950.855000", "173950.858000", "173950.861000", "173950.864000", "173950.867000", "173950.870000", "173950.873000", "173950.876000", "173950.879000", "173950.882000", "173950.885000", "174010.738000", "174010.741000", "174010.744000", "174010.747000", "174010.750000", "174010.753000", "174010.756000", "174010.759000", "174010.762000", "174010.764000", "174010.767000", "174010.804000", "174010.807000", "174010.810000", "174010.813000", "174010.816000", "174010.818000", "174010.821000", "174010.831000", "174010.834000", "174010.837000", "174030.738000", "174030.741000", "174030.744000", "174030.747000", "174030.750000", "174030.753000", "174030.756000", "174030.759000", "174030.762000", "174030.764000", "174030.767000", "174030.770000", "174030.773000", "174030.776000", "174030.779000", "174030.782000", "174030.785000", "174030.788000", "174030.791000", "174030.794000", "174050.737000", "174050.740000", "174050.743000", "174050.746000", "174050.749000", "174050.752000", "174050.755000", "174050.758000", "174050.760000", "174050.763000", "174050.766000", "174050.769000", "174050.772000", "174050.775000", "174050.778000", "174050.781000", "174050.784000", "174050.787000", "174050.790000", "174050.793000", "174130.738000", "174130.741000", "174130.744000", "174130.747000", "174130.750000", "174130.753000", "174130.756000", "174130.759000", "174130.762000", "174130.765000", "174130.768000", "174130.902000", "174130.905000", "174130.908000", "174130.911000", "174130.914000", "174130.917000", "174130.920000", "174130.923000", "174130.926000", "174130.929000", "174130.932000", "174130.935000", "174130.938000", "174130.941000", "174130.944000", "174130.946000", "174130.949000", "174130.952000", "174130.955000", "174210.738000", "174210.741000", "174210.744000", "174210.747000", "174210.750000", "174210.753000", "174210.756000", "174210.759000", "174210.768000", "174210.770000", "174210.774000", "174210.776000", "174210.779000", "174210.782000", "174210.785000", "174210.788000", "174210.791000", "174210.794000", "174210.797000", "174210.800000", "174210.803000", "174210.806000", "174210.809000", "174210.812000", "174210.814000", "174210.817000", "174210.820000", "174250.738000", "174250.741000", "174250.744000", "174250.747000", "174250.750000", "174250.753000", "174250.756000", "174250.759000", "174250.762000", "174250.765000", "174250.768000", "174250.771000", "174250.773000", "174250.776000", "174250.779000", "174250.782000", "174250.785000", "174250.788000", "174250.791000", "174250.794000", "174250.797000", "174250.800000", "174250.803000", "174250.806000", "174250.809000", "174250.812000", "174250.814000", "174330.737000", "174330.740000", "174330.743000", "174330.746000", "174330.749000", "174330.752000", "174330.755000", "174330.757000", "174330.761000", "174330.763000", "174330.766000", "174330.769000", "174330.772000", "174330.775000", "174330.778000", "174330.781000", "174330.784000", "174330.787000", "174330.790000", "174330.793000", "174330.796000", "174330.812000", "174330.815000", "174330.818000", "174330.827000", "174330.830000", "174330.833000", "174410.738000", "174410.741000", "174410.744000", "174410.747000", "174410.750000", "174410.753000", "174410.756000", "174410.759000", "174410.762000", "174410.765000", "174410.767000", "174410.912000", "174410.915000", "174410.918000", "174410.920000", "174410.923000", "174410.926000", "174410.929000", "174410.932000", "174410.935000", "174410.938000", "174410.941000", "174410.944000", "174410.947000", "174410.950000", "174410.953000", "174410.955000", "174450.738000", "174450.741000", "174450.744000", "174450.747000", "174450.750000", "174450.753000", "174450.756000", "174450.759000", "174450.762000", "174450.765000", "174450.768000", "174450.771000", "174450.773000", "174450.776000", "174450.779000", "174450.782000", "174450.785000", "174450.788000", "174450.791000", "174450.794000", "174450.797000", "174450.800000", "174450.803000", "174450.806000", "174450.809000", "174450.812000", "174450.815000", "174530.737000", "174530.740000", "174530.743000", "174530.746000", "174530.749000", "174530.752000", "174530.755000", "174530.758000", "174530.761000", "174530.764000", "174530.767000", "174530.770000", "174530.773000", "174530.776000", "174530.779000", "174530.782000", "174530.785000", "174530.788000", "174530.791000", "174530.793000", "174530.796000", "174530.800000", "174530.802000", "174530.805000", "174530.808000", "174530.811000", "174530.814000", "174610.738000", "174610.741000", "174610.744000", "174610.747000", "174610.750000", "174610.753000", "174610.756000", "174610.760000", "174610.763000", "174610.766000", "174610.769000", "174610.796000", "174610.799000", "174610.802000", "174610.805000", "174610.808000", "174610.811000", "174610.814000", "174610.817000", "174610.820000", "174610.822000", "174610.825000", "174610.828000", "174610.831000", "174610.834000", "174610.837000", "174650.738000", "174650.741000", "174650.744000", "174650.747000", "174650.750000", "174650.753000", "174650.756000", "174650.759000", "174650.762000", "174650.765000", "174650.768000", "174650.934000", "174650.937000", "174650.940000", "174650.943000", "174650.945000", "174650.948000", "174650.951000", "174650.954000", "174650.957000", "174650.960000", "174650.963000", "174650.966000", "174650.969000", "174650.972000", "174650.975000", "174650.978000", "174730.738000", "174730.741000", "174730.744000", "174730.747000", "174730.750000", "174730.753000", "174730.756000", "174730.759000", "174730.762000", "174730.765000", "174730.768000", "174730.771000", "174730.774000", "174730.777000", "174730.780000", "174730.783000", "174730.786000", "174730.789000", "174730.792000", "174730.795000", "174730.797000", "174730.800000", "174730.803000", "174730.806000", "174730.809000", "174730.812000", "174730.815000", "174810.737000", "174810.740000", "174810.743000", "174810.746000", "174810.749000", "174810.752000", "174810.755000", "174810.758000", "174810.761000", "174810.764000", "174810.767000", "174810.770000", "174810.773000", "174810.776000", "174810.779000", "174810.782000", "174810.785000", "174810.787000", "174810.790000", "174810.793000", "174810.796000", "174810.806000", "174810.809000", "174810.812000", "174810.815000", "174810.818000", "174810.821000", "174850.738000", "174850.741000", "174850.744000", "174850.747000", "174850.750000", "174850.753000", "174850.756000", "174850.759000", "174850.762000", "174850.765000", "174850.768000", "174850.784000", "174850.787000", "174850.790000", "174850.793000", "174850.796000", "174850.799000", "174850.802000", "174850.805000", "174850.808000", "174850.811000", "174850.813000", "174850.816000", "174850.819000", "174850.822000", "174850.825000", "174850.828000", "174930.738000", "174930.741000", "174930.744000", "174930.747000", "174930.750000", "174930.753000", "174930.756000", "174930.759000", "174930.762000", "174930.765000", "174930.768000", "174930.771000", "174930.774000", "174930.777000", "174930.780000", "174930.783000", "174930.786000", "174930.788000", "174930.791000", "174930.794000", "174930.797000", "174930.800000", "174930.803000", "174930.806000", "174930.809000", "174930.812000", "174930.815000", "174933.584000", "174933.588000"],
