{
  "AcquisitionMatrixPE": 104,
  "AcquisitionNumber": 1,
  "AcquisitionTime": "19:27:53.410000",
  "BandwidthPerPixelPhaseEncode": 17.17,
  "BaseResolution": 104,
  "BodyPartExamined": "BRAIN",
  "CoilCombinationMethod": "Sum of Squares",
  "ConsistencyInfo": "N4_VE11C_LATEST_20160120",
  "ConversionSoftware": "dcm2niix",
  "ConversionSoftwareVersion": "v1.0.20230411",
  "DerivedVendorReportedEchoSpacing": 0.000560011,
  "DeviceSerialNumber": "167006",
  "DwellTime": 2.1e-06,
  "EchoTime": 0.037,
  "EchoTrainLength": 104,
  "EffectiveEchoSpacing": 0.000560011,
  "FlipAngle": 52,
  "HeudiconvVersion": "0.5.3.post861+ge7d3c7f",
  "ImageComments": "Unaliased MB4/PE3/LB",
  "ImageOrientationPatientDICOM": [0.999774, -0.0212487, 0.000529693, 0.0198949, 0.926721, -0.375223],
  "ImageOrientationText": "Tra>Cor(-22.0)>Sag(-0.4)",
  "ImageType": [
    "ORIGINAL",
    "PRIMARY",
    "M",
    "MB",
    "ND",
    "MOSAIC"
],
  "ImagingFrequency": 123.24955,
  "InPlanePhaseEncodingDirectionDICOM": "COL",
  "InstitutionAddress": "Chemin Queen-Mary 4565,Montreal,District,CA,H3W 1W5",
  "InstitutionName": "IUGM",
  "InstitutionalDepartmentName": "Department",
  "MRAcquisitionType": "2D",
  "MagneticFieldStrength": 3,
  "Manufacturer": "Siemens",
  "ManufacturersModelName": "Prisma_fit",
  "MatrixCoilMode": "SENSE",
  "Modality": "MR",
  "MultibandAccelerationFactor": 4,
  "NonlinearGradientCorrection": false,
  "PartialFourier": 1,
  "PatientPosition": "HFS",
  "PercentPhaseFOV": 100,
  "PercentSampling": 100,
  "PhaseEncodingDirection": "j",
  "PhaseEncodingSteps": 104,
  "PhaseResolution": 1,
  "PixelBandwidth": 2290,
  "ProcedureStepDescription": "video^friends",
  "ProtocolName": "func_task-friends-s07e16b",
  "PulseSequenceDetails": "%CustomerSeq%\\cmrr_mbep2d_bold",
  "ReceiveCoilActiveElements": "HC1-7;NC1,2",
  "ReceiveCoilName": "HeadNeck_64",
  "ReconMatrixPE": 104,
  "RepetitionTime": 1.49,
  "SAR": 0.053089,
  "ScanOptions": "FS",
  "ScanningSequence": "EP",
  "SequenceName": "epfid2d1_104",
  "SequenceVariant": "SK\\SS",
  "SeriesDescription": "func_task-friends-s07e16b",
  "SeriesNumber": 10,
  "ShimSetting": [585, -7276, -8811, 448, 25, -335, 0, 100],
  "SliceThickness": 2,
  "SliceTiming": [0, 0.785, 0.1, 0.8825, 0.1975, 0.98, 0.295, 1.0775, 0.3925, 1.1775, 0.49, 1.275, 0.59, 1.3725, 0.6875, 0, 0.785, 0.1, 0.8825, 0.1975, 0.98, 0.295, 1.0775, 0.3925, 1.1775, 0.49, 1.275, 0.59, 1.3725, 0.6875, 0, 0.785, 0.1, 0.8825, 0.1975, 0.98, 0.295, 1.0775, 0.3925, 1.1775, 0.49, 1.275, 0.59, 1.3725, 0.6875, 0, 0.785, 0.1, 0.8825, 0.1975, 0.98, 0.295, 1.0775, 0.3925, 1.1775, 0.49, 1.275, 0.59, 1.3725, 0.6875],
  "SoftwareVersions": "syngo MR E11",
  "SpacingBetweenSlices": 2,
  "StationName": "MRC35049",
  "TaskName": "s07e16b",
  "TotalReadoutTime": 0.0576811,
  "TxRefAmp": 253.776,
  "WipMemBlock": "7465501e-c6d7-4f6a-804a-6c9222b2ad3f||Sequence: R017 ve11c/master r/75a17815+; Jun 28 2022 16:32:11 by eja",
  "dcmmeta_affine": [
    [-1.9995481967926025, 0.039789747446775436, -0.014964229427278042, 98.75173950195312],
    [0.042497411370277405, 1.8534425497055054, -0.7502965331077576, -71.03716278076172],
    [0.0010593852493911982, 0.7504450082778931, 1.8538691997528076, -65.38671875],
    [0.0, 0.0, 0.0, 1.0]
],
  "dcmmeta_reorient_transform": [
    [0.0, -1.0, 0.0, 103.0],
    [1.0, 0.0, 0.0, 0.0],
    [0.0, 0.0, 1.0, 0.0],
    [0.0, 0.0, 0.0, 1.0]
],
  "dcmmeta_shape": [104, 104, 60, 402],
  "dcmmeta_slice_dim": 2,
  "dcmmeta_version": 0.6,
  "global": {
    "const": {
      "AcquisitionMatrix": [104, 0, 0, 104],
      "AngioFlag": "N",
      "BitsAllocated": 16,
      "BitsStored": 16,
      "BodyPartExamined": "BRAIN",
      "Columns": 832,
      "EchoNumbers": 1,
      "EchoTime": 37.0,
      "EchoTrainLength": 104,
      "FlipAngle": 52.0,
      "HighBit": 15,
      "ImageOrientationPatient": [0.99977408046264, -0.021248704921, 0.00052969260954, 0.01989487360022, 0.92672124965587, -0.3752224932499],
      "ImagePositionPatient": [-845.16908085055, -779.05142801712, 284.68547496741],
      "ImageType": [
        "ORIGINAL",
        "PRIMARY",
        "M",
        "MB",
        "ND",
        "MOSAIC"
],
      "ImagedNucleus": "1H",
      "ImagingFrequency": 123.24955,
      "InPlanePhaseEncodingDirection": "COL",
      "MRAcquisitionType": "2D",
      "MagneticFieldStrength": 3.0,
      "Manufacturer": "SIEMENS",
      "ManufacturerModelName": "Prisma_fit",
      "Modality": "MR",
      "NumberOfAverages": 1.0,
      "NumberOfPhaseEncodingSteps": 104,
      "PercentPhaseFieldOfView": 100.0,
      "PercentSampling": 100.0,
      "PerformedProcedureStepStartTime": "192359.984000",
      "PhotometricInterpretation": "MONOCHROME2",
      "PixelBandwidth": 2290.0,
      "PixelRepresentation": 0,
      "PixelSpacing": [2.0, 2.0],
      "ProtocolName": "func_task-friends-s07e16b",
      "RepetitionTime": 1490.0,
      "Rows": 832,
      "SAR": 0.05308903466274,
      "SamplesPerPixel": 1,
      "ScanOptions": "FS",
      "ScanningSequence": "EP",
      "SequenceName": "epfid2d1_104",
      "SequenceVariant": [
        "SK",
        "SS"
],
      "SeriesDescription": "func_task-friends-s07e16b",
      "SeriesNumber": 10,
      "SeriesTime": "192901.687000",
      "SliceLocation": -34.698616528801,
      "SliceThickness": 2.0,
      "SmallestImagePixelValue": 0,
      "SoftwareVersions": "syngo MR E11",
      "SpacingBetweenSlices": 2.0000000047619,
      "SpecificCharacterSet": "ISO_IR 100",
      "StudyID": "1",
      "StudyTime": "192359.891000",
      "TransmitCoilName": "Body",
      "VariableFlipAngleFlag": "N",
      "WindowCenterWidthExplanation": "Algo1",
      "dBdt": 0.0},
    "slices": {}
  },
  "time": {
    "samples": {
      "AcquisitionNumber": [1, 2, 3, 4, 5, 6, 7, 8, 9, 10, 11, 12, 13, 14, 15, 16, 17, 18, 19, 20, 21, 22, 23, 24, 25, 26, 27, 28, 29, 30, 31, 32, 33, 34, 35, 36, 37, 38, 39, 40, 41, 42, 43, 44, 45, 46, 47, 48, 49, 50, 51, 52, 53, 54, 55, 56, 57, 58, 59, 60, 61, 62, 63, 64, 65, 66, 67, 68, 69, 70, 71, 72, 73, 74, 75, 76, 77, 78, 79, 80, 81, 82, 83, 84, 85, 86, 87, 88, 89, 90, 91, 92, 93, 94, 95, 96, 97, 98, 99, 100, 101, 102, 103, 104, 105, 106, 107, 108, 109, 110, 111, 112, 113, 114, 115, 116, 117, 118, 119, 120, 121, 122, 123, 124, 125, 126, 127, 128, 129, 130, 131, 132, 133, 134, 135, 136, 137, 138, 139, 140, 141, 142, 143, 144, 145, 146, 147, 148, 149, 150, 151, 152, 153, 154, 155, 156, 157, 158, 159, 160, 161, 162, 163, 164, 165, 166, 167, 168, 169, 170, 171, 172, 173, 174, 175, 176, 177, 178, 179, 180, 181, 182, 183, 184, 185, 186, 187, 188, 189, 190, 191, 192, 193, 194, 195, 196, 197, 198, 199, 200, 201, 202, 203, 204, 205, 206, 207, 208, 209, 210, 211, 212, 213, 214, 215, 216, 217, 218, 219, 220, 221, 222, 223, 224, 225, 226, 227, 228, 229, 230, 231, 232, 233, 234, 235, 236, 237, 238, 239, 240, 241, 242, 243, 244, 245, 246, 247, 248, 249, 250, 251, 252, 253, 254, 255, 256, 257, 258, 259, 260, 261, 262, 263, 264, 265, 266, 267, 268, 269, 270, 271, 272, 273, 274, 275, 276, 277, 278, 279, 280, 281, 282, 283, 284, 285, 286, 287, 288, 289, 290, 291, 292, 293, 294, 295, 296, 297, 298, 299, 300, 301, 302, 303, 304, 305, 306, 307, 308, 309, 310, 311, 312, 313, 314, 315, 316, 317, 318, 319, 320, 321, 322, 323, 324, 325, 326, 327, 328, 329, 330, 331, 332, 333, 334, 335, 336, 337, 338, 339, 340, 341, 342, 343, 344, 345, 346, 347, 348, 349, 350, 351, 352, 353, 354, 355, 356, 357, 358, 359, 360, 361, 362, 363, 364, 365, 366, 367, 368, 369, 370, 371, 372, 373, 374, 375, 376, 377, 378, 379, 380, 381, 382, 383, 384, 385, 386, 387, 388, 389, 390, 391, 392, 393, 394, 395, 396, 397, 398, 399, 400, 401, 402],
      "AcquisitionTime": ["192753.410000", "192754.900000", "192756.390000", "192757.880000", "192759.370000", "192800.860000", "192802.350000", "192803.840000", "192805.330000", "192806.820000", "192808.310000", "192809.800000", "192811.290000", "192812.780000", "192814.270000", "192815.760000", "192817.250000", "192818.740000", "192820.230000", "192821.720000", "192823.210000", "192824.700000", "192826.190000", "192827.680000", "192829.170000", "192830.660000", "192832.150000", "192833.640000", "192835.130000", "192836.620000", "192838.110000", "192839.600000", "192841.090000", "192842.580000", "192844.070000", "192845.560000", "192847.050000", "192848.540000", "192850.030000", "192851.520000", "192853.010000", "192854.500000", "192855.990000", "192857.480000", "192858.970000", "192900.460000", "192901.950000", "192903.440000", "192904.930000", "192906.420000", "192907.910000", "192909.400000", "192910.890000", "192912.380000", "192913.870000", "192915.360000", "192916.850000", "192918.340000", "192919.830000", "192921.320000", "192922.810000", "192924.300000", "192925.790000", "192927.280000", "192928.770000", "192930.260000", "192931.750000", "192933.240000", "192934.730000", "192936.220000", "192937.710000", "192939.200000", "192940.690000", "192942.180000", "192943.670000", "192945.160000", "192946.650000", "192948.140000", "192949.630000", "192951.120000", "192952.610000", "192954.100000", "192955.590000", "192957.080000", "192958.570000", "193000.060000", "193001.550000", "193003.040000", "193004.530000", "193006.020000", "193007.510000", "193009.000000", "193010.490000", "193011.980000", "193013.470000", "193014.960000", "193016.450000", "193017.940000", "193019.430000", "193020.920000", "193022.410000", "193023.900000", "193025.390000", "193026.880000", "193028.370000", "193029.860000", "193031.350000", "193032.840000", "193034.330000", "193035.820000", "193037.310000", "193038.800000", "193040.290000", "193041.780000", "193043.270000", "193044.760000", "193046.250000", "193047.740000", "193049.230000", "193050.720000", "193052.210000", "193053.700000", "193055.190000", "193056.680000", "193058.170000", "193059.660000", "193101.150000", "193102.640000", "193104.130000", "193105.620000", "193107.110000", "193108.600000", "193110.090000", "193111.580000", "193113.070000", "193114.560000", "193116.050000", "193117.540000", "193119.030000", "193120.520000", "193122.010000", "193123.500000", "193124.990000", "193126.480000", "193127.970000", "193129.460000", "193130.950000", "193132.440000", "193133.930000", "193135.420000", "193136.910000", "193138.400000", "193139.890000", "193141.380000", "193142.870000", "193144.360000", "193145.850000", "193147.340000", "193148.830000", "193150.320000", "193151.810000", "193153.300000", "193154.790000", "193156.280000", "193157.770000", "193159.260000", "193200.750000", "193202.240000", "193203.730000", "193205.220000", "193206.710000", "193208.200000", "193209.690000", "193211.180000", "193212.670000", "193214.160000", "193215.650000", "193217.140000", "193218.630000", "193220.120000", "193221.610000", "193223.100000", "193224.590000", "193226.080000", "193227.570000", "193229.060000", "193230.550000", "193232.040000", "193233.530000", "193235.020000", "193236.510000", "193238.000000", "193239.490000", "193240.980000", "193242.470000", "193243.960000", "193245.450000", "193246.940000", "193248.430000", "193249.920000", "193251.410000", "193252.900000", "193254.390000", "193255.880000", "193257.370000", "193258.860000", "193300.350000", "193301.840000", "193303.330000", "193304.820000", "193306.310000", "193307.800000", "193309.290000", "193310.780000", "193312.270000", "193313.760000", "193315.250000", "193316.740000", "193318.230000", "193319.720000", "193321.210000", "193322.700000", "193324.190000", "193325.680000", "193327.170000", "193328.660000", "193330.150000", "193331.640000", "193333.130000", "193334.620000", "193336.110000", "193337.600000", "193339.090000", "193340.580000", "193342.070000", "193343.560000", "193345.050000", "193346.540000", "193348.030000", "193349.520000", "193351.010000", "193352.500000", "193353.990000", "193355.480000", "193356.970000", "193358.460000", "193359.950000", "193401.440000", "193402.930000", "193404.420000", "193405.910000", "193407.400000", "193408.890000", "193410.380000", "193411.870000", "193413.360000", "193414.850000", "193416.340000", "193417.830000", "193419.320000", "193420.810000", "193422.300000", "193423.790000", "193425.280000", "193426.770000", "193428.260000", "193429.750000", "193431.240000", "193432.730000", "193434.220000", "193435.710000", "193437.200000", "193438.690000", "193440.180000", "193441.670000", "193443.160000", "193444.650000", "193446.140000", "193447.630000", "193449.120000", "193450.610000", "193452.100000", "193453.590000", "193455.080000", "193456.570000", "193458.060000", "193459.550000", "193501.040000", "193502.530000", "193504.020000", "193505.510000", "193507.000000", "193508.490000", "193509.980000", "193511.470000", "193512.960000", "193514.450000", "193515.940000", "193517.430000", "193518.920000", "193520.410000", "193521.900000", "193523.390000", "193524.880000", "193526.370000", "193527.860000", "193529.350000", "193530.840000", "193532.330000", "193533.820000", "193535.310000", "193536.800000", "193538.290000", "193539.780000", "193541.270000", "193542.760000", "193544.250000", "193545.740000", "193547.230000", "193548.720000", "193550.210000", "193551.700000", "193553.190000", "193554.680000", "193556.170000", "193557.660000", "193559.150000", "193600.640000", "193602.130000", "193603.620000", "193605.110000", "193606.600000", "193608.090000", "193609.580000", "193611.070000", "193612.560000", "193614.050000", "193615.540000", "193617.030000", "193618.520000", "193620.010000", "193621.500000", "193622.990000", "193624.480000", "193625.970000", "193627.460000", "193628.950000", "193630.440000", "193631.930000", "193633.420000", "193634.910000", "193636.400000", "193637.890000", "193639.380000", "193640.870000", "193642.360000", "193643.850000", "193645.340000", "193646.830000", "193648.320000", "193649.810000", "193651.300000", "193652.790000", "193654.280000", "193655.770000", "193657.260000", "193658.750000", "193700.240000", "193701.730000", "193703.220000", "193704.710000", "193706.200000", "193707.690000", "193709.180000", "193710.670000", "193712.160000", "193713.650000", "193715.140000", "193716.630000", "193718.120000", "193719.610000", "193721.100000", "193722.590000", "193724.080000", "193725.570000", "193727.060000", "193728.550000", "193730.040000", "193731.530000", "193733.020000", "193734.510000", "193736.000000", "193737.490000", "193738.980000", "193740.470000", "193741.960000", "193743.450000", "193744.940000", "193746.430000", "193747.920000", "193749.410000", "193750.900000"],
      "ContentTime": ["192901.690000", "192901.693000", "192901.696000", "192901.699000", "192901.702000", "192901.705000", "192901.708000", "192901.716000", "192901.724000", "192901.727000", "192901.730000", "192901.733000", "192901.736000", "192901.739000", "192901.742000", "192901.745000", "192901.748000", "192901.751000", "192901.754000", "192901.761000", "192901.764000", "192921.662000", "192921.665000", "192921.668000", "192921.671000", "192921.674000", "192921.677000", "192921.679000", "192921.682000", "192921.685000", "192921.688000", "192921.691000", "192921.694000", "192921.697000", "192921.700000", "192921.703000", "192921.706000", "192921.709000", "192921.718000", "192921.721000", "192921.724000", "192941.662000", "192941.665000", "192941.668000", "192941.671000", "192941.674000", "192941.679000", "192941.682000", "192941.685000", "192941.688000", "192941.691000", "192941.694000", "192941.697000", "192941.700000", "192941.703000", "192941.706000", "192941.709000", "192941.716000", "192941.719000", "192941.722000", "192941.725000", "193001.662000", "193001.665000", "193001.668000", "193001.671000", "193001.673000", "193001.676000", "193001.679000", "193001.682000", "193001.685000", "193001.688000", "193001.691000", "193001.694000", "193001.697000", "193001.700000", "193001.703000", "193001.706000", "193001.709000", "193001.712000", "193001.715000", "193001.718000", "193001.721000", "193041.662000", "193041.666000", "193041.669000", "193041.672000", "193041.675000", "193041.678000", "193041.681000", "193041.684000", "193041.687000", "193041.690000", "193041.693000", "193041.696000", "193041.699000", "193041.702000", "193041.705000", "193041.708000", "193041.710000", "193041.714000", "193041.717000", "193041.720000", "193041.735000", "193041.738000", "193041.741000", "193041.744000", "193041.747000", "193041.750000", "193041.753000", "193041.756000", "193041.759000", "193041.767000", "193121.662000", "193121.665000", "193121.668000", "193121.671000", "193121.674000", "193121.677000", "193121.680000", "193121.683000", "193121.686000", "193121.689000", "193121.692000", "193121.695000", "193121.697000", "193121.700000", "193121.703000", "193121.706000", "193121.709000", "193121.712000", "193121.715000", "193121.718000", "193121.721000", "193121.724000", "193121.727000", "193121.730000", "193121.733000", "193121.736000", "193121.739000", "193201.662000", "193201.665000", "193201.668000", "193201.682000", "193201.686000", "193201.688000", "193201.691000", "193201.694000", "193201.697000", "193201.700000", "193201.703000", "193201.706000", "193201.709000", "193201.712000", "193201.715000", "193201.718000", "193201.721000", "193201.724000", "193201.727000", "193201.730000", "193201.733000", "193201.736000", "193201.738000", "193201.741000", "193201.744000", "193201.747000", "193201.750000", "193241.662000", "193241.665000", "193241.668000", "193241.671000", "193241.674000", "193241.677000", "193241.680000", "193241.683000", "193241.686000", "193241.689000", "193241.692000", "193241.695000", "193241.697000", "193241.700000", "193241.703000", "193241.706000", "193241.709000", "193241.712000", "193241.715000", "193241.718000", "193241.721000", "193241.724000", "193241.727000", "193241.730000", "193241.733000", "193241.736000", "193241.739000", "193321.662000", "193321.665000", "193321.674000", "193321.677000", "193321.680000", "193321.683000", "193321.686000", "193321.689000", "193321.692000", "193321.694000", "193321.698000", "193321.700000", "193321.703000", "193321.706000", "193321.709000", "193321.712000", "193321.715000", "193321.718000", "193321.721000", "193321.724000", "193321.727000", "193321.730000", "193321.733000", "193321.736000", "193321.739000", "193321.741000", "193321.745000", "193401.662000", "193401.665000", "193401.668000", "193401.671000", "193401.674000", "193401.677000", "193401.680000", "193401.683000", "193401.686000", "193401.689000", "193401.692000", "193401.695000", "193401.698000", "193401.701000", "193401.704000", "193401.706000", "193401.709000", "193401.713000", "193401.715000", "193401.718000", "193401.721000", "193401.724000", "193401.727000", "193401.730000", "193401.733000", "193401.736000", "193401.739000", "193441.662000", "193441.665000", "193441.668000", "193441.671000", "193441.674000", "193441.677000", "193441.680000", "193441.683000", "193441.686000", "193441.689000", "193441.692000", "193441.695000", "193441.698000", "193441.701000", "193441.704000", "193441.707000", "193441.710000", "193441.713000", "193441.716000", "193441.719000", "193441.722000", "193441.725000", "193441.728000", "193441.730000", "193441.733000", "193441.736000", "193521.662000", "193521.665000", "193521.668000", "193521.671000", "193521.674000", "193521.677000", "193521.680000", "193521.683000", "193521.686000", "193521.688000", "193521.692000", "193521.694000", "193521.697000", "193521.700000", "193521.703000", "193521.706000", "193521.709000", "193521.712000", "193521.715000", "193521.718000", "193521.721000", "193521.724000", "193521.727000", "193521.730000", "193521.732000", "193521.735000", "193521.738000", "193601.662000", "193601.665000", "193601.668000", "193601.671000", "193601.674000", "193601.677000", "193601.680000", "193601.683000", "193601.686000", "193601.689000", "193601.692000", "193601.694000", "193601.697000", "193601.701000", "193601.703000", "193601.706000", "193601.709000", "193601.712000", "193601.715000", "193601.718000", "193601.721000", "193601.724000", "193601.727000", "193601.730000", "193601.733000", "193601.736000", "193601.760000", "193641.662000", "193641.665000", "193641.668000", "193641.671000", "193641.674000", "193641.677000", "193641.680000", "193641.683000", "193641.686000", "193641.689000", "193641.692000", "193641.694000", "193641.698000", "193641.701000", "193641.703000", "193641.706000", "193641.709000", "193641.712000", "193641.715000", "193641.718000", "193641.721000", "193641.724000", "193641.727000", "193641.730000", "193641.733000", "193641.736000", "193641.739000", "193721.662000", "193721.665000", "193721.668000", "193721.671000", "193721.674000", "193721.677000", "193721.680000", "193721.683000", "193721.686000", "193721.689000", "193721.692000", "193721.695000", "193721.698000", "193721.701000", "193721.703000", "193721.707000", "193721.710000", "193721.712000", "193721.715000", "193721.718000", "193721.721000", "193721.724000", "193721.727000", "193721.730000", "193721.733000", "193721.736000", "193721.739000", "193752.421000", "193752.424000", "193752.427000", "193752.430000", "193752.433000", "193752.436000", "193752.439000", "193752.442000", "193752.445000", "193752.448000", "193752.451000", "193752.454000", "193752.457000", "193752.460000", "193752.463000", "193752.466000", "193752.469000", "193752.472000", "193752.476000", "193752.479000", "193752.482000"],
      "InstanceCreationTime": ["192901.690000", "192901.693000", "192901.696000", "192901.699000", "192901.702000", "192901.705000", "192901.708000", "192901.716000", "192901.724000", "192901.727000", "192901.730000", "192901.733000", "192901.736000", "192901.739000", "192901.742000", "192901.745000", "192901.748000", "192901.751000", "192901.754000", "192901.761000", "192901.764000", "192921.662000", "192921.665000", "192921.668000", "192921.671000", "192921.674000", "192921.677000", "192921.679000", "192921.682000", "192921.685000", "192921.688000", "192921.691000", "192921.694000", "192921.697000", "192921.700000", "192921.703000", "192921.706000", "192921.709000", "192921.718000", "192921.721000", "192921.724000", "192941.662000", "192941.665000", "192941.668000", "192941.671000", "192941.674000", "192941.679000", "192941.682000", "192941.685000", "192941.688000", "192941.691000", "192941.694000", "192941.697000", "192941.700000", "192941.703000", "192941.706000", "192941.709000", "192941.716000", "192941.719000", "192941.722000", "192941.725000", "193001.662000", "193001.665000", "193001.668000", "193001.671000", "193001.673000", "193001.676000", "193001.679000", "193001.682000", "193001.685000", "193001.688000", "193001.691000", "193001.694000", "193001.697000", "193001.700000", "193001.703000", "193001.706000", "193001.709000", "193001.712000", "193001.715000", "193001.718000", "193001.721000", "193041.662000", "193041.666000", "193041.669000", "193041.672000", "193041.675000", "193041.678000", "193041.681000", "193041.684000", "193041.687000", "193041.690000", "193041.693000", "193041.696000", "193041.699000", "193041.702000", "193041.705000", "193041.708000", "193041.710000", "193041.714000", "193041.717000", "193041.720000", "193041.735000", "193041.738000", "193041.741000", "193041.744000", "193041.747000", "193041.750000", "193041.753000", "193041.756000", "193041.759000", "193041.767000", "193121.662000", "193121.665000", "193121.668000", "193121.671000", "193121.674000", "193121.677000", "193121.680000", "193121.683000", "193121.686000", "193121.689000", "193121.692000", "193121.695000", "193121.697000", "193121.700000", "193121.703000", "193121.706000", "193121.709000", "193121.712000", "193121.715000", "193121.718000", "193121.721000", "193121.724000", "193121.727000", "193121.730000", "193121.733000", "193121.736000", "193121.739000", "193201.662000", "193201.665000", "193201.668000", "193201.682000", "193201.686000", "193201.688000", "193201.691000", "193201.694000", "193201.697000", "193201.700000", "193201.703000", "193201.706000", "193201.709000", "193201.712000", "193201.715000", "193201.718000", "193201.721000", "193201.724000", "193201.727000", "193201.730000", "193201.733000", "193201.736000", "193201.738000", "193201.741000", "193201.744000", "193201.747000", "193201.750000", "193241.662000", "193241.665000", "193241.668000", "193241.671000", "193241.674000", "193241.677000", "193241.680000", "193241.683000", "193241.686000", "193241.689000", "193241.692000", "193241.695000", "193241.697000", "193241.700000", "193241.703000", "193241.706000", "193241.709000", "193241.712000", "193241.715000", "193241.718000", "193241.721000", "193241.724000", "193241.727000", "193241.730000", "193241.733000", "193241.736000", "193241.739000", "193321.662000", "193321.665000", "193321.674000", "193321.677000", "193321.680000", "193321.683000", "193321.686000", "193321.689000", "193321.692000", "193321.694000", "193321.698000", "193321.700000", "193321.703000", "193321.706000", "193321.709000", "193321.712000", "193321.715000", "193321.718000", "193321.721000", "193321.724000", "193321.727000", "193321.730000", "193321.733000", "193321.736000", "193321.739000", "193321.741000", "193321.745000", "193401.662000", "193401.665000", "193401.668000", "193401.671000", "193401.674000", "193401.677000", "193401.680000", "193401.683000", "193401.686000", "193401.689000", "193401.692000", "193401.695000", "193401.698000", "193401.701000", "193401.704000", "193401.706000", "193401.709000", "193401.713000", "193401.715000", "193401.718000", "193401.721000", "193401.724000", "193401.727000", "193401.730000", "193401.733000", "193401.736000", "193401.739000", "193441.662000", "193441.665000", "193441.668000", "193441.671000", "193441.674000", "193441.677000", "193441.680000", "193441.683000", "193441.686000", "193441.689000", "193441.692000", "193441.695000", "193441.698000", "193441.701000", "193441.704000", "193441.707000", "193441.710000", "193441.713000", "193441.716000", "193441.719000", "193441.722000", "193441.725000", "193441.728000", "193441.730000", "193441.733000", "193441.736000", "193521.662000", "193521.665000", "193521.668000", "193521.671000", "193521.674000", "193521.677000", "193521.680000", "193521.683000", "193521.686000", "193521.688000", "193521.692000", "193521.694000", "193521.697000", "193521.700000", "193521.703000", "193521.706000", "193521.709000", "193521.712000", "193521.715000", "193521.718000", "193521.721000", "193521.724000", "193521.727000", "193521.730000", "193521.732000", "193521.735000", "193521.738000", "193601.662000", "193601.665000", "193601.668000", "193601.671000", "193601.674000", "193601.677000", "193601.680000", "193601.683000", "193601.686000", "193601.689000", "193601.692000", "193601.694000", "193601.697000", "193601.701000", "193601.703000", "193601.706000", "193601.709000", "193601.712000", "193601.715000", "193601.718000", "193601.721000", "193601.724000", "193601.727000", "193601.730000", "193601.733000", "193601.736000", "193601.760000", "193641.662000", "193641.665000", "193641.668000", "193641.671000", "193641.674000", "193641.677000", "193641.680000", "193641.683000", "193641.686000", "193641.689000", "193641.692000", "193641.694000", "193641.698000", "193641.701000", "193641.703000", "193641.706000", "193641.709000", "193641.712000", "193641.715000", "193641.718000", "193641.721000", "193641.724000", "193641.727000", "193641.730000", "193641.733000", "193641.736000", "193641.739000", "193721.662000", "193721.665000", "193721.668000", "193721.671000", "193721.674000", "193721.677000", "193721.680000", "193721.683000", "193721.686000", "193721.689000", "193721.692000", "193721.695000", "193721.698000", "193721.701000", "193721.703000", "193721.707000", "193721.710000", "193721.712000", "193721.715000", "193721.718000", "193721.721000", "193721.724000", "193721.727000", "193721.730000", "193721.733000", "193721.736000", "193721.739000", "193752.421000", "193752.424000", "193752.427000", "193752.430000", "193752.433000", "193752.436000", "193752.439000", "193752.442000", "193752.445000", "193752.448000", "193752.451000", "193752.454000", "193752.457000", "193752.460000", "193752.463000", "193752.466000", "193752.469000", "193752.472000", "193752.476000", "193752.479000", "193752.482000"],
