{
  "AcquisitionMatrixPE": 104,
  "AcquisitionNumber": 1,
  "AcquisitionTime": "11:34:36.075000",
  "BandwidthPerPixelPhaseEncode": 17.17,
  "BaseResolution": 104,
  "BodyPartExamined": "BRAIN",
  "CoilCombinationMethod": "Sum of Squares",
  "ConsistencyInfo": "N4_VE11C_LATEST_20160120",
  "ConversionSoftware": "dcm2niix",
  "ConversionSoftwareVersion": "v1.0.20230411",
  "DerivedVendorReportedEchoSpacing": 0.000560011,
  "DeviceSerialNumber": "167006",
  "DwellTime": 2.1e-06,
  "EchoTime": 0.037,
  "EchoTrainLength": 104,
  "EffectiveEchoSpacing": 0.000560011,
  "FlipAngle": 52,
  "HeudiconvVersion": "0.5.3.post861+ge7d3c7f",
  "ImageComments": "Unaliased MB4/PE3/LB",
  "ImageOrientationPatientDICOM": [0.999524, 0.0190209, -0.0242893, -0.0294906, 0.820279, -0.571202],
  "ImageOrientationText": "Tra>Cor(-34.9)>Sag(-0.5)",
  "ImageType": [
    "ORIGINAL",
    "PRIMARY",
    "M",
    "MB",
    "ND",
    "MOSAIC"
],
  "ImagingFrequency": 123.24956,
  "InPlanePhaseEncodingDirectionDICOM": "COL",
  "InstitutionAddress": "Chemin Queen-Mary 4565,Montreal,District,CA,H3W 1W5",
  "InstitutionName": "IUGM",
  "InstitutionalDepartmentName": "Department",
  "MRAcquisitionType": "2D",
  "MagneticFieldStrength": 3,
  "Manufacturer": "Siemens",
  "ManufacturersModelName": "Prisma_fit",
  "MatrixCoilMode": "SENSE",
  "Modality": "MR",
  "MultibandAccelerationFactor": 4,
  "NonlinearGradientCorrection": false,
  "PartialFourier": 1,
  "PatientPosition": "HFS",
  "PercentPhaseFOV": 100,
  "PercentSampling": 100,
  "PhaseEncodingDirection": "j",
  "PhaseEncodingSteps": 104,
  "PhaseResolution": 1,
  "PixelBandwidth": 2290,
  "ProcedureStepDescription": "video^friends",
  "ProtocolName": "func_task-friends-s07e16b",
  "PulseSequenceDetails": "%CustomerSeq%\\cmrr_mbep2d_bold",
  "ReceiveCoilActiveElements": "HC1-7;NC1,2",
  "ReceiveCoilName": "HeadNeck_64",
  "ReconMatrixPE": 104,
  "RepetitionTime": 1.49,
  "SAR": 0.0606874,
  "ScanOptions": "FS",
  "ScanningSequence": "EP",
  "SequenceName": "epfid2d1_104",
  "SequenceVariant": "SK\\SS",
  "SeriesDescription": "func_task-friends-s07e16b",
  "SeriesNumber": 12,
  "ShimSetting": [587, -7225, -8833, 276, 67, -248, -125, 59],
  "SliceThickness": 2,
  "SliceTiming": [0, 0.7825, 0.0975, 0.88, 0.195, 0.98, 0.2925, 1.0775, 0.39, 1.175, 0.49, 1.2725, 0.5875, 1.37, 0.685, 0, 0.7825, 0.0975, 0.88, 0.195, 0.98, 0.2925, 1.0775, 0.39, 1.175, 0.49, 1.2725, 0.5875, 1.37, 0.685, 0, 0.7825, 0.0975, 0.88, 0.195, 0.98, 0.2925, 1.0775, 0.39, 1.175, 0.49, 1.2725, 0.5875, 1.37, 0.685, 0, 0.7825, 0.0975, 0.88, 0.195, 0.98, 0.2925, 1.0775, 0.39, 1.175, 0.49, 1.2725, 0.5875, 1.37, 0.685],
  "SoftwareVersions": "syngo MR E11",
  "SpacingBetweenSlices": 2,
  "StationName": "MRC35049",
  "TaskName": "s07e16b",
  "TotalReadoutTime": 0.0576811,
  "TxRefAmp": 284.414,
  "WipMemBlock": "97f33cbe-a716-4f2f-a828-1fe2ad46d4ea||Sequence: R017 ve11c/master r/75a17815+; Jun 28 2022 16:32:11 by eja",
  "dcmmeta_affine": [
    [-1.9990479946136475, -0.05898111313581467, -0.018118463456630707, 106.1081771850586],
    [-0.038041744381189346, 1.6405588388442993, -1.1432932615280151, -50.00696563720703],
    [-0.04857856035232544, 1.1424044370651245, 1.6408997774124146, -80.81834411621094],
    [0.0, 0.0, 0.0, 1.0]
],
  "dcmmeta_reorient_transform": [
    [0.0, -1.0, 0.0, 103.0],
    [1.0, 0.0, 0.0, 0.0],
    [0.0, 0.0, 1.0, 0.0],
    [0.0, 0.0, 0.0, 1.0]
],
  "dcmmeta_shape": [104, 104, 60, 402],
  "dcmmeta_slice_dim": 2,
  "dcmmeta_version": 0.6,
  "global": {
    "const": {
      "AcquisitionMatrix": [104, 0, 0, 104],
      "AngioFlag": "N",
      "BitsAllocated": 16,
      "BitsStored": 16,
      "BodyPartExamined": "BRAIN",
      "Columns": 832,
      "EchoNumbers": 1,
      "EchoTime": 37.0,
      "EchoTrainLength": 104,
      "FlipAngle": 52.0,
      "HighBit": 15,
      "ImageOrientationPatient": [0.99952400538921, 0.01902087127805, -0.0242892796626, -0.0294905573635, 0.82027940698547, -0.5712022422067],
      "ImagePositionPatient": [-806.21746985395, -729.98119638341, 470.36714764177],
      "ImageType": [
        "ORIGINAL",
        "PRIMARY",
        "M",
        "MB",
        "ND",
        "MOSAIC"
],
      "ImagedNucleus": "1H",
      "ImagingFrequency": 123.24956,
      "InPlanePhaseEncodingDirection": "COL",
      "MRAcquisitionType": "2D",
      "MagneticFieldStrength": 3.0,
      "Manufacturer": "SIEMENS",
      "ManufacturerModelName": "Prisma_fit",
      "Modality": "MR",
      "NumberOfAverages": 1.0,
      "NumberOfPhaseEncodingSteps": 104,
      "PercentPhaseFieldOfView": 100.0,
      "PercentSampling": 100.0,
      "PerformedProcedureStepStartTime": "111847.935000",
      "PhotometricInterpretation": "MONOCHROME2",
      "PixelBandwidth": 2290.0,
      "PixelRepresentation": 0,
      "PixelSpacing": [2.0, 2.0],
      "ProtocolName": "func_task-friends-s07e16b",
      "RepetitionTime": 1490.0,
      "Rows": 832,
      "SAR": 0.06068741424417,
      "SamplesPerPixel": 1,
      "ScanOptions": "FS",
      "ScanningSequence": "EP",
      "SequenceName": "epfid2d1_104",
      "SequenceVariant": [
        "SK",
        "SS"
],
      "SeriesDescription": "func_task-friends-s07e16b",
      "SeriesNumber": 12,
      "SeriesTime": "113551.375000",
      "SliceLocation": -38.682345001397,
      "SliceThickness": 2.0,
      "SmallestImagePixelValue": 0,
      "SoftwareVersions": "syngo MR E11",
      "SpacingBetweenSlices": 1.9999999650555,
      "SpecificCharacterSet": "ISO_IR 100",
      "StudyID": "1",
      "StudyTime": "111847.854000",
      "TransmitCoilName": "Body",
      "VariableFlipAngleFlag": "N",
      "WindowCenterWidthExplanation": "Algo1",
      "dBdt": 0.0},
    "slices": {}
  },
  "time": {
    "samples": {
      "AcquisitionNumber": [1, 2, 3, 4, 5, 6, 7, 8, 9, 10, 11, 12, 13, 14, 15, 16, 17, 18, 19, 20, 21, 22, 23, 24, 25, 26, 27, 28, 29, 30, 31, 32, 33, 34, 35, 36, 37, 38, 39, 40, 41, 42, 43, 44, 45, 46, 47, 48, 49, 50, 51, 52, 53, 54, 55, 56, 57, 58, 59, 60, 61, 62, 63, 64, 65, 66, 67, 68, 69, 70, 71, 72, 73, 74, 75, 76, 77, 78, 79, 80, 81, 82, 83, 84, 85, 86, 87, 88, 89, 90, 91, 92, 93, 94, 95, 96, 97, 98, 99, 100, 101, 102, 103, 104, 105, 106, 107, 108, 109, 110, 111, 112, 113, 114, 115, 116, 117, 118, 119, 120, 121, 122, 123, 124, 125, 126, 127, 128, 129, 130, 131, 132, 133, 134, 135, 136, 137, 138, 139, 140, 141, 142, 143, 144, 145, 146, 147, 148, 149, 150, 151, 152, 153, 154, 155, 156, 157, 158, 159, 160, 161, 162, 163, 164, 165, 166, 167, 168, 169, 170, 171, 172, 173, 174, 175, 176, 177, 178, 179, 180, 181, 182, 183, 184, 185, 186, 187, 188, 189, 190, 191, 192, 193, 194, 195, 196, 197, 198, 199, 200, 201, 202, 203, 204, 205, 206, 207, 208, 209, 210, 211, 212, 213, 214, 215, 216, 217, 218, 219, 220, 221, 222, 223, 224, 225, 226, 227, 228, 229, 230, 231, 232, 233, 234, 235, 236, 237, 238, 239, 240, 241, 242, 243, 244, 245, 246, 247, 248, 249, 250, 251, 252, 253, 254, 255, 256, 257, 258, 259, 260, 261, 262, 263, 264, 265, 266, 267, 268, 269, 270, 271, 272, 273, 274, 275, 276, 277, 278, 279, 280, 281, 282, 283, 284, 285, 286, 287, 288, 289, 290, 291, 292, 293, 294, 295, 296, 297, 298, 299, 300, 301, 302, 303, 304, 305, 306, 307, 308, 309, 310, 311, 312, 313, 314, 315, 316, 317, 318, 319, 320, 321, 322, 323, 324, 325, 326, 327, 328, 329, 330, 331, 332, 333, 334, 335, 336, 337, 338, 339, 340, 341, 342, 343, 344, 345, 346, 347, 348, 349, 350, 351, 352, 353, 354, 355, 356, 357, 358, 359, 360, 361, 362, 363, 364, 365, 366, 367, 368, 369, 370, 371, 372, 373, 374, 375, 376, 377, 378, 379, 380, 381, 382, 383, 384, 385, 386, 387, 388, 389, 390, 391, 392, 393, 394, 395, 396, 397, 398, 399, 400, 401, 402],
      "AcquisitionTime": ["113436.075000", "113437.565000", "113439.055000", "113440.545000", "113442.035000", "113443.525000", "113445.015000", "113446.505000", "113447.995000", "113449.485000", "113450.975000", "113452.465000", "113453.955000", "113455.445000", "113456.935000", "113458.425000", "113459.915000", "113501.405000", "113502.895000", "113504.385000", "113505.875000", "113507.365000", "113508.855000", "113510.345000", "113511.835000", "113513.325000", "113514.815000", "113516.305000", "113517.795000", "113519.285000", "113520.775000", "113522.265000", "113523.755000", "113525.245000", "113526.735000", "113528.225000", "113529.715000", "113531.205000", "113532.695000", "113534.185000", "113535.675000", "113537.165000", "113538.655000", "113540.145000", "113541.635000", "113543.125000", "113544.615000", "113546.105000", "113547.595000", "113549.085000", "113550.575000", "113552.065000", "113553.555000", "113555.045000", "113556.535000", "113558.025000", "113559.515000", "113601.005000", "113602.495000", "113603.985000", "113605.475000", "113606.965000", "113608.455000", "113609.945000", "113611.435000", "113612.925000", "113614.415000", "113615.905000", "113617.395000", "113618.885000", "113620.375000", "113621.865000", "113623.355000", "113624.845000", "113626.335000", "113627.825000", "113629.315000", "113630.805000", "113632.295000", "113633.785000", "113635.275000", "113636.765000", "113638.255000", "113639.745000", "113641.235000", "113642.725000", "113644.215000", "113645.705000", "113647.195000", "113648.685000", "113650.175000", "113651.665000", "113653.155000", "113654.645000", "113656.135000", "113657.625000", "113659.115000", "113700.605000", "113702.095000", "113703.585000", "113705.075000", "113706.565000", "113708.055000", "113709.545000", "113711.035000", "113712.525000", "113714.015000", "113715.505000", "113716.995000", "113718.485000", "113719.975000", "113721.465000", "113722.955000", "113724.445000", "113725.935000", "113727.425000", "113728.915000", "113730.405000", "113731.895000", "113733.385000", "113734.875000", "113736.365000", "113737.855000", "113739.345000", "113740.835000", "113742.325000", "113743.815000", "113745.305000", "113746.795000", "113748.285000", "113749.775000", "113751.265000", "113752.755000", "113754.245000", "113755.735000", "113757.225000", "113758.715000", "113800.205000", "113801.695000", "113803.185000", "113804.675000", "113806.165000", "113807.655000", "113809.145000", "113810.635000", "113812.125000", "113813.615000", "113815.105000", "113816.595000", "113818.085000", "113819.575000", "113821.065000", "113822.555000", "113824.045000", "113825.535000", "113827.025000", "113828.515000", "113830.005000", "113831.495000", "113832.985000", "113834.475000", "113835.965000", "113837.455000", "113838.945000", "113840.435000", "113841.925000", "113843.415000", "113844.905000", "113846.395000", "113847.885000", "113849.375000", "113850.865000", "113852.355000", "113853.845000", "113855.335000", "113856.825000", "113858.315000", "113859.805000", "113901.295000", "113902.785000", "113904.275000", "113905.765000", "113907.255000", "113908.745000", "113910.235000", "113911.725000", "113913.215000", "113914.705000", "113916.195000", "113917.685000", "113919.175000", "113920.665000", "113922.155000", "113923.645000", "113925.135000", "113926.625000", "113928.115000", "113929.605000", "113931.095000", "113932.585000", "113934.075000", "113935.565000", "113937.055000", "113938.545000", "113940.035000", "113941.525000", "113943.015000", "113944.505000", "113945.995000", "113947.485000", "113948.975000", "113950.465000", "113951.955000", "113953.445000", "113954.935000", "113956.425000", "113957.915000", "113959.405000", "114000.895000", "114002.385000", "114003.875000", "114005.365000", "114006.855000", "114008.345000", "114009.835000", "114011.325000", "114012.815000", "114014.305000", "114015.795000", "114017.285000", "114018.775000", "114020.265000", "114021.755000", "114023.245000", "114024.735000", "114026.225000", "114027.715000", "114029.205000", "114030.695000", "114032.185000", "114033.675000", "114035.165000", "114036.655000", "114038.145000", "114039.635000", "114041.125000", "114042.615000", "114044.105000", "114045.595000", "114047.085000", "114048.575000", "114050.065000", "114051.555000", "114053.045000", "114054.535000", "114056.025000", "114057.515000", "114059.005000", "114100.495000", "114101.985000", "114103.475000", "114104.965000", "114106.455000", "114107.945000", "114109.435000", "114110.925000", "114112.415000", "114113.905000", "114115.395000", "114116.885000", "114118.375000", "114119.865000", "114121.355000", "114122.845000", "114124.335000", "114125.825000", "114127.315000", "114128.805000", "114130.295000", "114131.785000", "114133.275000", "114134.765000", "114136.255000", "114137.745000", "114139.235000", "114140.725000", "114142.215000", "114143.705000", "114145.195000", "114146.685000", "114148.175000", "114149.665000", "114151.155000", "114152.645000", "114154.135000", "114155.625000", "114157.115000", "114158.605000", "114200.095000", "114201.585000", "114203.075000", "114204.565000", "114206.055000", "114207.545000", "114209.035000", "114210.525000", "114212.015000", "114213.505000", "114214.995000", "114216.485000", "114217.975000", "114219.465000", "114220.955000", "114222.445000", "114223.935000", "114225.425000", "114226.915000", "114228.405000", "114229.895000", "114231.385000", "114232.875000", "114234.365000", "114235.855000", "114237.345000", "114238.835000", "114240.325000", "114241.815000", "114243.305000", "114244.795000", "114246.285000", "114247.775000", "114249.265000", "114250.755000", "114252.245000", "114253.735000", "114255.225000", "114256.715000", "114258.205000", "114259.695000", "114301.185000", "114302.675000", "114304.165000", "114305.655000", "114307.145000", "114308.635000", "114310.125000", "114311.615000", "114313.105000", "114314.595000", "114316.085000", "114317.575000", "114319.065000", "114320.555000", "114322.045000", "114323.535000", "114325.025000", "114326.515000", "114328.005000", "114329.495000", "114330.985000", "114332.475000", "114333.965000", "114335.455000", "114336.945000", "114338.435000", "114339.925000", "114341.415000", "114342.905000", "114344.395000", "114345.885000", "114347.375000", "114348.865000", "114350.355000", "114351.845000", "114353.335000", "114354.825000", "114356.315000", "114357.805000", "114359.295000", "114400.785000", "114402.275000", "114403.765000", "114405.255000", "114406.745000", "114408.235000", "114409.725000", "114411.215000", "114412.705000", "114414.195000", "114415.685000", "114417.175000", "114418.665000", "114420.155000", "114421.645000", "114423.135000", "114424.625000", "114426.115000", "114427.605000", "114429.095000", "114430.585000", "114432.075000", "114433.565000"],
      "ContentTime": ["113551.377000", "113551.381000", "113551.384000", "113551.387000", "113551.390000", "113551.392000", "113551.395000", "113551.398000", "113551.401000", "113551.404000", "113551.407000", "113551.410000", "113551.413000", "113551.416000", "113551.419000", "113551.422000", "113551.425000", "113551.428000", "113551.431000", "113551.434000", "113551.437000", "113551.440000", "113611.336000", "113611.339000", "113611.342000", "113611.345000", "113611.348000", "113611.351000", "113611.354000", "113611.358000", "113611.360000", "113611.363000", "113611.366000", "113611.369000", "113611.372000", "113611.375000", "113611.378000", "113611.381000", "113611.384000", "113611.387000", "113611.390000", "113611.393000", "113611.395000", "113631.336000", "113631.339000", "113631.342000", "113631.345000", "113631.348000", "113631.351000", "113631.354000", "113631.357000", "113631.359000", "113631.362000", "113631.365000", "113631.368000", "113631.371000", "113631.374000", "113631.377000", "113631.380000", "113631.383000", "113631.386000", "113631.388000", "113631.391000", "113651.336000", "113651.339000", "113651.349000", "113651.352000", "113651.355000", "113651.358000", "113651.361000", "113651.364000", "113651.367000", "113651.370000", "113651.373000", "113651.376000", "113651.379000", "113651.382000", "113651.385000", "113651.388000", "113651.390000", "113651.393000", "113651.396000", "113651.399000", "113731.336000", "113731.339000", "113731.342000", "113731.345000", "113731.348000", "113731.351000", "113731.353000", "113731.356000", "113731.359000", "113731.362000", "113731.365000", "113731.368000", "113731.371000", "113731.374000", "113731.377000", "113731.380000", "113731.383000", "113731.386000", "113731.389000", "113731.392000", "113731.395000", "113731.397000", "113731.400000", "113731.403000", "113731.406000", "113731.409000", "113731.412000", "113731.415000", "113731.426000", "113731.429000", "113731.432000", "113811.336000", "113811.339000", "113811.350000", "113811.353000", "113811.356000", "113811.359000", "113811.362000", "113811.365000", "113811.368000", "113811.371000", "113811.374000", "113811.377000", "113811.380000", "113811.383000", "113811.386000", "113811.389000", "113811.391000", "113811.394000", "113811.397000", "113811.401000", "113811.404000", "113811.407000", "113811.410000", "113811.413000", "113811.415000", "113811.418000", "113851.336000", "113851.339000", "113851.342000", "113851.345000", "113851.348000", "113851.351000", "113851.354000", "113851.357000", "113851.360000", "113851.363000", "113851.366000", "113851.368000", "113851.371000", "113851.374000", "113851.377000", "113851.380000", "113851.383000", "113851.386000", "113851.389000", "113851.392000", "113851.395000", "113851.398000", "113851.401000", "113851.404000", "113851.406000", "113851.409000", "113851.412000", "113931.336000", "113931.339000", "113931.342000", "113931.345000", "113931.348000", "113931.351000", "113931.354000", "113931.357000", "113931.360000", "113931.363000", "113931.366000", "113931.369000", "113931.372000", "113931.375000", "113931.378000", "113931.381000", "113931.384000", "113931.387000", "113931.390000", "113931.393000", "113931.396000", "113931.399000", "113931.402000", "113931.404000", "113931.408000", "113931.410000", "113931.413000", "114011.336000", "114011.339000", "114011.342000", "114011.345000", "114011.348000", "114011.351000", "114011.354000", "114011.357000", "114011.360000", "114011.363000", "114011.365000", "114011.369000", "114011.371000", "114011.374000", "114011.377000", "114011.380000", "114011.383000", "114011.386000", "114011.389000", "114011.392000", "114011.395000", "114011.398000", "114011.401000", "114011.404000", "114011.406000", "114011.409000", "114011.412000", "114051.336000", "114051.339000", "114051.342000", "114051.345000", "114051.348000", "114051.351000", "114051.354000", "114051.357000", "114051.360000", "114051.362000", "114051.365000", "114051.368000", "114051.371000", "114051.374000", "114051.377000", "114051.380000", "114051.383000", "114051.386000", "114051.389000", "114051.392000", "114051.395000", "114051.397000", "114051.401000", "114051.403000", "114051.406000", "114051.409000", "114051.412000", "114111.336000", "114111.339000", "114111.342000", "114111.345000", "114111.348000", "114111.351000", "114111.354000", "114111.357000", "114111.360000", "114111.363000", "114111.366000", "114111.369000", "114111.372000", "114151.336000", "114151.339000", "114151.342000", "114151.345000", "114151.348000", "114151.351000", "114151.369000", "114151.372000", "114151.375000", "114151.378000", "114151.381000", "114151.384000", "114151.386000", "114151.389000", "114151.392000", "114151.395000", "114151.398000", "114151.401000", "114151.404000", "114151.407000", "114151.410000", "114151.413000", "114151.416000", "114151.419000", "114151.422000", "114151.424000", "114151.427000", "114231.336000", "114231.339000", "114231.342000", "114231.345000", "114231.348000", "114231.351000", "114231.354000", "114231.357000", "114231.360000", "114231.363000", "114231.366000", "114231.369000", "114231.372000", "114231.375000", "114231.378000", "114231.380000", "114231.383000", "114231.386000", "114231.389000", "114231.392000", "114231.395000", "114231.398000", "114231.401000", "114231.404000", "114231.407000", "114231.410000", "114231.413000", "114311.336000", "114311.339000", "114311.342000", "114311.345000", "114311.348000", "114311.351000", "114311.354000", "114311.357000", "114311.360000", "114311.363000", "114311.366000", "114311.369000", "114311.372000", "114311.375000", "114311.377000", "114311.380000", "114311.384000", "114311.386000", "114311.389000", "114311.392000", "114311.395000", "114311.398000", "114311.401000", "114311.404000", "114311.407000", "114311.410000", "114311.413000", "114351.336000", "114351.339000", "114351.342000", "114351.345000", "114351.348000", "114351.351000", "114351.354000", "114351.357000", "114351.360000", "114351.363000", "114351.366000", "114351.369000", "114351.372000", "114351.374000", "114351.377000", "114351.380000", "114351.383000", "114351.386000", "114351.389000", "114351.392000", "114351.395000", "114351.398000", "114351.401000", "114351.404000", "114351.407000", "114351.410000", "114351.412000", "114431.336000", "114431.339000", "114431.342000", "114431.345000", "114431.348000", "114431.351000", "114431.354000", "114431.357000", "114431.360000", "114431.363000", "114431.366000", "114431.369000", "114431.372000", "114431.375000", "114431.378000", "114431.381000", "114431.384000", "114431.386000", "114431.389000", "114431.392000", "114431.395000", "114431.398000", "114431.401000", "114431.404000", "114431.407000", "114431.410000", "114440.426000", "114440.430000", "114440.432000", "114440.435000", "114440.438000", "114440.441000", "114440.444000"],
      "InstanceCreationTime": ["113551.377000", "113551.381000", "113551.384000", "113551.387000", "113551.390000", "113551.392000", "113551.395000", "113551.398000", "113551.401000", "113551.404000", "113551.407000", "113551.410000", "113551.413000", "113551.416000", "113551.419000", "113551.422000", "113551.425000", "113551.428000", "113551.431000", "113551.434000", "113551.437000", "113551.440000", "113611.336000", "113611.339000", "113611.342000", "113611.345000", "113611.348000", "113611.351000", "113611.354000", "113611.358000", "113611.360000", "113611.363000", "113611.366000", "113611.369000", "113611.372000", "113611.375000", "113611.378000", "113611.381000", "113611.384000", "113611.387000", "113611.390000", "113611.393000", "113611.395000", "113631.336000", "113631.339000", "113631.342000", "113631.345000", "113631.348000", "113631.351000", "113631.354000", "113631.357000", "113631.359000", "113631.362000", "113631.365000", "113631.368000", "113631.371000", "113631.374000", "113631.377000", "113631.380000", "113631.383000", "113631.386000", "113631.388000", "113631.391000", "113651.336000", "113651.339000", "113651.349000", "113651.352000", "113651.355000", "113651.358000", "113651.361000", "113651.364000", "113651.367000", "113651.370000", "113651.373000", "113651.376000", "113651.379000", "113651.382000", "113651.385000", "113651.388000", "113651.390000", "113651.393000", "113651.396000", "113651.399000", "113731.336000", "113731.339000", "113731.342000", "113731.345000", "113731.348000", "113731.351000", "113731.353000", "113731.356000", "113731.359000", "113731.362000", "113731.365000", "113731.368000", "113731.371000", "113731.374000", "113731.377000", "113731.380000", "113731.383000", "113731.386000", "113731.389000", "113731.392000", "113731.395000", "113731.397000", "113731.400000", "113731.403000", "113731.406000", "113731.409000", "113731.412000", "113731.415000", "113731.426000", "113731.429000", "113731.432000", "113811.336000", "113811.339000", "113811.350000", "113811.353000", "113811.356000", "113811.359000", "113811.362000", "113811.365000", "113811.368000", "113811.371000", "113811.374000", "113811.377000", "113811.380000", "113811.383000", "113811.386000", "113811.389000", "113811.391000", "113811.394000", "113811.397000", "113811.401000", "113811.404000", "113811.407000", "113811.410000", "113811.413000", "113811.415000", "113811.418000", "113851.336000", "113851.339000", "113851.342000", "113851.345000", "113851.348000", "113851.351000", "113851.354000", "113851.357000", "113851.360000", "113851.363000", "113851.366000", "113851.368000", "113851.371000", "113851.374000", "113851.377000", "113851.380000", "113851.383000", "113851.386000", "113851.389000", "113851.392000", "113851.395000", "113851.398000", "113851.401000", "113851.404000", "113851.406000", "113851.409000", "113851.412000", "113931.336000", "113931.339000", "113931.342000", "113931.345000", "113931.348000", "113931.351000", "113931.354000", "113931.357000", "113931.360000", "113931.363000", "113931.366000", "113931.369000", "113931.372000", "113931.375000", "113931.378000", "113931.381000", "113931.384000", "113931.387000", "113931.390000", "113931.393000", "113931.396000", "113931.399000", "113931.402000", "113931.404000", "113931.408000", "113931.410000", "113931.413000", "114011.336000", "114011.339000", "114011.342000", "114011.345000", "114011.348000", "114011.351000", "114011.354000", "114011.357000", "114011.360000", "114011.363000", "114011.365000", "114011.369000", "114011.371000", "114011.374000", "114011.377000", "114011.380000", "114011.383000", "114011.386000", "114011.389000", "114011.392000", "114011.395000", "114011.398000", "114011.401000", "114011.404000", "114011.406000", "114011.409000", "114011.412000", "114051.336000", "114051.339000", "114051.342000", "114051.345000", "114051.348000", "114051.351000", "114051.354000", "114051.357000", "114051.360000", "114051.362000", "114051.365000", "114051.368000", "114051.371000", "114051.374000", "114051.377000", "114051.380000", "114051.383000", "114051.386000", "114051.389000", "114051.392000", "114051.395000", "114051.397000", "114051.401000", "114051.403000", "114051.406000", "114051.409000", "114051.412000", "114111.336000", "114111.339000", "114111.342000", "114111.345000", "114111.348000", "114111.351000", "114111.354000", "114111.357000", "114111.360000", "114111.363000", "114111.366000", "114111.369000", "114111.372000", "114151.336000", "114151.339000", "114151.342000", "114151.345000", "114151.348000", "114151.351000", "114151.369000", "114151.372000", "114151.375000", "114151.378000", "114151.381000", "114151.384000", "114151.386000", "114151.389000", "114151.392000", "114151.395000", "114151.398000", "114151.401000", "114151.404000", "114151.407000", "114151.410000", "114151.413000", "114151.416000", "114151.419000", "114151.422000", "114151.424000", "114151.427000", "114231.336000", "114231.339000", "114231.342000", "114231.345000", "114231.348000", "114231.351000", "114231.354000", "114231.357000", "114231.360000", "114231.363000", "114231.366000", "114231.369000", "114231.372000", "114231.375000", "114231.378000", "114231.380000", "114231.383000", "114231.386000", "114231.389000", "114231.392000", "114231.395000", "114231.398000", "114231.401000", "114231.404000", "114231.407000", "114231.410000", "114231.413000", "114311.336000", "114311.339000", "114311.342000", "114311.345000", "114311.348000", "114311.351000", "114311.354000", "114311.357000", "114311.360000", "114311.363000", "114311.366000", "114311.369000", "114311.372000", "114311.375000", "114311.377000", "114311.380000", "114311.384000", "114311.386000", "114311.389000", "114311.392000", "114311.395000", "114311.398000", "114311.401000", "114311.404000", "114311.407000", "114311.410000", "114311.413000", "114351.336000", "114351.339000", "114351.342000", "114351.345000", "114351.348000", "114351.351000", "114351.354000", "114351.357000", "114351.360000", "114351.363000", "114351.366000", "114351.369000", "114351.372000", "114351.374000", "114351.377000", "114351.380000", "114351.383000", "114351.386000", "114351.389000", "114351.392000", "114351.395000", "114351.398000", "114351.401000", "114351.404000", "114351.407000", "114351.410000", "114351.412000", "114431.336000", "114431.339000", "114431.342000", "114431.345000", "114431.348000", "114431.351000", "114431.354000", "114431.357000", "114431.360000", "114431.363000", "114431.366000", "114431.369000", "114431.372000", "114431.375000", "114431.378000", "114431.381000", "114431.384000", "114431.386000", "114431.389000", "114431.392000", "114431.395000", "114431.398000", "114431.401000", "114431.404000", "114431.407000", "114431.410000", "114440.426000", "114440.430000", "114440.432000", "114440.435000", "114440.438000", "114440.441000", "114440.444000"],
