{
  "AcquisitionMatrixPE": 104,
  "AcquisitionNumber": 1,
  "AcquisitionTime": "11:46:17.772500",
  "BandwidthPerPixelPhaseEncode": 17.17,
  "BaseResolution": 104,
  "BodyPartExamined": "BRAIN",
  "CoilCombinationMethod": "Sum of Squares",
  "ConsistencyInfo": "N4_VE11C_LATEST_20160120",
  "ConversionSoftware": "dcm2niix",
  "ConversionSoftwareVersion": "v1.0.20230411",
  "DerivedVendorReportedEchoSpacing": 0.000560011,
  "DeviceSerialNumber": "167006",
  "DwellTime": 2.1e-06,
  "EchoTime": 0.037,
  "EchoTrainLength": 104,
  "EffectiveEchoSpacing": 0.000560011,
  "FlipAngle": 52,
  "HeudiconvVersion": "0.5.3.post861+ge7d3c7f",
  "ImageComments": "Unaliased MB4/PE3/LB",
  "ImageOrientationPatientDICOM": [0.999524, 0.0190209, -0.0242893, -0.0294906, 0.820279, -0.571202],
  "ImageOrientationText": "Tra>Cor(-34.9)>Sag(-0.5)",
  "ImageType": [
    "ORIGINAL",
    "PRIMARY",
    "M",
    "MB",
    "ND",
    "MOSAIC"
],
  "ImagingFrequency": 123.249563,
  "InPlanePhaseEncodingDirectionDICOM": "COL",
  "InstitutionAddress": "Chemin Queen-Mary 4565,Montreal,District,CA,H3W 1W5",
  "InstitutionName": "IUGM",
  "InstitutionalDepartmentName": "Department",
  "MRAcquisitionType": "2D",
  "MagneticFieldStrength": 3,
  "Manufacturer": "Siemens",
  "ManufacturersModelName": "Prisma_fit",
  "MatrixCoilMode": "SENSE",
  "Modality": "MR",
  "MultibandAccelerationFactor": 4,
  "NonlinearGradientCorrection": false,
  "PartialFourier": 1,
  "PatientPosition": "HFS",
  "PercentPhaseFOV": 100,
  "PercentSampling": 100,
  "PhaseEncodingDirection": "j",
  "PhaseEncodingSteps": 104,
  "PhaseResolution": 1,
  "PixelBandwidth": 2290,
  "ProcedureStepDescription": "video^friends",
  "ProtocolName": "func_task-friends-s07e16c",
  "PulseSequenceDetails": "%CustomerSeq%\\cmrr_mbep2d_bold",
  "ReceiveCoilActiveElements": "HC1-7;NC1,2",
  "ReceiveCoilName": "HeadNeck_64",
  "ReconMatrixPE": 104,
  "RepetitionTime": 1.49,
  "SAR": 0.0606874,
  "ScanOptions": "FS",
  "ScanningSequence": "EP",
  "SequenceName": "epfid2d1_104",
  "SequenceVariant": "SK\\SS",
  "SeriesDescription": "func_task-friends-s07e16c",
  "SeriesNumber": 14,
  "ShimSetting": [587, -7225, -8833, 276, 67, -248, -125, 59],
  "SliceThickness": 2,
  "SliceTiming": [0, 0.785, 0.0975, 0.8825, 0.1975, 0.98, 0.295, 1.0775, 0.3925, 1.1775, 0.49, 1.275, 0.5875, 1.3725, 0.6875, 0, 0.785, 0.0975, 0.8825, 0.1975, 0.98, 0.295, 1.0775, 0.3925, 1.1775, 0.49, 1.275, 0.5875, 1.3725, 0.6875, 0, 0.785, 0.0975, 0.8825, 0.1975, 0.98, 0.295, 1.0775, 0.3925, 1.1775, 0.49, 1.275, 0.5875, 1.3725, 0.6875, 0, 0.785, 0.0975, 0.8825, 0.1975, 0.98, 0.295, 1.0775, 0.3925, 1.1775, 0.49, 1.275, 0.5875, 1.3725, 0.6875],
  "SoftwareVersions": "syngo MR E11",
  "SpacingBetweenSlices": 2,
  "StationName": "MRC35049",
  "TaskName": "s07e16c",
  "TotalReadoutTime": 0.0576811,
  "TxRefAmp": 284.414,
  "WipMemBlock": "3afc94ca-f9d8-495b-bd8d-698b6fd7816d||Sequence: R017 ve11c/master r/75a17815+; Jun 28 2022 16:32:11 by eja",
  "dcmmeta_affine": [
    [-1.9990479946136475, -0.05898111313581467, -0.018118463456630707, 106.1081771850586],
    [-0.038041744381189346, 1.6405588388442993, -1.1432932615280151, -50.00696563720703],
    [-0.04857856035232544, 1.1424044370651245, 1.6408997774124146, -80.81834411621094],
    [0.0, 0.0, 0.0, 1.0]
],
  "dcmmeta_reorient_transform": [
    [0.0, -1.0, 0.0, 103.0],
    [1.0, 0.0, 0.0, 0.0],
    [0.0, 0.0, 1.0, 0.0],
    [0.0, 0.0, 0.0, 1.0]
],
  "dcmmeta_shape": [104, 104, 60, 432],
  "dcmmeta_slice_dim": 2,
  "dcmmeta_version": 0.6,
  "global": {
    "const": {
      "AcquisitionMatrix": [104, 0, 0, 104],
      "AngioFlag": "N",
      "BitsAllocated": 16,
      "BitsStored": 16,
      "BodyPartExamined": "BRAIN",
      "Columns": 832,
      "EchoNumbers": 1,
      "EchoTime": 37.0,
      "EchoTrainLength": 104,
      "FlipAngle": 52.0,
      "HighBit": 15,
      "ImageOrientationPatient": [0.99952400538921, 0.01902087127805, -0.0242892796626, -0.0294905573635, 0.82027940698547, -0.5712022422067],
      "ImagePositionPatient": [-806.21746985395, -729.98119638341, 470.36714764177],
      "ImageType": [
        "ORIGINAL",
        "PRIMARY",
        "M",
        "MB",
        "ND",
        "MOSAIC"
],
      "ImagedNucleus": "1H",
      "ImagingFrequency": 123.249563,
      "InPlanePhaseEncodingDirection": "COL",
      "MRAcquisitionType": "2D",
      "MagneticFieldStrength": 3.0,
      "Manufacturer": "SIEMENS",
      "ManufacturerModelName": "Prisma_fit",
      "Modality": "MR",
      "NumberOfAverages": 1.0,
      "NumberOfPhaseEncodingSteps": 104,
      "PercentPhaseFieldOfView": 100.0,
      "PercentSampling": 100.0,
      "PerformedProcedureStepStartTime": "111847.935000",
      "PhotometricInterpretation": "MONOCHROME2",
      "PixelBandwidth": 2290.0,
      "PixelRepresentation": 0,
      "PixelSpacing": [2.0, 2.0],
      "ProtocolName": "func_task-friends-s07e16c",
      "RepetitionTime": 1490.0,
      "Rows": 832,
      "SAR": 0.06068741247234,
      "SamplesPerPixel": 1,
      "ScanOptions": "FS",
      "ScanningSequence": "EP",
      "SequenceName": "epfid2d1_104",
      "SequenceVariant": [
        "SK",
        "SS"
],
      "SeriesDescription": "func_task-friends-s07e16c",
      "SeriesNumber": 14,
      "SeriesTime": "114737.611000",
      "SliceLocation": -38.682345001397,
      "SliceThickness": 2.0,
      "SmallestImagePixelValue": 0,
      "SoftwareVersions": "syngo MR E11",
      "SpacingBetweenSlices": 1.9999999650555,
      "SpecificCharacterSet": "ISO_IR 100",
      "StudyID": "1",
      "StudyTime": "111847.854000",
      "TransmitCoilName": "Body",
      "VariableFlipAngleFlag": "N",
      "WindowCenterWidthExplanation": "Algo1",
      "dBdt": 0.0},
    "slices": {}
  },
  "time": {
    "samples": {
      "AcquisitionNumber": [1, 2, 3, 4, 5, 6, 7, 8, 9, 10, 11, 12, 13, 14, 15, 16, 17, 18, 19, 20, 21, 22, 23, 24, 25, 26, 27, 28, 29, 30, 31, 32, 33, 34, 35, 36, 37, 38, 39, 40, 41, 42, 43, 44, 45, 46, 47, 48, 49, 50, 51, 52, 53, 54, 55, 56, 57, 58, 59, 60, 61, 62, 63, 64, 65, 66, 67, 68, 69, 70, 71, 72, 73, 74, 75, 76, 77, 78, 79, 80, 81, 82, 83, 84, 85, 86, 87, 88, 89, 90, 91, 92, 93, 94, 95, 96, 97, 98, 99, 100, 101, 102, 103, 104, 105, 106, 107, 108, 109, 110, 111, 112, 113, 114, 115, 116, 117, 118, 119, 120, 121, 122, 123, 124, 125, 126, 127, 128, 129, 130, 131, 132, 133, 134, 135, 136, 137, 138, 139, 140, 141, 142, 143, 144, 145, 146, 147, 148, 149, 150, 151, 152, 153, 154, 155, 156, 157, 158, 159, 160, 161, 162, 163, 164, 165, 166, 167, 168, 169, 170, 171, 172, 173, 174, 175, 176, 177, 178, 179, 180, 181, 182, 183, 184, 185, 186, 187, 188, 189, 190, 191, 192, 193, 194, 195, 196, 197, 198, 199, 200, 201, 202, 203, 204, 205, 206, 207, 208, 209, 210, 211, 212, 213, 214, 215, 216, 217, 218, 219, 220, 221, 222, 223, 224, 225, 226, 227, 228, 229, 230, 231, 232, 233, 234, 235, 236, 237, 238, 239, 240, 241, 242, 243, 244, 245, 246, 247, 248, 249, 250, 251, 252, 253, 254, 255, 256, 257, 258, 259, 260, 261, 262, 263, 264, 265, 266, 267, 268, 269, 270, 271, 272, 273, 274, 275, 276, 277, 278, 279, 280, 281, 282, 283, 284, 285, 286, 287, 288, 289, 290, 291, 292, 293, 294, 295, 296, 297, 298, 299, 300, 301, 302, 303, 304, 305, 306, 307, 308, 309, 310, 311, 312, 313, 314, 315, 316, 317, 318, 319, 320, 321, 322, 323, 324, 325, 326, 327, 328, 329, 330, 331, 332, 333, 334, 335, 336, 337, 338, 339, 340, 341, 342, 343, 344, 345, 346, 347, 348, 349, 350, 351, 352, 353, 354, 355, 356, 357, 358, 359, 360, 361, 362, 363, 364, 365, 366, 367, 368, 369, 370, 371, 372, 373, 374, 375, 376, 377, 378, 379, 380, 381, 382, 383, 384, 385, 386, 387, 388, 389, 390, 391, 392, 393, 394, 395, 396, 397, 398, 399, 400, 401, 402, 403, 404, 405, 406, 407, 408, 409, 410, 411, 412, 413, 414, 415, 416, 417, 418, 419, 420, 421, 422, 423, 424, 425, 426, 427, 428, 429, 430, 431, 432],
      "AcquisitionTime": ["114617.772500", "114619.262500", "114620.752500", "114622.242500", "114623.732500", "114625.222500", "114626.712500", "114628.202500", "114629.692500", "114631.182500", "114632.672500", "114634.162500", "114635.652500", "114637.142500", "114638.632500", "114640.122500", "114641.612500", "114643.102500", "114644.592500", "114646.082500", "114647.572500", "114649.062500", "114650.552500", "114652.042500", "114653.532500", "114655.022500", "114656.512500", "114658.002500", "114659.492500", "114700.982500", "114702.472500", "114703.962500", "114705.452500", "114706.942500", "114708.432500", "114709.922500", "114711.412500", "114712.902500", "114714.392500", "114715.882500", "114717.372500", "114718.862500", "114720.352500", "114721.842500", "114723.332500", "114724.822500", "114726.312500", "114727.802500", "114729.292500", "114730.782500", "114732.272500", "114733.762500", "114735.252500", "114736.742500", "114738.232500", "114739.722500", "114741.212500", "114742.702500", "114744.192500", "114745.682500", "114747.172500", "114748.662500", "114750.152500", "114751.642500", "114753.132500", "114754.622500", "114756.112500", "114757.602500", "114759.092500", "114800.582500", "114802.072500", "114803.562500", "114805.052500", "114806.542500", "114808.032500", "114809.522500", "114811.012500", "114812.502500", "114813.992500", "114815.482500", "114816.972500", "114818.462500", "114819.952500", "114821.442500", "114822.932500", "114824.422500", "114825.912500", "114827.402500", "114828.892500", "114830.382500", "114831.872500", "114833.362500", "114834.852500", "114836.342500", "114837.832500", "114839.322500", "114840.812500", "114842.302500", "114843.792500", "114845.282500", "114846.772500", "114848.262500", "114849.752500", "114851.242500", "114852.732500", "114854.222500", "114855.712500", "114857.202500", "114858.692500", "114900.182500", "114901.672500", "114903.162500", "114904.652500", "114906.142500", "114907.632500", "114909.122500", "114910.612500", "114912.102500", "114913.592500", "114915.082500", "114916.572500", "114918.062500", "114919.552500", "114921.042500", "114922.532500", "114924.022500", "114925.512500", "114927.002500", "114928.492500", "114929.982500", "114931.472500", "114932.962500", "114934.452500", "114935.942500", "114937.432500", "114938.922500", "114940.412500", "114941.902500", "114943.392500", "114944.882500", "114946.372500", "114947.862500", "114949.352500", "114950.842500", "114952.332500", "114953.822500", "114955.312500", "114956.802500", "114958.292500", "114959.782500", "115001.272500", "115002.762500", "115004.252500", "115005.742500", "115007.232500", "115008.722500", "115010.212500", "115011.702500", "115013.192500", "115014.682500", "115016.172500", "115017.662500", "115019.152500", "115020.642500", "115022.132500", "115023.622500", "115025.112500", "115026.602500", "115028.092500", "115029.582500", "115031.072500", "115032.562500", "115034.052500", "115035.542500", "115037.032500", "115038.522500", "115040.012500", "115041.502500", "115042.992500", "115044.482500", "115045.972500", "115047.462500", "115048.952500", "115050.442500", "115051.932500", "115053.422500", "115054.912500", "115056.402500", "115057.892500", "115059.382500", "115100.872500", "115102.362500", "115103.852500", "115105.342500", "115106.832500", "115108.322500", "115109.812500", "115111.302500", "115112.792500", "115114.282500", "115115.772500", "115117.262500", "115118.752500", "115120.242500", "115121.732500", "115123.222500", "115124.712500", "115126.202500", "115127.692500", "115129.182500", "115130.672500", "115132.162500", "115133.652500", "115135.142500", "115136.632500", "115138.122500", "115139.612500", "115141.102500", "115142.592500", "115144.082500", "115145.572500", "115147.062500", "115148.552500", "115150.042500", "115151.532500", "115153.022500", "115154.512500", "115156.002500", "115157.492500", "115158.982500", "115200.472500", "115201.962500", "115203.452500", "115204.942500", "115206.432500", "115207.922500", "115209.412500", "115210.902500", "115212.392500", "115213.882500", "115215.372500", "115216.862500", "115218.352500", "115219.842500", "115221.332500", "115222.822500", "115224.312500", "115225.802500", "115227.292500", "115228.782500", "115230.272500", "115231.762500", "115233.252500", "115234.742500", "115236.232500", "115237.722500", "115239.212500", "115240.702500", "115242.192500", "115243.682500", "115245.172500", "115246.662500", "115248.152500", "115249.642500", "115251.132500", "115252.622500", "115254.112500", "115255.602500", "115257.092500", "115258.582500", "115300.072500", "115301.562500", "115303.052500", "115304.542500", "115306.032500", "115307.522500", "115309.012500", "115310.502500", "115311.992500", "115313.482500", "115314.972500", "115316.462500", "115317.952500", "115319.442500", "115320.932500", "115322.422500", "115323.912500", "115325.402500", "115326.892500", "115328.382500", "115329.872500", "115331.362500", "115332.852500", "115334.342500", "115335.832500", "115337.322500", "115338.812500", "115340.302500", "115341.792500", "115343.282500", "115344.772500", "115346.262500", "115347.752500", "115349.242500", "115350.732500", "115352.222500", "115353.712500", "115355.202500", "115356.692500", "115358.182500", "115359.672500", "115401.162500", "115402.652500", "115404.142500", "115405.632500", "115407.122500", "115408.612500", "115410.102500", "115411.592500", "115413.082500", "115414.572500", "115416.062500", "115417.552500", "115419.042500", "115420.532500", "115422.022500", "115423.512500", "115425.002500", "115426.492500", "115427.982500", "115429.472500", "115430.962500", "115432.452500", "115433.942500", "115435.432500", "115436.922500", "115438.412500", "115439.902500", "115441.392500", "115442.882500", "115444.372500", "115445.862500", "115447.352500", "115448.842500", "115450.332500", "115451.822500", "115453.312500", "115454.802500", "115456.292500", "115457.782500", "115459.272500", "115500.762500", "115502.252500", "115503.742500", "115505.232500", "115506.722500", "115508.212500", "115509.702500", "115511.192500", "115512.682500", "115514.172500", "115515.662500", "115517.152500", "115518.642500", "115520.132500", "115521.622500", "115523.112500", "115524.602500", "115526.092500", "115527.582500", "115529.072500", "115530.562500", "115532.052500", "115533.542500", "115535.032500", "115536.522500", "115538.012500", "115539.502500", "115540.992500", "115542.482500", "115543.972500", "115545.462500", "115546.952500", "115548.442500", "115549.932500", "115551.422500", "115552.912500", "115554.402500", "115555.892500", "115557.382500", "115558.872500", "115600.362500", "115601.852500", "115603.342500", "115604.832500", "115606.322500", "115607.812500", "115609.302500", "115610.792500", "115612.282500", "115613.772500", "115615.262500", "115616.752500", "115618.242500", "115619.732500", "115621.222500", "115622.712500", "115624.202500", "115625.692500", "115627.182500", "115628.672500", "115630.162500", "115631.652500", "115633.142500", "115634.632500", "115636.122500", "115637.612500", "115639.102500", "115640.592500", "115642.082500", "115643.572500", "115645.062500", "115646.552500", "115648.042500", "115649.532500", "115651.022500", "115652.512500", "115654.002500", "115655.492500", "115656.982500", "115658.472500", "115659.962500"],
      "ContentTime": ["114737.614000", "114737.617000", "114737.620000", "114737.623000", "114737.633000", "114737.635000", "114737.638000", "114737.641000", "114737.644000", "114737.647000", "114737.650000", "114737.653000", "114737.665000", "114737.668000", "114737.671000", "114737.673000", "114737.677000", "114737.679000", "114737.682000", "114737.685000", "114737.688000", "114737.691000", "114737.694000", "114737.697000", "114737.700000", "114737.703000", "114757.574000", "114757.577000", "114757.580000", "114757.583000", "114757.586000", "114757.589000", "114757.592000", "114757.595000", "114757.597000", "114757.600000", "114757.612000", "114757.615000", "114757.617000", "114757.630000", "114757.633000", "114757.636000", "114757.639000", "114757.642000", "114757.645000", "114757.648000", "114817.574000", "114817.577000", "114817.585000", "114817.588000", "114817.591000", "114817.594000", "114817.597000", "114817.600000", "114817.603000", "114817.606000", "114817.608000", "114817.611000", "114817.614000", "114817.617000", "114817.620000", "114817.623000", "114817.626000", "114817.629000", "114817.632000", "114817.635000", "114817.638000", "114837.574000", "114837.577000", "114837.580000", "114837.583000", "114837.586000", "114837.589000", "114837.592000", "114837.595000", "114837.597000", "114837.600000", "114837.603000", "114837.606000", "114837.609000", "114837.612000", "114837.615000", "114837.618000", "114837.621000", "114837.624000", "114837.627000", "114837.630000", "114917.574000", "114917.577000", "114917.580000", "114917.583000", "114917.586000", "114917.589000", "114917.592000", "114917.595000", "114917.598000", "114917.600000", "114917.603000", "114917.606000", "114917.609000", "114917.612000", "114917.615000", "114917.618000", "114917.630000", "114917.633000", "114917.636000", "114917.638000", "114917.641000", "114917.644000", "114917.647000", "114917.650000", "114917.653000", "114917.656000", "114917.659000", "114917.662000", "114917.665000", "114957.574000", "114957.577000", "114957.580000", "114957.583000", "114957.586000", "114957.589000", "114957.592000", "114957.595000", "114957.598000", "114957.601000", "114957.604000", "114957.607000", "114957.610000", "114957.613000", "114957.616000", "114957.619000", "114957.622000", "114957.625000", "114957.628000", "114957.631000", "114957.634000", "114957.643000", "114957.646000", "114957.649000", "114957.652000", "114957.655000", "114957.658000", "115037.574000", "115037.577000", "115037.580000", "115037.583000", "115037.586000", "115037.589000", "115037.592000", "115037.595000", "115037.598000", "115037.601000", "115037.604000", "115037.607000", "115037.610000", "115037.613000", "115037.615000", "115037.618000", "115037.621000", "115037.624000", "115037.627000", "115037.630000", "115037.633000", "115037.636000", "115037.639000", "115037.642000", "115037.645000", "115037.647000", "115037.650000", "115117.574000", "115117.577000", "115117.580000", "115117.583000", "115117.586000", "115117.589000", "115117.592000", "115117.595000", "115117.598000", "115117.601000", "115117.604000", "115117.607000", "115117.610000", "115117.613000", "115117.616000", "115117.619000", "115117.622000", "115117.625000", "115117.628000", "115117.631000", "115117.634000", "115117.637000", "115117.639000", "115117.642000", "115117.645000", "115117.648000", "115117.651000", "115157.574000", "115157.577000", "115157.580000", "115157.583000", "115157.586000", "115157.589000", "115157.592000", "115157.595000", "115157.598000", "115157.601000", "115157.604000", "115157.607000", "115157.609000", "115157.612000", "115157.615000", "115157.618000", "115157.621000", "115157.624000", "115157.627000", "115157.630000", "115157.633000", "115157.636000", "115157.639000", "115157.642000", "115157.645000", "115157.647000", "115157.651000", "115237.574000", "115237.577000", "115237.580000", "115237.584000", "115237.586000", "115237.589000", "115237.592000", "115237.595000", "115237.598000", "115237.601000", "115237.604000", "115237.607000", "115237.610000", "115237.613000", "115237.616000", "115237.619000", "115237.635000", "115237.638000", "115237.641000", "115237.644000", "115237.647000", "115237.650000", "115237.653000", "115237.656000", "115237.659000", "115237.662000", "115317.574000", "115317.577000", "115317.580000", "115317.583000", "115317.586000", "115317.589000", "115317.592000", "115317.595000", "115317.598000", "115317.601000", "115317.604000", "115317.607000", "115317.610000", "115317.613000", "115317.615000", "115317.618000", "115317.621000", "115317.624000", "115317.627000", "115317.630000", "115317.633000", "115317.636000", "115317.639000", "115317.642000", "115317.645000", "115317.648000", "115317.651000", "115357.574000", "115357.577000", "115357.580000", "115357.583000", "115357.586000", "115357.589000", "115357.592000", "115357.595000", "115357.598000", "115357.601000", "115357.604000", "115357.607000", "115357.609000", "115357.612000", "115357.615000", "115357.618000", "115357.621000", "115357.624000", "115357.627000", "115357.630000", "115357.633000", "115357.636000", "115357.639000", "115357.642000", "115357.645000", "115357.647000", "115357.650000", "115437.574000", "115437.577000", "115437.580000", "115437.583000", "115437.586000", "115437.589000", "115437.592000", "115437.595000", "115437.598000", "115437.601000", "115437.604000", "115437.607000", "115437.610000", "115437.613000", "115437.616000", "115437.618000", "115437.621000", "115437.624000", "115437.627000", "115437.630000", "115437.633000", "115437.636000", "115437.639000", "115437.642000", "115437.645000", "115437.648000", "115437.651000", "115517.574000", "115517.577000", "115517.580000", "115517.583000", "115517.586000", "115517.589000", "115517.592000", "115517.595000", "115517.598000", "115517.601000", "115517.604000", "115517.607000", "115517.610000", "115517.613000", "115517.616000", "115517.618000", "115517.621000", "115517.624000", "115517.627000", "115517.630000", "115517.633000", "115517.636000", "115517.639000", "115517.642000", "115517.645000", "115517.648000", "115517.651000", "115557.574000", "115557.577000", "115557.580000", "115557.583000", "115557.586000", "115557.589000", "115557.592000", "115557.595000", "115557.598000", "115557.601000", "115557.604000", "115557.606000", "115557.609000", "115557.612000", "115557.615000", "115557.618000", "115557.621000", "115557.624000", "115557.627000", "115557.630000", "115557.633000", "115557.635000", "115557.638000", "115557.641000", "115557.644000", "115557.647000", "115557.650000", "115637.574000", "115637.577000", "115637.580000", "115637.583000", "115637.586000", "115637.589000", "115637.592000", "115637.595000", "115637.598000", "115637.601000", "115637.604000", "115637.607000", "115637.610000", "115637.613000", "115637.616000", "115637.619000", "115637.622000", "115637.625000", "115637.628000", "115637.630000", "115637.633000", "115637.636000", "115637.639000", "115637.642000", "115637.645000", "115637.648000", "115637.651000", "115707.327000", "115707.331000", "115707.334000", "115707.337000", "115707.340000", "115707.342000", "115707.345000", "115707.348000", "115707.351000", "115707.354000", "115707.357000", "115707.360000", "115707.363000", "115707.366000", "115707.369000", "115707.372000", "115707.375000", "115707.387000", "115707.390000", "115707.394000"],
      "InstanceCreationTime": ["114737.614000", "114737.617000", "114737.620000", "114737.623000", "114737.633000", "114737.635000", "114737.638000", "114737.641000", "114737.644000", "114737.647000", "114737.650000", "114737.653000", "114737.665000", "114737.668000", "114737.671000", "114737.673000", "114737.677000", "114737.679000", "114737.682000", "114737.685000", "114737.688000", "114737.691000", "114737.694000", "114737.697000", "114737.700000", "114737.703000", "114757.574000", "114757.577000", "114757.580000", "114757.583000", "114757.586000", "114757.589000", "114757.592000", "114757.595000", "114757.597000", "114757.600000", "114757.612000", "114757.615000", "114757.617000", "114757.630000", "114757.633000", "114757.636000", "114757.639000", "114757.642000", "114757.645000", "114757.648000", "114817.574000", "114817.577000", "114817.585000", "114817.588000", "114817.591000", "114817.594000", "114817.597000", "114817.600000", "114817.603000", "114817.606000", "114817.608000", "114817.611000", "114817.614000", "114817.617000", "114817.620000", "114817.623000", "114817.626000", "114817.629000", "114817.632000", "114817.635000", "114817.638000", "114837.574000", "114837.577000", "114837.580000", "114837.583000", "114837.586000", "114837.589000", "114837.592000", "114837.595000", "114837.597000", "114837.600000", "114837.603000", "114837.606000", "114837.609000", "114837.612000", "114837.615000", "114837.618000", "114837.621000", "114837.624000", "114837.627000", "114837.630000", "114917.574000", "114917.577000", "114917.580000", "114917.583000", "114917.586000", "114917.589000", "114917.592000", "114917.595000", "114917.598000", "114917.600000", "114917.603000", "114917.606000", "114917.609000", "114917.612000", "114917.615000", "114917.618000", "114917.630000", "114917.633000", "114917.636000", "114917.638000", "114917.641000", "114917.644000", "114917.647000", "114917.650000", "114917.653000", "114917.656000", "114917.659000", "114917.662000", "114917.665000", "114957.574000", "114957.577000", "114957.580000", "114957.583000", "114957.586000", "114957.589000", "114957.592000", "114957.595000", "114957.598000", "114957.601000", "114957.604000", "114957.607000", "114957.610000", "114957.613000", "114957.616000", "114957.619000", "114957.622000", "114957.625000", "114957.628000", "114957.631000", "114957.634000", "114957.643000", "114957.646000", "114957.649000", "114957.652000", "114957.655000", "114957.658000", "115037.574000", "115037.577000", "115037.580000", "115037.583000", "115037.586000", "115037.589000", "115037.592000", "115037.595000", "115037.598000", "115037.601000", "115037.604000", "115037.607000", "115037.610000", "115037.613000", "115037.615000", "115037.618000", "115037.621000", "115037.624000", "115037.627000", "115037.630000", "115037.633000", "115037.636000", "115037.639000", "115037.642000", "115037.645000", "115037.647000", "115037.650000", "115117.574000", "115117.577000", "115117.580000", "115117.583000", "115117.586000", "115117.589000", "115117.592000", "115117.595000", "115117.598000", "115117.601000", "115117.604000", "115117.607000", "115117.610000", "115117.613000", "115117.616000", "115117.619000", "115117.622000", "115117.625000", "115117.628000", "115117.631000", "115117.634000", "115117.637000", "115117.639000", "115117.642000", "115117.645000", "115117.648000", "115117.651000", "115157.574000", "115157.577000", "115157.580000", "115157.583000", "115157.586000", "115157.589000", "115157.592000", "115157.595000", "115157.598000", "115157.601000", "115157.604000", "115157.607000", "115157.609000", "115157.612000", "115157.615000", "115157.618000", "115157.621000", "115157.624000", "115157.627000", "115157.630000", "115157.633000", "115157.636000", "115157.639000", "115157.642000", "115157.645000", "115157.647000", "115157.651000", "115237.574000", "115237.577000", "115237.580000", "115237.584000", "115237.586000", "115237.589000", "115237.592000", "115237.595000", "115237.598000", "115237.601000", "115237.604000", "115237.607000", "115237.610000", "115237.613000", "115237.616000", "115237.619000", "115237.635000", "115237.638000", "115237.641000", "115237.644000", "115237.647000", "115237.650000", "115237.653000", "115237.656000", "115237.659000", "115237.662000", "115317.574000", "115317.577000", "115317.580000", "115317.583000", "115317.586000", "115317.589000", "115317.592000", "115317.595000", "115317.598000", "115317.601000", "115317.604000", "115317.607000", "115317.610000", "115317.613000", "115317.615000", "115317.618000", "115317.621000", "115317.624000", "115317.627000", "115317.630000", "115317.633000", "115317.636000", "115317.639000", "115317.642000", "115317.645000", "115317.648000", "115317.651000", "115357.574000", "115357.577000", "115357.580000", "115357.583000", "115357.586000", "115357.589000", "115357.592000", "115357.595000", "115357.598000", "115357.601000", "115357.604000", "115357.607000", "115357.609000", "115357.612000", "115357.615000", "115357.618000", "115357.621000", "115357.624000", "115357.627000", "115357.630000", "115357.633000", "115357.636000", "115357.639000", "115357.642000", "115357.645000", "115357.647000", "115357.650000", "115437.574000", "115437.577000", "115437.580000", "115437.583000", "115437.586000", "115437.589000", "115437.592000", "115437.595000", "115437.598000", "115437.601000", "115437.604000", "115437.607000", "115437.610000", "115437.613000", "115437.616000", "115437.618000", "115437.621000", "115437.624000", "115437.627000", "115437.630000", "115437.633000", "115437.636000", "115437.639000", "115437.642000", "115437.645000", "115437.648000", "115437.651000", "115517.574000", "115517.577000", "115517.580000", "115517.583000", "115517.586000", "115517.589000", "115517.592000", "115517.595000", "115517.598000", "115517.601000", "115517.604000", "115517.607000", "115517.610000", "115517.613000", "115517.616000", "115517.618000", "115517.621000", "115517.624000", "115517.627000", "115517.630000", "115517.633000", "115517.636000", "115517.639000", "115517.642000", "115517.645000", "115517.648000", "115517.651000", "115557.574000", "115557.577000", "115557.580000", "115557.583000", "115557.586000", "115557.589000", "115557.592000", "115557.595000", "115557.598000", "115557.601000", "115557.604000", "115557.606000", "115557.609000", "115557.612000", "115557.615000", "115557.618000", "115557.621000", "115557.624000", "115557.627000", "115557.630000", "115557.633000", "115557.635000", "115557.638000", "115557.641000", "115557.644000", "115557.647000", "115557.650000", "115637.574000", "115637.577000", "115637.580000", "115637.583000", "115637.586000", "115637.589000", "115637.592000", "115637.595000", "115637.598000", "115637.601000", "115637.604000", "115637.607000", "115637.610000", "115637.613000", "115637.616000", "115637.619000", "115637.622000", "115637.625000", "115637.628000", "115637.630000", "115637.633000", "115637.636000", "115637.639000", "115637.642000", "115637.645000", "115637.648000", "115637.651000", "115707.327000", "115707.331000", "115707.334000", "115707.337000", "115707.340000", "115707.342000", "115707.345000", "115707.348000", "115707.351000", "115707.354000", "115707.357000", "115707.360000", "115707.363000", "115707.366000", "115707.369000", "115707.372000", "115707.375000", "115707.387000", "115707.390000", "115707.394000"],
