{
  "AcquisitionMatrixPE": 104,
  "AcquisitionNumber": 1,
  "AcquisitionTime": "11:42:47.492500",
  "BandwidthPerPixelPhaseEncode": 17.17,
  "BaseResolution": 104,
  "BodyPartExamined": "BRAIN",
  "CoilString": "HC1-7;NC1_2",
  "ConsistencyInfo": "N4_VE11C_LATEST_20160120",
  "ConversionSoftware": "dcm2niix",
  "ConversionSoftwareVersion": "v1.0.20200427",
  "DerivedVendorReportedEchoSpacing": 0.000560011,
  "DeviceSerialNumber": "167006",
  "DwellTime": 2.1e-06,
  "EchoTime": 0.037,
  "EchoTrainLength": 104,
  "EffectiveEchoSpacing": 0.000560011,
  "FlipAngle": 52,
  "ImageComments": "Unaliased_MB4_PE3_LB",
  "ImageOrientationPatientDICOM": [0.999894, 0.0105443, 0.00999806, -0.00383939, 0.855322, -0.518082],
  "ImageType": [
    "ORIGINAL",
    "PRIMARY",
    "M",
    "MB",
    "ND",
    "MOSAIC"
],
  "ImagingFrequency": 123.259,
  "InPlanePhaseEncodingDirectionDICOM": "COL",
  "InstitutionAddress": "Chemin_Queen-Mary_4565_Montreal_District_CA_H3W_1W5",
  "InstitutionName": "IUGM",
  "InstitutionalDepartmentName": "Department",
  "MRAcquisitionType": "2D",
  "MagneticFieldStrength": 3,
  "Manufacturer": "Siemens",
  "ManufacturersModelName": "Prisma_fit",
  "Modality": "MR",
  "MultibandAccelerationFactor": 4,
  "PartialFourier": 1,
  "PatientPosition": "HFS",
  "PercentPhaseFOV": 100,
  "PercentSampling": 100,
  "PhaseEncodingDirection": "j",
  "PhaseEncodingSteps": 104,
  "PhaseResolution": 1,
  "PixelBandwidth": 2290,
  "ProcedureStepDescription": "video_friends",
  "ProtocolName": "func_task-friends-s03e04b",
  "PulseSequenceDetails": "%CustomerSeq%_cmrr_mbep2d_bold",
  "ReceiveCoilActiveElements": "HC1-7;NC1,2",
  "ReceiveCoilName": "HeadNeck_64",
  "ReconMatrixPE": 104,
  "RepetitionTime": 1.49,
  "SAR": 0.0373401,
  "ScanOptions": "FS",
  "ScanningSequence": "EP",
  "SequenceName": "epfid2d1_104",
  "SequenceVariant": "SK_SS",
  "SeriesDescription": "func_task-friends-s03e04b",
  "SeriesNumber": 30,
  "ShimSetting": [622, -7217, -8881, 356, -42, -210, 31, -15],
  "SliceThickness": 2,
  "SliceTiming": [0, 0.7825, 0.0975, 0.8825, 0.195, 0.98, 0.2925, 1.0775, 0.3925, 1.175, 0.49, 1.2725, 0.5875, 1.3725, 0.685, 0, 0.7825, 0.0975, 0.8825, 0.195, 0.98, 0.2925, 1.0775, 0.3925, 1.175, 0.49, 1.2725, 0.5875, 1.3725, 0.685, 0, 0.7825, 0.0975, 0.8825, 0.195, 0.98, 0.2925, 1.0775, 0.3925, 1.175, 0.49, 1.2725, 0.5875, 1.3725, 0.685, 0, 0.7825, 0.0975, 0.8825, 0.195, 0.98, 0.2925, 1.0775, 0.3925, 1.175, 0.49, 1.2725, 0.5875, 1.3725, 0.685],
  "SoftwareVersions": "syngo_MR_E11",
  "SpacingBetweenSlices": 2,
  "StationName": "MRC35049",
  "TaskName": "s03e04b",
  "TotalReadoutTime": 0.0576811,
  "TxRefAmp": 253.627,
  "WipMemBlock": "cef2b5b7-a15a-49df-89f5-5e40e324cd53||Sequence: R016 ve11c/master r/e634e98; Dec 19 2017 11:00:25 by eja",
  "dcmmeta_affine": [
    [-1.9997888803482056, -0.0076787713915109634, 0.02802876941859722, 102.98704528808594],
    [-0.021088646724820137, 1.7106444835662842, -1.035978078842163, -57.66164779663086],
    [0.01999611034989357, 1.0361642837524414, 1.7105449438095093, -100.4251708984375],
    [0.0, 0.0, 0.0, 1.0]
],
  "dcmmeta_reorient_transform": [
    [0.0, -1.0, 0.0, 103.0],
    [1.0, 0.0, 0.0, 0.0],
    [0.0, 0.0, 1.0, 0.0],
    [0.0, 0.0, 0.0, 1.0]
],
  "dcmmeta_shape": [104, 104, 60, 473],
  "dcmmeta_slice_dim": 2,
  "dcmmeta_version": 0.6,
  "global": {
    "const": {
      "AcquisitionMatrix": [104, 0, 0, 104],
      "AngioFlag": "N",
      "BitsAllocated": 16,
      "BitsStored": 16,
      "BodyPartExamined": "BRAIN",
      "Columns": 832,
      "EchoNumbers": 1,
      "EchoTime": 37.0,
      "EchoTrainLength": 104,
      "FlipAngle": 52.0,
      "HighBit": 15,
      "ImageOrientationPatient": [0.99989442250011, 0.01054432300967, 0.00999805508338, -0.0038393856936, 0.85532225263755, -0.5180821394919],
      "ImagePositionPatient": [-827.32419790779, -748.88560435706, 376.18496549108],
      "ImageType": [
        "ORIGINAL",
        "PRIMARY",
        "M",
        "MB",
        "ND",
        "MOSAIC"
],
      "ImagedNucleus": "1H",
      "ImagingFrequency": 123.259079,
      "InPlanePhaseEncodingDirection": "COL",
      "MRAcquisitionType": "2D",
      "MagneticFieldStrength": 3.0,
      "Manufacturer": "SIEMENS",
      "ManufacturerModelName": "Prisma_fit",
      "Modality": "MR",
      "NumberOfAverages": 1.0,
      "NumberOfPhaseEncodingSteps": 104,
      "PercentPhaseFieldOfView": 100.0,
      "PercentSampling": 100.0,
      "PerformedProcedureStepStartTime": "091558.932000",
      "PhotometricInterpretation": "MONOCHROME2",
      "PixelBandwidth": 2290.0,
      "PixelRepresentation": 0,
      "PixelSpacing": [2.0, 2.0],
      "ProtocolName": "func_task-friends-s03e04b",
      "RepetitionTime": 1490.0,
      "Rows": 832,
      "SAR": 0.03734014113049,
      "SamplesPerPixel": 1,
      "ScanOptions": "FS",
      "ScanningSequence": "EP",
      "SequenceName": "epfid2d1_104",
      "SequenceVariant": [
        "SK",
        "SS"
],
      "SeriesDescription": "func_task-friends-s03e04b",
      "SeriesNumber": 30,
      "SeriesTime": "114416.630000",
      "SliceLocation": -54.579476457925,
      "SliceThickness": 2.0,
      "SmallestImagePixelValue": 0,
      "SoftwareVersions": "syngo MR E11",
      "SpacingBetweenSlices": 2.0000000424112,
      "SpecificCharacterSet": "ISO_IR 100",
      "StudyID": "1",
      "StudyTime": "091558.784000",
      "TransmitCoilName": "Body",
      "VariableFlipAngleFlag": "N",
      "WindowCenterWidthExplanation": "Algo1",
      "dBdt": 0.0},
    "slices": {}
  },
  "time": {
    "samples": {
      "AcquisitionNumber": [1, 2, 3, 4, 5, 6, 7, 8, 9, 10, 11, 12, 13, 14, 15, 16, 17, 18, 19, 20, 21, 22, 23, 24, 25, 26, 27, 28, 29, 30, 31, 32, 33, 34, 35, 36, 37, 38, 39, 40, 41, 42, 43, 44, 45, 46, 47, 48, 49, 50, 51, 52, 53, 54, 55, 56, 57, 58, 59, 60, 61, 62, 63, 64, 65, 66, 67, 68, 69, 70, 71, 72, 73, 74, 75, 76, 77, 78, 79, 80, 81, 82, 83, 84, 85, 86, 87, 88, 89, 90, 91, 92, 93, 94, 95, 96, 97, 98, 99, 100, 101, 102, 103, 104, 105, 106, 107, 108, 109, 110, 111, 112, 113, 114, 115, 116, 117, 118, 119, 120, 121, 122, 123, 124, 125, 126, 127, 128, 129, 130, 131, 132, 133, 134, 135, 136, 137, 138, 139, 140, 141, 142, 143, 144, 145, 146, 147, 148, 149, 150, 151, 152, 153, 154, 155, 156, 157, 158, 159, 160, 161, 162, 163, 164, 165, 166, 167, 168, 169, 170, 171, 172, 173, 174, 175, 176, 177, 178, 179, 180, 181, 182, 183, 184, 185, 186, 187, 188, 189, 190, 191, 192, 193, 194, 195, 196, 197, 198, 199, 200, 201, 202, 203, 204, 205, 206, 207, 208, 209, 210, 211, 212, 213, 214, 215, 216, 217, 218, 219, 220, 221, 222, 223, 224, 225, 226, 227, 228, 229, 230, 231, 232, 233, 234, 235, 236, 237, 238, 239, 240, 241, 242, 243, 244, 245, 246, 247, 248, 249, 250, 251, 252, 253, 254, 255, 256, 257, 258, 259, 260, 261, 262, 263, 264, 265, 266, 267, 268, 269, 270, 271, 272, 273, 274, 275, 276, 277, 278, 279, 280, 281, 282, 283, 284, 285, 286, 287, 288, 289, 290, 291, 292, 293, 294, 295, 296, 297, 298, 299, 300, 301, 302, 303, 304, 305, 306, 307, 308, 309, 310, 311, 312, 313, 314, 315, 316, 317, 318, 319, 320, 321, 322, 323, 324, 325, 326, 327, 328, 329, 330, 331, 332, 333, 334, 335, 336, 337, 338, 339, 340, 341, 342, 343, 344, 345, 346, 347, 348, 349, 350, 351, 352, 353, 354, 355, 356, 357, 358, 359, 360, 361, 362, 363, 364, 365, 366, 367, 368, 369, 370, 371, 372, 373, 374, 375, 376, 377, 378, 379, 380, 381, 382, 383, 384, 385, 386, 387, 388, 389, 390, 391, 392, 393, 394, 395, 396, 397, 398, 399, 400, 401, 402, 403, 404, 405, 406, 407, 408, 409, 410, 411, 412, 413, 414, 415, 416, 417, 418, 419, 420, 421, 422, 423, 424, 425, 426, 427, 428, 429, 430, 431, 432, 433, 434, 435, 436, 437, 438, 439, 440, 441, 442, 443, 444, 445, 446, 447, 448, 449, 450, 451, 452, 453, 454, 455, 456, 457, 458, 459, 460, 461, 462, 463, 464, 465, 466, 467, 468, 469, 470, 471, 472, 473],
      "AcquisitionTime": ["114247.492500", "114248.982500", "114250.472500", "114251.962500", "114253.452500", "114254.942500", "114256.432500", "114257.922500", "114259.412500", "114300.902500", "114302.392500", "114303.882500", "114305.372500", "114306.862500", "114308.352500", "114309.842500", "114311.332500", "114312.822500", "114314.312500", "114315.802500", "114317.292500", "114318.782500", "114320.272500", "114321.762500", "114323.252500", "114324.742500", "114326.232500", "114327.722500", "114329.212500", "114330.702500", "114332.192500", "114333.682500", "114335.172500", "114336.662500", "114338.152500", "114339.642500", "114341.132500", "114342.622500", "114344.112500", "114345.602500", "114347.092500", "114348.582500", "114350.072500", "114351.562500", "114353.052500", "114354.542500", "114356.032500", "114357.522500", "114359.012500", "114400.502500", "114401.992500", "114403.482500", "114404.972500", "114406.462500", "114407.952500", "114409.442500", "114410.932500", "114412.422500", "114413.912500", "114415.402500", "114416.892500", "114418.382500", "114419.872500", "114421.362500", "114422.852500", "114424.342500", "114425.832500", "114427.322500", "114428.812500", "114430.302500", "114431.792500", "114433.282500", "114434.772500", "114436.262500", "114437.752500", "114439.242500", "114440.732500", "114442.222500", "114443.712500", "114445.202500", "114446.692500", "114448.182500", "114449.672500", "114451.162500", "114452.652500", "114454.142500", "114455.632500", "114457.122500", "114458.612500", "114500.102500", "114501.592500", "114503.082500", "114504.572500", "114506.062500", "114507.552500", "114509.042500", "114510.532500", "114512.022500", "114513.512500", "114515.002500", "114516.492500", "114517.982500", "114519.472500", "114520.962500", "114522.452500", "114523.942500", "114525.432500", "114526.922500", "114528.412500", "114529.902500", "114531.392500", "114532.882500", "114534.372500", "114535.862500", "114537.352500", "114538.842500", "114540.332500", "114541.822500", "114543.312500", "114544.802500", "114546.292500", "114547.782500", "114549.272500", "114550.762500", "114552.252500", "114553.742500", "114555.232500", "114556.722500", "114558.212500", "114559.702500", "114601.192500", "114602.682500", "114604.172500", "114605.662500", "114607.152500", "114608.642500", "114610.132500", "114611.622500", "114613.112500", "114614.602500", "114616.092500", "114617.582500", "114619.072500", "114620.562500", "114622.052500", "114623.542500", "114625.032500", "114626.522500", "114628.012500", "114629.502500", "114630.992500", "114632.482500", "114633.972500", "114635.462500", "114636.952500", "114638.442500", "114639.932500", "114641.422500", "114642.912500", "114644.402500", "114645.892500", "114647.382500", "114648.872500", "114650.362500", "114651.852500", "114653.342500", "114654.832500", "114656.322500", "114657.812500", "114659.302500", "114700.792500", "114702.282500", "114703.772500", "114705.262500", "114706.752500", "114708.242500", "114709.732500", "114711.222500", "114712.712500", "114714.202500", "114715.692500", "114717.182500", "114718.672500", "114720.162500", "114721.652500", "114723.142500", "114724.632500", "114726.122500", "114727.612500", "114729.102500", "114730.592500", "114732.082500", "114733.572500", "114735.062500", "114736.552500", "114738.042500", "114739.532500", "114741.022500", "114742.512500", "114744.002500", "114745.492500", "114746.982500", "114748.472500", "114749.962500", "114751.452500", "114752.942500", "114754.432500", "114755.922500", "114757.412500", "114758.902500", "114800.392500", "114801.882500", "114803.372500", "114804.862500", "114806.352500", "114807.842500", "114809.332500", "114810.822500", "114812.312500", "114813.802500", "114815.292500", "114816.782500", "114818.272500", "114819.762500", "114821.252500", "114822.742500", "114824.232500", "114825.722500", "114827.212500", "114828.702500", "114830.192500", "114831.682500", "114833.172500", "114834.662500", "114836.152500", "114837.642500", "114839.132500", "114840.622500", "114842.112500", "114843.602500", "114845.092500", "114846.582500", "114848.072500", "114849.562500", "114851.052500", "114852.542500", "114854.032500", "114855.522500", "114857.012500", "114858.502500", "114859.992500", "114901.482500", "114902.972500", "114904.462500", "114905.952500", "114907.442500", "114908.932500", "114910.422500", "114911.912500", "114913.402500", "114914.892500", "114916.382500", "114917.872500", "114919.362500", "114920.852500", "114922.342500", "114923.832500", "114925.322500", "114926.812500", "114928.302500", "114929.792500", "114931.282500", "114932.772500", "114934.262500", "114935.752500", "114937.242500", "114938.732500", "114940.222500", "114941.712500", "114943.202500", "114944.692500", "114946.182500", "114947.672500", "114949.162500", "114950.652500", "114952.142500", "114953.632500", "114955.122500", "114956.612500", "114958.102500", "114959.592500", "115001.082500", "115002.572500", "115004.062500", "115005.552500", "115007.042500", "115008.532500", "115010.022500", "115011.512500", "115013.002500", "115014.492500", "115015.982500", "115017.472500", "115018.962500", "115020.452500", "115021.942500", "115023.432500", "115024.922500", "115026.412500", "115027.902500", "115029.392500", "115030.882500", "115032.372500", "115033.862500", "115035.352500", "115036.842500", "115038.332500", "115039.822500", "115041.312500", "115042.802500", "115044.292500", "115045.782500", "115047.272500", "115048.762500", "115050.252500", "115051.742500", "115053.232500", "115054.722500", "115056.212500", "115057.702500", "115059.192500", "115100.682500", "115102.172500", "115103.662500", "115105.152500", "115106.642500", "115108.132500", "115109.622500", "115111.112500", "115112.602500", "115114.092500", "115115.582500", "115117.072500", "115118.562500", "115120.052500", "115121.542500", "115123.032500", "115124.522500", "115126.012500", "115127.502500", "115128.992500", "115130.482500", "115131.972500", "115133.462500", "115134.952500", "115136.442500", "115137.932500", "115139.422500", "115140.912500", "115142.402500", "115143.892500", "115145.382500", "115146.872500", "115148.362500", "115149.852500", "115151.342500", "115152.832500", "115154.322500", "115155.812500", "115157.302500", "115158.792500", "115200.282500", "115201.772500", "115203.262500", "115204.752500", "115206.242500", "115207.732500", "115209.222500", "115210.712500", "115212.202500", "115213.692500", "115215.182500", "115216.672500", "115218.162500", "115219.652500", "115221.142500", "115222.632500", "115224.122500", "115225.612500", "115227.102500", "115228.592500", "115230.082500", "115231.572500", "115233.062500", "115234.552500", "115236.042500", "115237.532500", "115239.022500", "115240.512500", "115242.002500", "115243.492500", "115244.982500", "115246.472500", "115247.962500", "115249.452500", "115250.942500", "115252.432500", "115253.922500", "115255.412500", "115256.902500", "115258.392500", "115259.882500", "115301.372500", "115302.862500", "115304.352500", "115305.842500", "115307.332500", "115308.822500", "115310.312500", "115311.802500", "115313.292500", "115314.782500", "115316.272500", "115317.762500", "115319.252500", "115320.742500", "115322.232500", "115323.722500", "115325.212500", "115326.702500", "115328.192500", "115329.682500", "115331.172500", "115332.662500", "115334.152500", "115335.642500", "115337.132500", "115338.622500", "115340.112500", "115341.602500", "115343.092500", "115344.582500", "115346.072500", "115347.562500", "115349.052500", "115350.542500", "115352.032500", "115353.522500", "115355.012500", "115356.502500", "115357.992500", "115359.482500", "115400.972500", "115402.462500", "115403.952500", "115405.442500", "115406.932500", "115408.422500", "115409.912500", "115411.402500", "115412.892500", "115414.382500", "115415.872500", "115417.362500", "115418.852500", "115420.342500", "115421.832500", "115423.322500", "115424.812500", "115426.302500", "115427.792500", "115429.282500", "115430.772500"],
      "ContentTime": ["114416.633000", "114416.637000", "114416.640000", "114416.642000", "114416.645000", "114416.648000", "114416.651000", "114416.654000", "114416.657000", "114416.660000", "114416.663000", "114416.666000", "114416.669000", "114416.672000", "114416.675000", "114416.678000", "114416.681000", "114416.684000", "114416.687000", "114416.690000", "114416.693000", "114416.696000", "114416.699000", "114416.706000", "114416.709000", "114416.712000", "114416.715000", "114416.718000", "114416.721000", "114416.724000", "114416.727000", "114416.730000", "114416.733000", "114416.735000", "114436.592000", "114436.595000", "114436.598000", "114436.601000", "114436.616000", "114436.619000", "114436.622000", "114436.625000", "114436.628000", "114436.631000", "114436.634000", "114436.637000", "114436.639000", "114436.642000", "114436.645000", "114436.648000", "114436.651000", "114436.654000", "114436.657000", "114436.660000", "114456.591000", "114456.594000", "114456.603000", "114456.606000", "114456.609000", "114456.612000", "114456.615000", "114456.618000", "114456.621000", "114456.624000", "114456.627000", "114456.630000", "114456.633000", "114456.636000", "114456.639000", "114456.642000", "114456.645000", "114456.648000", "114456.651000", "114456.653000", "114516.591000", "114516.594000", "114516.597000", "114516.610000", "114516.613000", "114516.616000", "114516.619000", "114516.623000", "114516.626000", "114516.629000", "114516.632000", "114516.635000", "114516.638000", "114516.641000", "114516.644000", "114516.647000", "114516.650000", "114516.653000", "114516.656000", "114516.659000", "114556.592000", "114556.595000", "114556.611000", "114556.614000", "114556.617000", "114556.620000", "114556.623000", "114556.626000", "114556.629000", "114556.632000", "114556.635000", "114556.638000", "114556.641000", "114556.644000", "114556.647000", "114556.650000", "114556.653000", "114556.656000", "114556.659000", "114556.662000", "114556.665000", "114556.668000", "114556.671000", "114556.674000", "114556.677000", "114556.680000", "114556.683000", "114556.686000", "114556.689000", "114556.692000", "114556.696000", "114556.698000", "114636.592000", "114636.595000", "114636.598000", "114636.601000", "114636.604000", "114636.607000", "114636.610000", "114636.613000", "114636.616000", "114636.619000", "114636.622000", "114636.625000", "114636.628000", "114636.631000", "114636.634000", "114636.637000", "114636.641000", "114636.644000", "114636.647000", "114636.650000", "114636.653000", "114636.656000", "114636.659000", "114636.662000", "114636.666000", "114636.668000", "114636.671000", "114716.591000", "114716.594000", "114716.597000", "114716.600000", "114716.603000", "114716.606000", "114716.609000", "114716.612000", "114716.615000", "114716.618000", "114716.621000", "114716.625000", "114716.627000", "114716.630000", "114716.633000", "114716.636000", "114716.640000", "114716.652000", "114716.654000", "114716.658000", "114716.661000", "114716.664000", "114716.666000", "114716.670000", "114716.672000", "114716.675000", "114716.678000", "114756.592000", "114756.595000", "114756.598000", "114756.601000", "114756.604000", "114756.607000", "114756.610000", "114756.613000", "114756.616000", "114756.619000", "114756.622000", "114756.625000", "114756.628000", "114756.631000", "114756.634000", "114756.637000", "114756.640000", "114756.643000", "114756.647000", "114756.649000", "114756.652000", "114756.655000", "114756.658000", "114756.661000", "114756.664000", "114756.667000", "114756.670000", "114836.592000", "114836.595000", "114836.598000", "114836.601000", "114836.604000", "114836.608000", "114836.611000", "114836.614000", "114836.616000", "114836.620000", "114836.623000", "114836.626000", "114836.629000", "114836.637000", "114836.640000", "114836.643000", "114836.646000", "114836.649000", "114836.652000", "114836.655000", "114836.658000", "114836.661000", "114836.664000", "114836.667000", "114836.670000", "114836.673000", "114836.676000", "114916.601000", "114916.604000", "114916.615000", "114916.618000", "114916.621000", "114916.624000", "114916.627000", "114916.630000", "114916.633000", "114916.636000", "114916.639000", "114916.642000", "114916.645000", "114916.649000", "114916.652000", "114916.656000", "114916.659000", "114916.662000", "114916.665000", "114916.668000", "114916.671000", "114916.674000", "114916.677000", "114916.680000", "114916.683000", "114916.686000", "114956.591000", "114956.594000", "114956.597000", "114956.600000", "114956.603000", "114956.606000", "114956.610000", "114956.613000", "114956.616000", "114956.619000", "114956.622000", "114956.625000", "114956.628000", "114956.631000", "114956.634000", "114956.637000", "114956.640000", "114956.643000", "114956.646000", "114956.649000", "114956.652000", "114956.655000", "114956.658000", "114956.661000", "114956.664000", "114956.667000", "114956.670000", "115016.592000", "115016.595000", "115016.598000", "115016.601000", "115016.604000", "115016.607000", "115016.610000", "115016.613000", "115016.616000", "115016.619000", "115016.623000", "115016.626000", "115016.629000", "115016.632000", "115056.592000", "115056.595000", "115056.598000", "115056.601000", "115056.604000", "115056.607000", "115056.610000", "115056.613000", "115056.616000", "115056.619000", "115056.622000", "115056.626000", "115056.629000", "115056.632000", "115056.635000", "115056.638000", "115056.641000", "115056.644000", "115056.647000", "115056.650000", "115056.653000", "115056.656000", "115056.659000", "115056.662000", "115056.665000", "115056.668000", "115056.671000", "115136.592000", "115136.595000", "115136.598000", "115136.601000", "115136.604000", "115136.607000", "115136.610000", "115136.613000", "115136.616000", "115136.620000", "115136.623000", "115136.626000", "115136.629000", "115136.632000", "115136.635000", "115136.638000", "115136.641000", "115136.644000", "115136.647000", "115136.650000", "115136.653000", "115136.656000", "115136.659000", "115136.662000", "115136.665000", "115136.668000", "115216.591000", "115216.594000", "115216.597000", "115216.600000", "115216.603000", "115216.606000", "115216.609000", "115216.612000", "115216.615000", "115216.618000", "115216.621000", "115216.624000", "115216.627000", "115216.630000", "115216.633000", "115216.636000", "115216.639000", "115216.642000", "115216.645000", "115216.648000", "115216.651000", "115216.654000", "115216.657000", "115216.660000", "115216.664000", "115216.667000", "115216.670000", "115256.592000", "115256.596000", "115256.599000", "115256.602000", "115256.605000", "115256.608000", "115256.611000", "115256.624000", "115256.627000", "115256.630000", "115256.633000", "115256.636000", "115256.639000", "115256.642000", "115256.645000", "115256.648000", "115256.651000", "115256.654000", "115256.657000", "115256.660000", "115256.663000", "115256.666000", "115256.669000", "115256.672000", "115256.675000", "115256.678000", "115256.681000", "115336.592000", "115336.595000", "115336.598000", "115336.601000", "115336.604000", "115336.607000", "115336.610000", "115336.613000", "115336.616000", "115336.619000", "115336.639000", "115336.642000", "115336.645000", "115336.648000", "115336.651000", "115336.654000", "115336.657000", "115336.660000", "115336.663000", "115336.666000", "115336.669000", "115336.672000", "115336.675000", "115336.678000", "115336.681000", "115336.684000", "115336.687000", "115416.591000", "115416.594000", "115416.597000", "115416.600000", "115416.603000", "115416.607000", "115416.609000", "115416.612000", "115416.615000", "115416.619000", "115416.622000", "115416.625000", "115416.628000", "115416.631000", "115416.634000", "115416.637000", "115416.640000", "115416.643000", "115416.646000", "115416.649000", "115416.652000", "115416.655000", "115416.658000", "115416.661000", "115416.664000", "115416.667000", "115416.670000", "115432.563000", "115432.566000", "115432.569000", "115432.572000", "115432.575000", "115432.578000", "115432.581000", "115432.584000", "115432.587000", "115432.590000", "115432.593000"],
