{
  "AcquisitionMatrixPE": 104,
  "AcquisitionNumber": 1,
  "AcquisitionTime": "18:19:39.002500",
  "BandwidthPerPixelPhaseEncode": 17.17,
  "BaseResolution": 104,
  "BodyPartExamined": "BRAIN",
  "CoilCombinationMethod": "Sum of Squares",
  "ConsistencyInfo": "N4_VE11C_LATEST_20160120",
  "ConversionSoftware": "dcm2niix",
  "ConversionSoftwareVersion": "v1.0.20211006",
  "DerivedVendorReportedEchoSpacing": 0.000560011,
  "DeviceSerialNumber": "167006",
  "DwellTime": 2.1e-06,
  "EchoTime": 0.037,
  "EchoTrainLength": 104,
  "EffectiveEchoSpacing": 0.000560011,
  "FlipAngle": 52,
  "HeudiconvVersion": "0.5.3.post569+g418601f",
  "ImageComments": "Unaliased MB4/PE3/LB",
  "ImageOrientationPatientDICOM": [0.998103, -0.0600134, -0.0137207, 0.0512604, 0.933605, -0.354619],
  "ImageOrientationText": "Tra>Cor(-20.7)>Sag(-2.0)",
  "ImageType": [
    "ORIGINAL",
    "PRIMARY",
    "M",
    "MB",
    "ND",
    "MOSAIC"
],
  "ImagingFrequency": 123.259,
  "InPlanePhaseEncodingDirectionDICOM": "COL",
  "InstitutionAddress": "Chemin Queen-Mary 4565,Montreal,District,CA,H3W 1W5",
  "InstitutionName": "IUGM",
  "InstitutionalDepartmentName": "Department",
  "MRAcquisitionType": "2D",
  "MagneticFieldStrength": 3,
  "Manufacturer": "Siemens",
  "ManufacturersModelName": "Prisma_fit",
  "MatrixCoilMode": "SENSE",
  "Modality": "MR",
  "MultibandAccelerationFactor": 4,
  "PartialFourier": 1,
  "PatientPosition": "HFS",
  "PercentPhaseFOV": 100,
  "PercentSampling": 100,
  "PhaseEncodingDirection": "j",
  "PhaseEncodingSteps": 104,
  "PhaseResolution": 1,
  "PixelBandwidth": 2290,
  "ProcedureStepDescription": "video^friends",
  "ProtocolName": "func_task-friends-s05e08a",
  "PulseSequenceDetails": "%CustomerSeq%\\cmrr_mbep2d_bold",
  "ReceiveCoilActiveElements": "HC1-7;NC1,2",
  "ReceiveCoilName": "HeadNeck_64",
  "ReconMatrixPE": 104,
  "RepetitionTime": 1.49,
  "SAR": 0.03431,
  "ScanOptions": "FS",
  "ScanningSequence": "EP",
  "SequenceName": "epfid2d1_104",
  "SequenceVariant": "SK\\SS",
  "SeriesDescription": "func_task-friends-s05e08a",
  "SeriesNumber": 19,
  "ShimSetting": [618, -7278, -8810, 483, 30, -388, 58, 30],
  "SliceThickness": 2,
  "SliceTiming": [0, 0.7825, 0.0975, 0.88, 0.195, 0.98, 0.2925, 1.0775, 0.39, 1.175, 0.49, 1.2725, 0.5875, 1.37, 0.685, 0, 0.7825, 0.0975, 0.88, 0.195, 0.98, 0.2925, 1.0775, 0.39, 1.175, 0.49, 1.2725, 0.5875, 1.37, 0.685, 0, 0.7825, 0.0975, 0.88, 0.195, 0.98, 0.2925, 1.0775, 0.39, 1.175, 0.49, 1.2725, 0.5875, 1.37, 0.685, 0, 0.7825, 0.0975, 0.88, 0.195, 0.98, 0.2925, 1.0775, 0.39, 1.175, 0.49, 1.2725, 0.5875, 1.37, 0.685],
  "SoftwareVersions": "syngo MR E11",
  "SpacingBetweenSlices": 2,
  "StationName": "MRC35049",
  "TaskName": "s05e08a",
  "TotalReadoutTime": 0.0576811,
  "TxRefAmp": 235.426,
  "WipMemBlock": "208e122f-ba7b-49b4-88f0-7e988348ba73||Sequence: R016 ve11c/master r/e634e98; Dec 19 2017 11:00:25 by eja",
  "dcmmeta_affine": [
    [-1.996206521987915, 0.10252079367637634, -0.06818322092294693, 97.9031753540039],
    [0.12002680450677872, 1.8672094345092773, -0.706486165523529, -76.83262634277344],
    [-0.02744141034781933, 0.7092380523681641, 1.869820475578308, -59.03153610229492],
    [0.0, 0.0, 0.0, 1.0]
],
  "dcmmeta_reorient_transform": [
    [0.0, -1.0, 0.0, 103.0],
    [1.0, 0.0, 0.0, 0.0],
    [0.0, 0.0, 1.0, 0.0],
    [0.0, 0.0, 0.0, 1.0]
],
  "dcmmeta_shape": [104, 104, 60, 446],
  "dcmmeta_slice_dim": 2,
  "dcmmeta_version": 0.6,
  "global": {
    "const": {
      "AcquisitionMatrix": [104, 0, 0, 104],
      "AngioFlag": "N",
      "BitsAllocated": 16,
      "BitsStored": 16,
      "BodyPartExamined": "BRAIN",
      "Columns": 832,
      "EchoNumbers": 1,
      "EchoTime": 37.0,
      "EchoTrainLength": 104,
      "FlipAngle": 52.0,
      "HighBit": 15,
      "ImageOrientationPatient": [0.9981032681447, -0.0600134016435, -0.0137207048672, 0.05126039761583, 0.9336046916839, -0.3546190227583],
      "ImagePositionPatient": [-872.39956496176, -751.46439740539, 282.17130368348],
      "ImageType": [
        "ORIGINAL",
        "PRIMARY",
        "M",
        "MB",
        "ND",
        "MOSAIC"
],
      "ImagedNucleus": "1H",
      "ImagingFrequency": 123.258888,
      "InPlanePhaseEncodingDirection": "COL",
      "MRAcquisitionType": "2D",
      "MagneticFieldStrength": 3.0,
      "Manufacturer": "SIEMENS",
      "ManufacturerModelName": "Prisma_fit",
      "Modality": "MR",
      "NumberOfAverages": 1.0,
      "NumberOfPhaseEncodingSteps": 104,
      "PercentPhaseFieldOfView": 100.0,
      "PercentSampling": 100.0,
      "PerformedProcedureStepStartTime": "165831.976000",
      "PhotometricInterpretation": "MONOCHROME2",
      "PixelBandwidth": 2290.0,
      "PixelRepresentation": 0,
      "PixelSpacing": [2.0, 2.0],
      "ProtocolName": "func_task-friends-s05e08a",
      "RepetitionTime": 1490.0,
      "Rows": 832,
      "SAR": 0.03431000732065,
      "SamplesPerPixel": 1,
      "ScanOptions": "FS",
      "ScanningSequence": "EP",
      "SequenceName": "epfid2d1_104",
      "SequenceVariant": [
        "SK",
        "SS"
],
      "SeriesDescription": "func_task-friends-s05e08a",
      "SeriesNumber": 19,
      "SeriesTime": "182054.881000",
      "SliceLocation": -31.386268755683,
      "SliceThickness": 2.0,
      "SmallestImagePixelValue": 0,
      "SoftwareVersions": "syngo MR E11",
      "SpacingBetweenSlices": 2.0000000730255,
      "SpecificCharacterSet": "ISO_IR 100",
      "StudyID": "1",
      "StudyTime": "165831.881000",
      "TransmitCoilName": "Body",
      "VariableFlipAngleFlag": "N",
      "WindowCenterWidthExplanation": "Algo1",
      "dBdt": 0.0},
    "slices": {}
  },
  "time": {
    "samples": {
      "AcquisitionNumber": [1, 2, 3, 4, 5, 6, 7, 8, 9, 10, 11, 12, 13, 14, 15, 16, 17, 18, 19, 20, 21, 22, 23, 24, 25, 26, 27, 28, 29, 30, 31, 32, 33, 34, 35, 36, 37, 38, 39, 40, 41, 42, 43, 44, 45, 46, 47, 48, 49, 50, 51, 52, 53, 54, 55, 56, 57, 58, 59, 60, 61, 62, 63, 64, 65, 66, 67, 68, 69, 70, 71, 72, 73, 74, 75, 76, 77, 78, 79, 80, 81, 82, 83, 84, 85, 86, 87, 88, 89, 90, 91, 92, 93, 94, 95, 96, 97, 98, 99, 100, 101, 102, 103, 104, 105, 106, 107, 108, 109, 110, 111, 112, 113, 114, 115, 116, 117, 118, 119, 120, 121, 122, 123, 124, 125, 126, 127, 128, 129, 130, 131, 132, 133, 134, 135, 136, 137, 138, 139, 140, 141, 142, 143, 144, 145, 146, 147, 148, 149, 150, 151, 152, 153, 154, 155, 156, 157, 158, 159, 160, 161, 162, 163, 164, 165, 166, 167, 168, 169, 170, 171, 172, 173, 174, 175, 176, 177, 178, 179, 180, 181, 182, 183, 184, 185, 186, 187, 188, 189, 190, 191, 192, 193, 194, 195, 196, 197, 198, 199, 200, 201, 202, 203, 204, 205, 206, 207, 208, 209, 210, 211, 212, 213, 214, 215, 216, 217, 218, 219, 220, 221, 222, 223, 224, 225, 226, 227, 228, 229, 230, 231, 232, 233, 234, 235, 236, 237, 238, 239, 240, 241, 242, 243, 244, 245, 246, 247, 248, 249, 250, 251, 252, 253, 254, 255, 256, 257, 258, 259, 260, 261, 262, 263, 264, 265, 266, 267, 268, 269, 270, 271, 272, 273, 274, 275, 276, 277, 278, 279, 280, 281, 282, 283, 284, 285, 286, 287, 288, 289, 290, 291, 292, 293, 294, 295, 296, 297, 298, 299, 300, 301, 302, 303, 304, 305, 306, 307, 308, 309, 310, 311, 312, 313, 314, 315, 316, 317, 318, 319, 320, 321, 322, 323, 324, 325, 326, 327, 328, 329, 330, 331, 332, 333, 334, 335, 336, 337, 338, 339, 340, 341, 342, 343, 344, 345, 346, 347, 348, 349, 350, 351, 352, 353, 354, 355, 356, 357, 358, 359, 360, 361, 362, 363, 364, 365, 366, 367, 368, 369, 370, 371, 372, 373, 374, 375, 376, 377, 378, 379, 380, 381, 382, 383, 384, 385, 386, 387, 388, 389, 390, 391, 392, 393, 394, 395, 396, 397, 398, 399, 400, 401, 402, 403, 404, 405, 406, 407, 408, 409, 410, 411, 412, 413, 414, 415, 416, 417, 418, 419, 420, 421, 422, 423, 424, 425, 426, 427, 428, 429, 430, 431, 432, 433, 434, 435, 436, 437, 438, 439, 440, 441, 442, 443, 444, 445, 446],
      "AcquisitionTime": ["181939.002500", "181940.492500", "181941.982500", "181943.472500", "181944.962500", "181946.452500", "181947.942500", "181949.432500", "181950.922500", "181952.412500", "181953.902500", "181955.392500", "181956.882500", "181958.372500", "181959.862500", "182001.352500", "182002.842500", "182004.332500", "182005.822500", "182007.312500", "182008.802500", "182010.292500", "182011.782500", "182013.272500", "182014.762500", "182016.252500", "182017.742500", "182019.232500", "182020.722500", "182022.212500", "182023.702500", "182025.192500", "182026.682500", "182028.172500", "182029.662500", "182031.152500", "182032.642500", "182034.132500", "182035.622500", "182037.112500", "182038.602500", "182040.092500", "182041.582500", "182043.072500", "182044.562500", "182046.052500", "182047.542500", "182049.032500", "182050.522500", "182052.012500", "182053.502500", "182054.992500", "182056.482500", "182057.972500", "182059.462500", "182100.952500", "182102.442500", "182103.932500", "182105.422500", "182106.912500", "182108.402500", "182109.892500", "182111.382500", "182112.872500", "182114.362500", "182115.852500", "182117.342500", "182118.832500", "182120.322500", "182121.812500", "182123.302500", "182124.792500", "182126.282500", "182127.772500", "182129.262500", "182130.752500", "182132.242500", "182133.732500", "182135.222500", "182136.712500", "182138.202500", "182139.692500", "182141.182500", "182142.672500", "182144.162500", "182145.652500", "182147.142500", "182148.632500", "182150.122500", "182151.612500", "182153.102500", "182154.592500", "182156.082500", "182157.572500", "182159.062500", "182200.552500", "182202.042500", "182203.532500", "182205.022500", "182206.512500", "182208.002500", "182209.492500", "182210.982500", "182212.472500", "182213.962500", "182215.452500", "182216.942500", "182218.432500", "182219.922500", "182221.412500", "182222.902500", "182224.392500", "182225.882500", "182227.372500", "182228.862500", "182230.352500", "182231.842500", "182233.332500", "182234.822500", "182236.312500", "182237.802500", "182239.292500", "182240.782500", "182242.272500", "182243.762500", "182245.252500", "182246.742500", "182248.232500", "182249.722500", "182251.212500", "182252.702500", "182254.192500", "182255.682500", "182257.172500", "182258.662500", "182300.152500", "182301.642500", "182303.132500", "182304.622500", "182306.112500", "182307.602500", "182309.092500", "182310.582500", "182312.072500", "182313.562500", "182315.052500", "182316.542500", "182318.032500", "182319.522500", "182321.012500", "182322.502500", "182323.992500", "182325.482500", "182326.972500", "182328.462500", "182329.952500", "182331.442500", "182332.932500", "182334.422500", "182335.912500", "182337.402500", "182338.892500", "182340.382500", "182341.872500", "182343.362500", "182344.852500", "182346.342500", "182347.832500", "182349.322500", "182350.812500", "182352.302500", "182353.792500", "182355.282500", "182356.772500", "182358.262500", "182359.752500", "182401.242500", "182402.732500", "182404.222500", "182405.712500", "182407.202500", "182408.692500", "182410.182500", "182411.672500", "182413.162500", "182414.652500", "182416.142500", "182417.632500", "182419.122500", "182420.612500", "182422.102500", "182423.592500", "182425.082500", "182426.572500", "182428.062500", "182429.552500", "182431.042500", "182432.532500", "182434.022500", "182435.512500", "182437.002500", "182438.492500", "182439.982500", "182441.472500", "182442.962500", "182444.452500", "182445.942500", "182447.432500", "182448.922500", "182450.412500", "182451.902500", "182453.392500", "182454.882500", "182456.372500", "182457.862500", "182459.352500", "182500.842500", "182502.332500", "182503.822500", "182505.312500", "182506.802500", "182508.292500", "182509.782500", "182511.272500", "182512.762500", "182514.252500", "182515.742500", "182517.232500", "182518.722500", "182520.212500", "182521.702500", "182523.192500", "182524.682500", "182526.172500", "182527.662500", "182529.152500", "182530.642500", "182532.132500", "182533.622500", "182535.112500", "182536.602500", "182538.092500", "182539.582500", "182541.072500", "182542.562500", "182544.052500", "182545.542500", "182547.032500", "182548.522500", "182550.012500", "182551.502500", "182552.992500", "182554.482500", "182555.972500", "182557.462500", "182558.952500", "182600.442500", "182601.932500", "182603.422500", "182604.912500", "182606.402500", "182607.892500", "182609.382500", "182610.872500", "182612.362500", "182613.852500", "182615.342500", "182616.832500", "182618.322500", "182619.812500", "182621.302500", "182622.792500", "182624.282500", "182625.772500", "182627.262500", "182628.752500", "182630.242500", "182631.732500", "182633.222500", "182634.712500", "182636.202500", "182637.692500", "182639.182500", "182640.672500", "182642.162500", "182643.652500", "182645.142500", "182646.632500", "182648.122500", "182649.612500", "182651.102500", "182652.592500", "182654.082500", "182655.572500", "182657.062500", "182658.552500", "182700.042500", "182701.532500", "182703.022500", "182704.512500", "182706.002500", "182707.492500", "182708.982500", "182710.472500", "182711.962500", "182713.452500", "182714.942500", "182716.432500", "182717.922500", "182719.412500", "182720.902500", "182722.392500", "182723.882500", "182725.372500", "182726.862500", "182728.352500", "182729.842500", "182731.332500", "182732.822500", "182734.312500", "182735.802500", "182737.292500", "182738.782500", "182740.272500", "182741.762500", "182743.252500", "182744.742500", "182746.232500", "182747.722500", "182749.212500", "182750.702500", "182752.192500", "182753.682500", "182755.172500", "182756.662500", "182758.152500", "182759.642500", "182801.132500", "182802.622500", "182804.112500", "182805.602500", "182807.092500", "182808.582500", "182810.072500", "182811.562500", "182813.052500", "182814.542500", "182816.032500", "182817.522500", "182819.012500", "182820.502500", "182821.992500", "182823.482500", "182824.972500", "182826.462500", "182827.952500", "182829.442500", "182830.932500", "182832.422500", "182833.912500", "182835.402500", "182836.892500", "182838.382500", "182839.872500", "182841.362500", "182842.852500", "182844.342500", "182845.832500", "182847.322500", "182848.812500", "182850.302500", "182851.792500", "182853.282500", "182854.772500", "182856.262500", "182857.752500", "182859.242500", "182900.732500", "182902.222500", "182903.712500", "182905.202500", "182906.692500", "182908.182500", "182909.672500", "182911.162500", "182912.652500", "182914.142500", "182915.632500", "182917.122500", "182918.612500", "182920.102500", "182921.592500", "182923.082500", "182924.572500", "182926.062500", "182927.552500", "182929.042500", "182930.532500", "182932.022500", "182933.512500", "182935.002500", "182936.492500", "182937.982500", "182939.472500", "182940.962500", "182942.452500", "182943.942500", "182945.432500", "182946.922500", "182948.412500", "182949.902500", "182951.392500", "182952.882500", "182954.372500", "182955.862500", "182957.352500", "182958.842500", "183000.332500", "183001.822500", "183003.312500", "183004.802500", "183006.292500", "183007.782500", "183009.272500", "183010.762500", "183012.252500", "183013.742500", "183015.232500", "183016.722500", "183018.212500", "183019.702500", "183021.192500", "183022.682500", "183024.172500", "183025.662500", "183027.152500", "183028.642500", "183030.132500", "183031.622500", "183033.112500", "183034.602500", "183036.092500", "183037.582500", "183039.072500", "183040.562500", "183042.052500"],
      "ContentTime": ["182054.883000", "182054.887000", "182054.890000", "182054.893000", "182054.896000", "182054.899000", "182054.901000", "182054.904000", "182054.907000", "182054.911000", "182054.914000", "182054.916000", "182054.919000", "182054.922000", "182054.925000", "182054.928000", "182054.931000", "182054.933000", "182054.943000", "182054.946000", "182054.949000", "182054.951000", "182054.954000", "182114.847000", "182114.879000", "182114.882000", "182114.884000", "182114.887000", "182114.890000", "182114.894000", "182114.897000", "182114.900000", "182114.904000", "182114.907000", "182114.910000", "182114.913000", "182114.916000", "182114.919000", "182114.921000", "182114.924000", "182114.927000", "182114.930000", "182114.933000", "182134.848000", "182134.851000", "182134.854000", "182134.857000", "182134.859000", "182134.862000", "182134.865000", "182134.868000", "182134.871000", "182134.885000", "182134.888000", "182134.891000", "182134.894000", "182134.897000", "182134.899000", "182134.902000", "182134.913000", "182134.916000", "182134.918000", "182134.921000", "182134.924000", "182154.848000", "182154.851000", "182154.854000", "182154.857000", "182154.860000", "182154.863000", "182154.865000", "182154.868000", "182154.871000", "182154.884000", "182154.887000", "182154.890000", "182154.893000", "182154.896000", "182154.899000", "182154.902000", "182154.904000", "182154.907000", "182154.910000", "182154.913000", "182214.848000", "182214.851000", "182214.854000", "182214.857000", "182214.859000", "182214.862000", "182214.865000", "182214.868000", "182214.871000", "182214.874000", "182214.877000", "182214.880000", "182214.882000", "182214.885000", "182214.888000", "182214.891000", "182214.894000", "182214.897000", "182214.900000", "182214.903000", "182254.848000", "182254.851000", "182254.854000", "182254.857000", "182254.860000", "182254.862000", "182254.875000", "182254.878000", "182254.881000", "182254.884000", "182254.887000", "182254.890000", "182254.893000", "182254.896000", "182254.899000", "182254.902000", "182254.905000", "182254.907000", "182254.910000", "182254.913000", "182254.916000", "182254.919000", "182254.922000", "182254.925000", "182254.928000", "182254.930000", "182254.933000", "182334.847000", "182334.850000", "182334.853000", "182334.856000", "182334.858000", "182334.861000", "182334.864000", "182334.867000", "182334.870000", "182334.873000", "182334.876000", "182334.879000", "182334.882000", "182334.886000", "182334.889000", "182334.892000", "182334.894000", "182334.897000", "182334.900000", "182334.903000", "182334.906000", "182334.909000", "182334.912000", "182334.915000", "182334.917000", "182334.920000", "182414.848000", "182414.851000", "182414.854000", "182414.857000", "182414.860000", "182414.862000", "182414.865000", "182414.868000", "182414.871000", "182414.874000", "182414.877000", "182414.880000", "182414.882000", "182414.885000", "182414.888000", "182414.891000", "182414.894000", "182414.897000", "182414.900000", "182414.903000", "182414.905000", "182414.908000", "182414.911000", "182414.914000", "182414.917000", "182414.920000", "182414.922000", "182454.848000", "182454.851000", "182454.854000", "182454.857000", "182454.860000", "182454.862000", "182454.865000", "182454.868000", "182454.871000", "182454.874000", "182454.877000", "182454.880000", "182454.882000", "182454.885000", "182454.888000", "182454.891000", "182454.894000", "182454.897000", "182454.900000", "182454.903000", "182454.906000", "182454.909000", "182454.912000", "182454.914000", "182454.917000", "182454.920000", "182454.923000", "182534.848000", "182534.851000", "182534.854000", "182534.857000", "182534.859000", "182534.862000", "182534.865000", "182534.868000", "182534.871000", "182534.874000", "182534.877000", "182534.880000", "182534.882000", "182534.885000", "182534.888000", "182534.891000", "182534.894000", "182534.897000", "182534.900000", "182534.902000", "182534.905000", "182534.908000", "182534.911000", "182534.914000", "182534.917000", "182534.920000", "182534.923000", "182614.848000", "182614.851000", "182614.861000", "182614.864000", "182614.867000", "182614.870000", "182614.873000", "182614.876000", "182614.879000", "182614.881000", "182614.884000", "182614.887000", "182614.890000", "182614.893000", "182614.896000", "182614.899000", "182614.901000", "182614.904000", "182614.907000", "182614.910000", "182614.913000", "182614.916000", "182614.919000", "182614.921000", "182614.924000", "182614.927000", "182614.930000", "182654.848000", "182654.851000", "182654.854000", "182654.857000", "182654.860000", "182654.862000", "182654.865000", "182654.868000", "182654.871000", "182654.874000", "182654.877000", "182654.880000", "182654.883000", "182654.885000", "182654.888000", "182654.891000", "182654.894000", "182654.897000", "182654.900000", "182654.903000", "182654.905000", "182654.908000", "182654.911000", "182654.914000", "182654.917000", "182654.920000", "182654.923000", "182734.848000", "182734.851000", "182734.854000", "182734.857000", "182734.860000", "182734.862000", "182734.865000", "182734.868000", "182734.871000", "182734.874000", "182734.877000", "182734.880000", "182734.883000", "182734.885000", "182734.888000", "182734.891000", "182734.894000", "182734.897000", "182734.900000", "182734.903000", "182734.905000", "182734.908000", "182734.911000", "182734.914000", "182734.917000", "182734.920000", "182734.923000", "182814.847000", "182814.850000", "182814.853000", "182814.856000", "182814.859000", "182814.862000", "182814.865000", "182814.868000", "182814.871000", "182814.874000", "182814.877000", "182814.880000", "182814.883000", "182814.885000", "182814.888000", "182814.891000", "182814.894000", "182814.897000", "182814.900000", "182814.903000", "182814.906000", "182814.908000", "182814.911000", "182814.914000", "182814.917000", "182814.920000", "182854.848000", "182854.851000", "182854.854000", "182854.857000", "182854.860000", "182854.863000", "182854.866000", "182854.868000", "182854.871000", "182854.874000", "182854.877000", "182854.880000", "182854.883000", "182854.886000", "182854.888000", "182854.891000", "182854.894000", "182854.897000", "182854.900000", "182854.903000", "182854.906000", "182854.909000", "182854.911000", "182854.914000", "182854.917000", "182854.920000", "182854.923000", "182934.848000", "182934.851000", "182934.854000", "182934.857000", "182934.860000", "182934.862000", "182934.865000", "182934.868000", "182934.871000", "182934.874000", "182934.877000", "182934.880000", "182934.882000", "182934.885000", "182934.888000", "182934.891000", "182934.894000", "182934.897000", "182934.900000", "182934.903000", "182934.906000", "182934.909000", "182934.911000", "182934.914000", "182934.917000", "182934.920000", "182934.923000", "183014.848000", "183014.851000", "183014.854000", "183014.857000", "183014.860000", "183014.863000", "183014.865000", "183014.868000", "183014.871000", "183014.874000", "183014.877000", "183014.880000", "183014.883000", "183014.886000", "183014.888000", "183014.891000", "183014.894000", "183014.897000", "183014.900000", "183014.903000", "183014.906000", "183014.908000", "183014.911000", "183014.914000", "183014.917000", "183014.920000", "183014.923000", "183044.051000", "183044.054000", "183044.057000", "183044.065000", "183044.068000", "183044.071000", "183044.074000", "183044.077000", "183044.080000", "183044.083000", "183044.086000", "183044.089000", "183044.092000", "183044.095000", "183044.098000", "183044.101000", "183044.104000", "183044.107000", "183044.110000", "183044.113000"],
