{
  "AcquisitionMatrixPE": 104,
  "AcquisitionNumber": 1,
  "AcquisitionTime": "17:17:49.575000",
  "BandwidthPerPixelPhaseEncode": 17.17,
  "BaseResolution": 104,
  "BodyPartExamined": "BRAIN",
  "CoilCombinationMethod": "Sum of Squares",
  "ConsistencyInfo": "N4_VE11C_LATEST_20160120",
  "ConversionSoftware": "dcm2niix",
  "ConversionSoftwareVersion": "v1.0.20211006",
  "DerivedVendorReportedEchoSpacing": 0.000560011,
  "DeviceSerialNumber": "167006",
  "DwellTime": 2.1e-06,
  "EchoTime": 0.037,
  "EchoTrainLength": 104,
  "EffectiveEchoSpacing": 0.000560011,
  "FlipAngle": 52,
  "HeudiconvVersion": "0.5.3.post569+g418601f",
  "ImageComments": "Unaliased MB4/PE3/LB",
  "ImageOrientationPatientDICOM": [0.998103, -0.0600134, -0.0137207, 0.0512604, 0.933605, -0.354619],
  "ImageOrientationText": "Tra>Cor(-20.7)>Sag(-2.0)",
  "ImageType": [
    "ORIGINAL",
    "PRIMARY",
    "M",
    "MB",
    "ND",
    "MOSAIC"
],
  "ImagingFrequency": 123.259,
  "InPlanePhaseEncodingDirectionDICOM": "COL",
  "InstitutionAddress": "Chemin Queen-Mary 4565,Montreal,District,CA,H3W 1W5",
  "InstitutionName": "IUGM",
  "InstitutionalDepartmentName": "Department",
  "MRAcquisitionType": "2D",
  "MagneticFieldStrength": 3,
  "Manufacturer": "Siemens",
  "ManufacturersModelName": "Prisma_fit",
  "MatrixCoilMode": "SENSE",
  "Modality": "MR",
  "MultibandAccelerationFactor": 4,
  "PartialFourier": 1,
  "PatientPosition": "HFS",
  "PercentPhaseFOV": 100,
  "PercentSampling": 100,
  "PhaseEncodingDirection": "j",
  "PhaseEncodingSteps": 104,
  "PhaseResolution": 1,
  "PixelBandwidth": 2290,
  "ProcedureStepDescription": "video^friends",
  "ProtocolName": "func_task-friends-s05e06a",
  "PulseSequenceDetails": "%CustomerSeq%\\cmrr_mbep2d_bold",
  "ReceiveCoilActiveElements": "HC1-7;NC1,2",
  "ReceiveCoilName": "HeadNeck_64",
  "ReconMatrixPE": 104,
  "RepetitionTime": 1.49,
  "SAR": 0.0343143,
  "ScanOptions": "FS",
  "ScanningSequence": "EP",
  "SequenceName": "epfid2d1_104",
  "SequenceVariant": "SK\\SS",
  "SeriesDescription": "func_task-friends-s05e06a",
  "SeriesNumber": 9,
  "ShimSetting": [618, -7278, -8810, 483, 30, -388, 58, 30],
  "SliceThickness": 2,
  "SliceTiming": [0, 0.7825, 0.0975, 0.88, 0.195, 0.98, 0.2925, 1.0775, 0.39, 1.175, 0.49, 1.2725, 0.5875, 1.37, 0.685, 0, 0.7825, 0.0975, 0.88, 0.195, 0.98, 0.2925, 1.0775, 0.39, 1.175, 0.49, 1.2725, 0.5875, 1.37, 0.685, 0, 0.7825, 0.0975, 0.88, 0.195, 0.98, 0.2925, 1.0775, 0.39, 1.175, 0.49, 1.2725, 0.5875, 1.37, 0.685, 0, 0.7825, 0.0975, 0.88, 0.195, 0.98, 0.2925, 1.0775, 0.39, 1.175, 0.49, 1.2725, 0.5875, 1.37, 0.685],
  "SoftwareVersions": "syngo MR E11",
  "SpacingBetweenSlices": 2,
  "StationName": "MRC35049",
  "TaskName": "s05e06a",
  "TotalReadoutTime": 0.0576811,
  "TxRefAmp": 235.426,
  "WipMemBlock": "3b7958e4-66cd-48b6-939d-c5d7c2bc7af8||Sequence: R016 ve11c/master r/e634e98; Dec 19 2017 11:00:25 by eja",
  "dcmmeta_affine": [
    [-1.996206521987915, 0.10252079367637634, -0.06818322092294693, 97.9031753540039],
    [0.12002680450677872, 1.8672094345092773, -0.706486165523529, -76.83262634277344],
    [-0.02744141034781933, 0.7092380523681641, 1.869820475578308, -59.03153610229492],
    [0.0, 0.0, 0.0, 1.0]
],
  "dcmmeta_reorient_transform": [
    [0.0, -1.0, 0.0, 103.0],
    [1.0, 0.0, 0.0, 0.0],
    [0.0, 0.0, 1.0, 0.0],
    [0.0, 0.0, 0.0, 1.0]
],
  "dcmmeta_shape": [104, 104, 60, 459],
  "dcmmeta_slice_dim": 2,
  "dcmmeta_version": 0.6,
  "global": {
    "const": {
      "AcquisitionMatrix": [104, 0, 0, 104],
      "AngioFlag": "N",
      "BitsAllocated": 16,
      "BitsStored": 16,
      "BodyPartExamined": "BRAIN",
      "Columns": 832,
      "EchoNumbers": 1,
      "EchoTime": 37.0,
      "EchoTrainLength": 104,
      "FlipAngle": 52.0,
      "HighBit": 15,
      "ImageOrientationPatient": [0.9981032681447, -0.0600134016435, -0.0137207048672, 0.05126039761583, 0.9336046916839, -0.3546190227583],
      "ImagePositionPatient": [-872.39956496176, -751.46439740539, 282.17130368348],
      "ImageType": [
        "ORIGINAL",
        "PRIMARY",
        "M",
        "MB",
        "ND",
        "MOSAIC"
],
      "ImagedNucleus": "1H",
      "ImagingFrequency": 123.258861,
      "InPlanePhaseEncodingDirection": "COL",
      "MRAcquisitionType": "2D",
      "MagneticFieldStrength": 3.0,
      "Manufacturer": "SIEMENS",
      "ManufacturerModelName": "Prisma_fit",
      "Modality": "MR",
      "NumberOfAverages": 1.0,
      "NumberOfPhaseEncodingSteps": 104,
      "PercentPhaseFieldOfView": 100.0,
      "PercentSampling": 100.0,
      "PerformedProcedureStepStartTime": "165831.976000",
      "PhotometricInterpretation": "MONOCHROME2",
      "PixelBandwidth": 2290.0,
      "PixelRepresentation": 0,
      "PixelSpacing": [2.0, 2.0],
      "ProtocolName": "func_task-friends-s05e06a",
      "RepetitionTime": 1490.0,
      "Rows": 832,
      "SAR": 0.03431430871766,
      "SamplesPerPixel": 1,
      "ScanOptions": "FS",
      "ScanningSequence": "EP",
      "SequenceName": "epfid2d1_104",
      "SequenceVariant": [
        "SK",
        "SS"
],
      "SeriesDescription": "func_task-friends-s05e06a",
      "SeriesNumber": 9,
      "SeriesTime": "171906.553000",
      "SliceLocation": -31.386268755683,
      "SliceThickness": 2.0,
      "SmallestImagePixelValue": 0,
      "SoftwareVersions": "syngo MR E11",
      "SpacingBetweenSlices": 2.0000000730255,
      "SpecificCharacterSet": "ISO_IR 100",
      "StudyID": "1",
      "StudyTime": "165831.881000",
      "TransmitCoilName": "Body",
      "VariableFlipAngleFlag": "N",
      "WindowCenterWidthExplanation": "Algo1",
      "dBdt": 0.0},
    "slices": {}
  },
  "time": {
    "samples": {
      "AcquisitionNumber": [1, 2, 3, 4, 5, 6, 7, 8, 9, 10, 11, 12, 13, 14, 15, 16, 17, 18, 19, 20, 21, 22, 23, 24, 25, 26, 27, 28, 29, 30, 31, 32, 33, 34, 35, 36, 37, 38, 39, 40, 41, 42, 43, 44, 45, 46, 47, 48, 49, 50, 51, 52, 53, 54, 55, 56, 57, 58, 59, 60, 61, 62, 63, 64, 65, 66, 67, 68, 69, 70, 71, 72, 73, 74, 75, 76, 77, 78, 79, 80, 81, 82, 83, 84, 85, 86, 87, 88, 89, 90, 91, 92, 93, 94, 95, 96, 97, 98, 99, 100, 101, 102, 103, 104, 105, 106, 107, 108, 109, 110, 111, 112, 113, 114, 115, 116, 117, 118, 119, 120, 121, 122, 123, 124, 125, 126, 127, 128, 129, 130, 131, 132, 133, 134, 135, 136, 137, 138, 139, 140, 141, 142, 143, 144, 145, 146, 147, 148, 149, 150, 151, 152, 153, 154, 155, 156, 157, 158, 159, 160, 161, 162, 163, 164, 165, 166, 167, 168, 169, 170, 171, 172, 173, 174, 175, 176, 177, 178, 179, 180, 181, 182, 183, 184, 185, 186, 187, 188, 189, 190, 191, 192, 193, 194, 195, 196, 197, 198, 199, 200, 201, 202, 203, 204, 205, 206, 207, 208, 209, 210, 211, 212, 213, 214, 215, 216, 217, 218, 219, 220, 221, 222, 223, 224, 225, 226, 227, 228, 229, 230, 231, 232, 233, 234, 235, 236, 237, 238, 239, 240, 241, 242, 243, 244, 245, 246, 247, 248, 249, 250, 251, 252, 253, 254, 255, 256, 257, 258, 259, 260, 261, 262, 263, 264, 265, 266, 267, 268, 269, 270, 271, 272, 273, 274, 275, 276, 277, 278, 279, 280, 281, 282, 283, 284, 285, 286, 287, 288, 289, 290, 291, 292, 293, 294, 295, 296, 297, 298, 299, 300, 301, 302, 303, 304, 305, 306, 307, 308, 309, 310, 311, 312, 313, 314, 315, 316, 317, 318, 319, 320, 321, 322, 323, 324, 325, 326, 327, 328, 329, 330, 331, 332, 333, 334, 335, 336, 337, 338, 339, 340, 341, 342, 343, 344, 345, 346, 347, 348, 349, 350, 351, 352, 353, 354, 355, 356, 357, 358, 359, 360, 361, 362, 363, 364, 365, 366, 367, 368, 369, 370, 371, 372, 373, 374, 375, 376, 377, 378, 379, 380, 381, 382, 383, 384, 385, 386, 387, 388, 389, 390, 391, 392, 393, 394, 395, 396, 397, 398, 399, 400, 401, 402, 403, 404, 405, 406, 407, 408, 409, 410, 411, 412, 413, 414, 415, 416, 417, 418, 419, 420, 421, 422, 423, 424, 425, 426, 427, 428, 429, 430, 431, 432, 433, 434, 435, 436, 437, 438, 439, 440, 441, 442, 443, 444, 445, 446, 447, 448, 449, 450, 451, 452, 453, 454, 455, 456, 457, 458, 459],
      "AcquisitionTime": ["171749.575000", "171751.065000", "171752.555000", "171754.045000", "171755.535000", "171757.025000", "171758.515000", "171800.005000", "171801.495000", "171802.985000", "171804.475000", "171805.965000", "171807.455000", "171808.945000", "171810.435000", "171811.925000", "171813.415000", "171814.905000", "171816.395000", "171817.885000", "171819.375000", "171820.865000", "171822.355000", "171823.845000", "171825.335000", "171826.825000", "171828.315000", "171829.805000", "171831.295000", "171832.785000", "171834.275000", "171835.765000", "171837.255000", "171838.745000", "171840.235000", "171841.725000", "171843.215000", "171844.705000", "171846.195000", "171847.685000", "171849.175000", "171850.665000", "171852.155000", "171853.645000", "171855.135000", "171856.625000", "171858.115000", "171859.605000", "171901.095000", "171902.585000", "171904.075000", "171905.565000", "171907.055000", "171908.545000", "171910.035000", "171911.525000", "171913.015000", "171914.505000", "171915.995000", "171917.485000", "171918.975000", "171920.465000", "171921.955000", "171923.445000", "171924.935000", "171926.425000", "171927.915000", "171929.405000", "171930.895000", "171932.385000", "171933.875000", "171935.365000", "171936.855000", "171938.345000", "171939.835000", "171941.325000", "171942.815000", "171944.305000", "171945.795000", "171947.285000", "171948.775000", "171950.265000", "171951.755000", "171953.245000", "171954.735000", "171956.225000", "171957.715000", "171959.205000", "172000.695000", "172002.185000", "172003.675000", "172005.165000", "172006.655000", "172008.145000", "172009.635000", "172011.125000", "172012.615000", "172014.105000", "172015.595000", "172017.085000", "172018.575000", "172020.065000", "172021.555000", "172023.045000", "172024.535000", "172026.025000", "172027.515000", "172029.005000", "172030.495000", "172031.985000", "172033.475000", "172034.965000", "172036.455000", "172037.945000", "172039.435000", "172040.925000", "172042.415000", "172043.905000", "172045.395000", "172046.885000", "172048.375000", "172049.865000", "172051.355000", "172052.845000", "172054.335000", "172055.825000", "172057.315000", "172058.805000", "172100.295000", "172101.785000", "172103.275000", "172104.765000", "172106.255000", "172107.745000", "172109.235000", "172110.725000", "172112.215000", "172113.705000", "172115.195000", "172116.685000", "172118.175000", "172119.665000", "172121.155000", "172122.645000", "172124.135000", "172125.625000", "172127.115000", "172128.605000", "172130.095000", "172131.585000", "172133.075000", "172134.565000", "172136.055000", "172137.545000", "172139.035000", "172140.525000", "172142.015000", "172143.505000", "172144.995000", "172146.485000", "172147.975000", "172149.465000", "172150.955000", "172152.445000", "172153.935000", "172155.425000", "172156.915000", "172158.405000", "172159.895000", "172201.385000", "172202.875000", "172204.365000", "172205.855000", "172207.345000", "172208.835000", "172210.325000", "172211.815000", "172213.305000", "172214.795000", "172216.285000", "172217.775000", "172219.265000", "172220.755000", "172222.245000", "172223.735000", "172225.225000", "172226.715000", "172228.205000", "172229.695000", "172231.185000", "172232.675000", "172234.165000", "172235.655000", "172237.145000", "172238.635000", "172240.125000", "172241.615000", "172243.105000", "172244.595000", "172246.085000", "172247.575000", "172249.065000", "172250.555000", "172252.045000", "172253.535000", "172255.025000", "172256.515000", "172258.005000", "172259.495000", "172300.985000", "172302.475000", "172303.965000", "172305.455000", "172306.945000", "172308.435000", "172309.925000", "172311.415000", "172312.905000", "172314.395000", "172315.885000", "172317.375000", "172318.865000", "172320.355000", "172321.845000", "172323.335000", "172324.825000", "172326.315000", "172327.805000", "172329.295000", "172330.785000", "172332.275000", "172333.765000", "172335.255000", "172336.745000", "172338.235000", "172339.725000", "172341.215000", "172342.705000", "172344.195000", "172345.685000", "172347.175000", "172348.665000", "172350.155000", "172351.645000", "172353.135000", "172354.625000", "172356.115000", "172357.605000", "172359.095000", "172400.585000", "172402.075000", "172403.565000", "172405.055000", "172406.545000", "172408.035000", "172409.525000", "172411.015000", "172412.505000", "172413.995000", "172415.485000", "172416.975000", "172418.465000", "172419.955000", "172421.445000", "172422.935000", "172424.425000", "172425.915000", "172427.405000", "172428.895000", "172430.385000", "172431.875000", "172433.365000", "172434.855000", "172436.345000", "172437.835000", "172439.325000", "172440.815000", "172442.305000", "172443.795000", "172445.285000", "172446.775000", "172448.265000", "172449.755000", "172451.245000", "172452.735000", "172454.225000", "172455.715000", "172457.205000", "172458.695000", "172500.185000", "172501.675000", "172503.165000", "172504.655000", "172506.145000", "172507.635000", "172509.125000", "172510.615000", "172512.105000", "172513.595000", "172515.085000", "172516.575000", "172518.065000", "172519.555000", "172521.045000", "172522.535000", "172524.025000", "172525.515000", "172527.005000", "172528.495000", "172529.985000", "172531.475000", "172532.965000", "172534.455000", "172535.945000", "172537.435000", "172538.925000", "172540.415000", "172541.905000", "172543.395000", "172544.885000", "172546.375000", "172547.865000", "172549.355000", "172550.845000", "172552.335000", "172553.825000", "172555.315000", "172556.805000", "172558.295000", "172559.785000", "172601.275000", "172602.765000", "172604.255000", "172605.745000", "172607.235000", "172608.725000", "172610.215000", "172611.705000", "172613.195000", "172614.685000", "172616.175000", "172617.665000", "172619.155000", "172620.645000", "172622.135000", "172623.625000", "172625.115000", "172626.605000", "172628.095000", "172629.585000", "172631.075000", "172632.565000", "172634.055000", "172635.545000", "172637.035000", "172638.525000", "172640.015000", "172641.505000", "172642.995000", "172644.485000", "172645.975000", "172647.465000", "172648.955000", "172650.445000", "172651.935000", "172653.425000", "172654.915000", "172656.405000", "172657.895000", "172659.385000", "172700.875000", "172702.365000", "172703.855000", "172705.345000", "172706.835000", "172708.325000", "172709.815000", "172711.305000", "172712.795000", "172714.285000", "172715.775000", "172717.265000", "172718.755000", "172720.245000", "172721.735000", "172723.225000", "172724.715000", "172726.205000", "172727.695000", "172729.185000", "172730.675000", "172732.165000", "172733.655000", "172735.145000", "172736.635000", "172738.125000", "172739.615000", "172741.105000", "172742.595000", "172744.085000", "172745.575000", "172747.065000", "172748.555000", "172750.045000", "172751.535000", "172753.025000", "172754.515000", "172756.005000", "172757.495000", "172758.985000", "172800.475000", "172801.965000", "172803.455000", "172804.945000", "172806.435000", "172807.925000", "172809.415000", "172810.905000", "172812.395000", "172813.885000", "172815.375000", "172816.865000", "172818.355000", "172819.845000", "172821.335000", "172822.825000", "172824.315000", "172825.805000", "172827.295000", "172828.785000", "172830.275000", "172831.765000", "172833.255000", "172834.745000", "172836.235000", "172837.725000", "172839.215000", "172840.705000", "172842.195000", "172843.685000", "172845.175000", "172846.665000", "172848.155000", "172849.645000", "172851.135000", "172852.625000", "172854.115000", "172855.605000", "172857.095000", "172858.585000", "172900.075000", "172901.565000", "172903.055000", "172904.545000", "172906.035000", "172907.525000", "172909.015000", "172910.505000", "172911.995000"],
      "ContentTime": ["171906.556000", "171906.559000", "171906.562000", "171906.565000", "171906.568000", "171906.584000", "171906.587000", "171906.590000", "171906.593000", "171906.596000", "171906.598000", "171906.601000", "171906.604000", "171906.607000", "171906.612000", "171906.614000", "171906.617000", "171906.624000", "171906.626000", "171906.629000", "171906.632000", "171926.517000", "171926.520000", "171926.523000", "171926.525000", "171926.534000", "171926.537000", "171926.539000", "171926.542000", "171926.545000", "171926.548000", "171926.551000", "171926.554000", "171926.557000", "171926.563000", "171926.566000", "171926.569000", "171926.572000", "171926.575000", "171926.578000", "171926.580000", "171946.517000", "171946.520000", "171946.523000", "171946.525000", "171946.528000", "171946.531000", "171946.534000", "171946.537000", "171946.540000", "171946.543000", "171946.545000", "171946.548000", "171946.551000", "171946.554000", "171946.557000", "171946.560000", "171946.562000", "171946.565000", "171946.568000", "171946.571000", "172006.518000", "172006.521000", "172006.524000", "172006.527000", "172006.529000", "172006.532000", "172006.535000", "172006.538000", "172006.541000", "172006.544000", "172006.547000", "172006.549000", "172006.552000", "172006.555000", "172006.558000", "172006.561000", "172006.564000", "172006.567000", "172006.569000", "172006.572000", "172026.517000", "172026.520000", "172026.523000", "172026.525000", "172026.528000", "172026.531000", "172026.534000", "172026.537000", "172026.540000", "172026.542000", "172026.545000", "172026.548000", "172026.551000", "172026.554000", "172026.557000", "172026.560000", "172026.562000", "172026.565000", "172026.568000", "172026.571000", "172026.574000", "172106.517000", "172106.520000", "172106.539000", "172106.542000", "172106.545000", "172106.548000", "172106.550000", "172106.553000", "172106.556000", "172106.559000", "172106.562000", "172106.565000", "172106.567000", "172106.570000", "172106.573000", "172106.576000", "172106.579000", "172106.582000", "172106.585000", "172106.588000", "172106.591000", "172106.593000", "172106.596000", "172106.599000", "172106.602000", "172106.605000", "172106.608000", "172106.610000", "172106.613000", "172146.517000", "172146.520000", "172146.523000", "172146.526000", "172146.529000", "172146.531000", "172146.534000", "172146.537000", "172146.540000", "172146.543000", "172146.546000", "172146.548000", "172146.551000", "172146.554000", "172146.557000", "172146.560000", "172146.563000", "172146.566000", "172146.569000", "172146.572000", "172146.575000", "172146.577000", "172146.580000", "172146.583000", "172146.586000", "172146.589000", "172146.592000", "172226.518000", "172226.521000", "172226.524000", "172226.527000", "172226.529000", "172226.532000", "172226.535000", "172226.538000", "172226.541000", "172226.544000", "172226.547000", "172226.549000", "172226.552000", "172226.555000", "172226.558000", "172226.561000", "172226.564000", "172226.567000", "172226.570000", "172226.573000", "172226.575000", "172226.578000", "172226.581000", "172226.584000", "172226.591000", "172226.594000", "172226.597000", "172306.517000", "172306.520000", "172306.523000", "172306.526000", "172306.528000", "172306.531000", "172306.534000", "172306.537000", "172306.540000", "172306.543000", "172306.545000", "172306.548000", "172306.551000", "172306.554000", "172306.557000", "172306.560000", "172306.563000", "172306.566000", "172306.568000", "172306.571000", "172306.574000", "172306.577000", "172306.580000", "172306.583000", "172306.586000", "172306.588000", "172306.591000", "172346.517000", "172346.520000", "172346.523000", "172346.526000", "172346.528000", "172346.531000", "172346.534000", "172346.537000", "172346.540000", "172346.543000", "172346.546000", "172346.548000", "172346.551000", "172346.554000", "172346.557000", "172346.560000", "172346.563000", "172346.566000", "172346.569000", "172346.572000", "172346.574000", "172346.577000", "172346.580000", "172346.583000", "172346.586000", "172346.589000", "172426.517000", "172426.520000", "172426.523000", "172426.526000", "172426.529000", "172426.531000", "172426.535000", "172426.538000", "172426.541000", "172426.544000", "172426.547000", "172426.550000", "172426.552000", "172426.555000", "172426.558000", "172426.561000", "172426.564000", "172426.567000", "172426.570000", "172426.573000", "172426.576000", "172426.578000", "172426.581000", "172426.584000", "172426.587000", "172426.590000", "172426.593000", "172506.517000", "172506.520000", "172506.523000", "172506.526000", "172506.529000", "172506.531000", "172506.534000", "172506.537000", "172506.540000", "172506.543000", "172506.546000", "172506.548000", "172506.551000", "172506.554000", "172506.557000", "172506.560000", "172506.563000", "172506.566000", "172506.569000", "172506.572000", "172506.575000", "172506.577000", "172506.580000", "172506.583000", "172506.586000", "172506.589000", "172506.592000", "172546.517000", "172546.520000", "172546.523000", "172546.526000", "172546.528000", "172546.531000", "172546.534000", "172546.537000", "172546.540000", "172546.543000", "172546.546000", "172546.548000", "172546.563000", "172546.566000", "172546.569000", "172546.572000", "172546.575000", "172546.577000", "172546.580000", "172546.583000", "172546.586000", "172546.589000", "172546.592000", "172546.594000", "172546.597000", "172546.600000", "172546.603000", "172626.517000", "172626.520000", "172626.523000", "172626.526000", "172626.529000", "172626.532000", "172626.534000", "172626.537000", "172626.540000", "172626.543000", "172626.546000", "172626.549000", "172626.552000", "172626.554000", "172626.557000", "172626.560000", "172626.563000", "172626.566000", "172626.569000", "172626.572000", "172626.575000", "172626.577000", "172626.580000", "172626.583000", "172626.586000", "172626.589000", "172626.592000", "172706.518000", "172706.521000", "172706.524000", "172706.527000", "172706.530000", "172706.532000", "172706.535000", "172706.538000", "172706.541000", "172706.544000", "172706.547000", "172706.549000", "172706.552000", "172706.555000", "172706.558000", "172706.561000", "172706.564000", "172706.566000", "172706.569000", "172706.572000", "172706.575000", "172706.578000", "172706.581000", "172706.584000", "172706.587000", "172706.590000", "172706.593000", "172746.517000", "172746.520000", "172746.523000", "172746.526000", "172746.528000", "172746.531000", "172746.534000", "172746.537000", "172746.540000", "172746.543000", "172746.546000", "172746.549000", "172746.552000", "172746.555000", "172746.557000", "172746.560000", "172746.563000", "172746.566000", "172746.569000", "172746.572000", "172746.575000", "172746.577000", "172746.580000", "172746.583000", "172746.586000", "172746.589000", "172826.517000", "172826.520000", "172826.523000", "172826.526000", "172826.529000", "172826.531000", "172826.534000", "172826.537000", "172826.540000", "172826.543000", "172826.546000", "172826.549000", "172826.551000", "172826.554000", "172826.557000", "172826.560000", "172826.563000", "172826.566000", "172826.569000", "172826.572000", "172826.574000", "172826.577000", "172826.580000", "172826.583000", "172826.586000", "172826.589000", "172826.601000", "172906.518000", "172906.521000", "172906.524000", "172906.527000", "172906.530000", "172906.532000", "172906.535000", "172906.538000", "172906.541000", "172906.544000", "172906.547000", "172906.550000", "172906.552000", "172906.555000", "172906.558000", "172906.561000", "172906.564000", "172906.567000", "172906.570000", "172906.572000", "172906.575000", "172906.578000", "172906.581000", "172906.584000", "172906.587000", "172906.590000", "172906.592000", "172914.569000", "172914.573000", "172914.575000", "172914.578000", "172914.581000", "172914.584000"],
