{
  "AcquisitionMatrixPE": 104,
  "AcquisitionNumber": 1,
  "AcquisitionTime": "17:54:50.320000",
  "BandwidthPerPixelPhaseEncode": 17.17,
  "BaseResolution": 104,
  "BodyPartExamined": "BRAIN",
  "CoilCombinationMethod": "Sum of Squares",
  "ConsistencyInfo": "N4_VE11C_LATEST_20160120",
  "ConversionSoftware": "dcm2niix",
  "ConversionSoftwareVersion": "v1.0.20211006",
  "DerivedVendorReportedEchoSpacing": 0.000560011,
  "DeviceSerialNumber": "167006",
  "DwellTime": 2.1e-06,
  "EchoTime": 0.037,
  "EchoTrainLength": 104,
  "EffectiveEchoSpacing": 0.000560011,
  "FlipAngle": 52,
  "HeudiconvVersion": "0.5.3.post569+g418601f",
  "ImageComments": "Unaliased MB4/PE3/LB",
  "ImageOrientationPatientDICOM": [0.998103, -0.0600134, -0.0137207, 0.0512604, 0.933605, -0.354619],
  "ImageOrientationText": "Tra>Cor(-20.7)>Sag(-2.0)",
  "ImageType": [
    "ORIGINAL",
    "PRIMARY",
    "M",
    "MB",
    "ND",
    "MOSAIC"
],
  "ImagingFrequency": 123.259,
  "InPlanePhaseEncodingDirectionDICOM": "COL",
  "InstitutionAddress": "Chemin Queen-Mary 4565,Montreal,District,CA,H3W 1W5",
  "InstitutionName": "IUGM",
  "InstitutionalDepartmentName": "Department",
  "MRAcquisitionType": "2D",
  "MagneticFieldStrength": 3,
  "Manufacturer": "Siemens",
  "ManufacturersModelName": "Prisma_fit",
  "MatrixCoilMode": "SENSE",
  "Modality": "MR",
  "MultibandAccelerationFactor": 4,
  "PartialFourier": 1,
  "PatientPosition": "HFS",
  "PercentPhaseFOV": 100,
  "PercentSampling": 100,
  "PhaseEncodingDirection": "j",
  "PhaseEncodingSteps": 104,
  "PhaseResolution": 1,
  "PixelBandwidth": 2290,
  "ProcedureStepDescription": "video^friends",
  "ProtocolName": "func_task-friends-s05e07a",
  "PulseSequenceDetails": "%CustomerSeq%\\cmrr_mbep2d_bold",
  "ReceiveCoilActiveElements": "HC1-7;NC1,2",
  "ReceiveCoilName": "HeadNeck_64",
  "ReconMatrixPE": 104,
  "RepetitionTime": 1.49,
  "SAR": 0.0343143,
  "ScanOptions": "FS",
  "ScanningSequence": "EP",
  "SequenceName": "epfid2d1_104",
  "SequenceVariant": "SK\\SS",
  "SeriesDescription": "func_task-friends-s05e07a",
  "SeriesNumber": 15,
  "ShimSetting": [618, -7278, -8810, 483, 30, -388, 58, 30],
  "SliceThickness": 2,
  "SliceTiming": [0, 0.7825, 0.0975, 0.88, 0.195, 0.98, 0.2925, 1.0775, 0.39, 1.175, 0.49, 1.2725, 0.5875, 1.37, 0.685, 0, 0.7825, 0.0975, 0.88, 0.195, 0.98, 0.2925, 1.0775, 0.39, 1.175, 0.49, 1.2725, 0.5875, 1.37, 0.685, 0, 0.7825, 0.0975, 0.88, 0.195, 0.98, 0.2925, 1.0775, 0.39, 1.175, 0.49, 1.2725, 0.5875, 1.37, 0.685, 0, 0.7825, 0.0975, 0.88, 0.195, 0.98, 0.2925, 1.0775, 0.39, 1.175, 0.49, 1.2725, 0.5875, 1.37, 0.685],
  "SoftwareVersions": "syngo MR E11",
  "SpacingBetweenSlices": 2,
  "StationName": "MRC35049",
  "TaskName": "s05e07a",
  "TotalReadoutTime": 0.0576811,
  "TxRefAmp": 235.426,
  "WipMemBlock": "ce635e3f-f0a0-4a33-9b3c-0df5fcfab37b||Sequence: R016 ve11c/master r/e634e98; Dec 19 2017 11:00:25 by eja",
  "dcmmeta_affine": [
    [-1.996206521987915, 0.10252079367637634, -0.06818322092294693, 97.9031753540039],
    [0.12002680450677872, 1.8672094345092773, -0.706486165523529, -76.83262634277344],
    [-0.02744141034781933, 0.7092380523681641, 1.869820475578308, -59.03153610229492],
    [0.0, 0.0, 0.0, 1.0]
],
  "dcmmeta_reorient_transform": [
    [0.0, -1.0, 0.0, 103.0],
    [1.0, 0.0, 0.0, 0.0],
    [0.0, 0.0, 1.0, 0.0],
    [0.0, 0.0, 0.0, 1.0]
],
  "dcmmeta_shape": [104, 104, 60, 459],
  "dcmmeta_slice_dim": 2,
  "dcmmeta_version": 0.6,
  "global": {
    "const": {
      "AcquisitionMatrix": [104, 0, 0, 104],
      "AngioFlag": "N",
      "BitsAllocated": 16,
      "BitsStored": 16,
      "BodyPartExamined": "BRAIN",
      "Columns": 832,
      "EchoNumbers": 1,
      "EchoTime": 37.0,
      "EchoTrainLength": 104,
      "FlipAngle": 52.0,
      "HighBit": 15,
      "ImageOrientationPatient": [0.9981032681447, -0.0600134016435, -0.0137207048672, 0.05126039761583, 0.9336046916839, -0.3546190227583],
      "ImagePositionPatient": [-872.39956496176, -751.46439740539, 282.17130368348],
      "ImageType": [
        "ORIGINAL",
        "PRIMARY",
        "M",
        "MB",
        "ND",
        "MOSAIC"
],
      "ImagedNucleus": "1H",
      "ImagingFrequency": 123.258874,
      "InPlanePhaseEncodingDirection": "COL",
      "MRAcquisitionType": "2D",
      "MagneticFieldStrength": 3.0,
      "Manufacturer": "SIEMENS",
      "ManufacturerModelName": "Prisma_fit",
      "Modality": "MR",
      "NumberOfAverages": 1.0,
      "NumberOfPhaseEncodingSteps": 104,
      "PercentPhaseFieldOfView": 100.0,
      "PercentSampling": 100.0,
      "PerformedProcedureStepStartTime": "165831.976000",
      "PhotometricInterpretation": "MONOCHROME2",
      "PixelBandwidth": 2290.0,
      "PixelRepresentation": 0,
      "PixelSpacing": [2.0, 2.0],
      "ProtocolName": "func_task-friends-s05e07a",
      "RepetitionTime": 1490.0,
      "Rows": 832,
      "SAR": 0.03431430871766,
      "SamplesPerPixel": 1,
      "ScanOptions": "FS",
      "ScanningSequence": "EP",
      "SequenceName": "epfid2d1_104",
      "SequenceVariant": [
        "SK",
        "SS"
],
      "SeriesDescription": "func_task-friends-s05e07a",
      "SeriesNumber": 15,
      "SeriesTime": "175606.548000",
      "SliceLocation": -31.386268755683,
      "SliceThickness": 2.0,
      "SmallestImagePixelValue": 0,
      "SoftwareVersions": "syngo MR E11",
      "SpacingBetweenSlices": 2.0000000730255,
      "SpecificCharacterSet": "ISO_IR 100",
      "StudyID": "1",
      "StudyTime": "165831.881000",
      "TransmitCoilName": "Body",
      "VariableFlipAngleFlag": "N",
      "WindowCenterWidthExplanation": "Algo1",
      "dBdt": 0.0},
    "slices": {}
  },
  "time": {
    "samples": {
      "AcquisitionNumber": [1, 2, 3, 4, 5, 6, 7, 8, 9, 10, 11, 12, 13, 14, 15, 16, 17, 18, 19, 20, 21, 22, 23, 24, 25, 26, 27, 28, 29, 30, 31, 32, 33, 34, 35, 36, 37, 38, 39, 40, 41, 42, 43, 44, 45, 46, 47, 48, 49, 50, 51, 52, 53, 54, 55, 56, 57, 58, 59, 60, 61, 62, 63, 64, 65, 66, 67, 68, 69, 70, 71, 72, 73, 74, 75, 76, 77, 78, 79, 80, 81, 82, 83, 84, 85, 86, 87, 88, 89, 90, 91, 92, 93, 94, 95, 96, 97, 98, 99, 100, 101, 102, 103, 104, 105, 106, 107, 108, 109, 110, 111, 112, 113, 114, 115, 116, 117, 118, 119, 120, 121, 122, 123, 124, 125, 126, 127, 128, 129, 130, 131, 132, 133, 134, 135, 136, 137, 138, 139, 140, 141, 142, 143, 144, 145, 146, 147, 148, 149, 150, 151, 152, 153, 154, 155, 156, 157, 158, 159, 160, 161, 162, 163, 164, 165, 166, 167, 168, 169, 170, 171, 172, 173, 174, 175, 176, 177, 178, 179, 180, 181, 182, 183, 184, 185, 186, 187, 188, 189, 190, 191, 192, 193, 194, 195, 196, 197, 198, 199, 200, 201, 202, 203, 204, 205, 206, 207, 208, 209, 210, 211, 212, 213, 214, 215, 216, 217, 218, 219, 220, 221, 222, 223, 224, 225, 226, 227, 228, 229, 230, 231, 232, 233, 234, 235, 236, 237, 238, 239, 240, 241, 242, 243, 244, 245, 246, 247, 248, 249, 250, 251, 252, 253, 254, 255, 256, 257, 258, 259, 260, 261, 262, 263, 264, 265, 266, 267, 268, 269, 270, 271, 272, 273, 274, 275, 276, 277, 278, 279, 280, 281, 282, 283, 284, 285, 286, 287, 288, 289, 290, 291, 292, 293, 294, 295, 296, 297, 298, 299, 300, 301, 302, 303, 304, 305, 306, 307, 308, 309, 310, 311, 312, 313, 314, 315, 316, 317, 318, 319, 320, 321, 322, 323, 324, 325, 326, 327, 328, 329, 330, 331, 332, 333, 334, 335, 336, 337, 338, 339, 340, 341, 342, 343, 344, 345, 346, 347, 348, 349, 350, 351, 352, 353, 354, 355, 356, 357, 358, 359, 360, 361, 362, 363, 364, 365, 366, 367, 368, 369, 370, 371, 372, 373, 374, 375, 376, 377, 378, 379, 380, 381, 382, 383, 384, 385, 386, 387, 388, 389, 390, 391, 392, 393, 394, 395, 396, 397, 398, 399, 400, 401, 402, 403, 404, 405, 406, 407, 408, 409, 410, 411, 412, 413, 414, 415, 416, 417, 418, 419, 420, 421, 422, 423, 424, 425, 426, 427, 428, 429, 430, 431, 432, 433, 434, 435, 436, 437, 438, 439, 440, 441, 442, 443, 444, 445, 446, 447, 448, 449, 450, 451, 452, 453, 454, 455, 456, 457, 458, 459],
      "AcquisitionTime": ["175450.320000", "175451.810000", "175453.300000", "175454.790000", "175456.280000", "175457.770000", "175459.260000", "175500.750000", "175502.240000", "175503.730000", "175505.220000", "175506.710000", "175508.200000", "175509.690000", "175511.180000", "175512.670000", "175514.160000", "175515.650000", "175517.140000", "175518.630000", "175520.120000", "175521.610000", "175523.100000", "175524.590000", "175526.080000", "175527.570000", "175529.060000", "175530.550000", "175532.040000", "175533.530000", "175535.020000", "175536.510000", "175538.000000", "175539.490000", "175540.980000", "175542.470000", "175543.960000", "175545.450000", "175546.940000", "175548.430000", "175549.920000", "175551.410000", "175552.900000", "175554.390000", "175555.880000", "175557.370000", "175558.860000", "175600.350000", "175601.840000", "175603.330000", "175604.820000", "175606.310000", "175607.800000", "175609.290000", "175610.780000", "175612.270000", "175613.760000", "175615.250000", "175616.740000", "175618.230000", "175619.720000", "175621.210000", "175622.700000", "175624.190000", "175625.680000", "175627.170000", "175628.660000", "175630.150000", "175631.640000", "175633.130000", "175634.620000", "175636.110000", "175637.600000", "175639.090000", "175640.580000", "175642.070000", "175643.560000", "175645.050000", "175646.540000", "175648.030000", "175649.520000", "175651.010000", "175652.500000", "175653.990000", "175655.480000", "175656.970000", "175658.460000", "175659.950000", "175701.440000", "175702.930000", "175704.420000", "175705.910000", "175707.400000", "175708.890000", "175710.380000", "175711.870000", "175713.360000", "175714.850000", "175716.340000", "175717.830000", "175719.320000", "175720.810000", "175722.300000", "175723.790000", "175725.280000", "175726.770000", "175728.260000", "175729.750000", "175731.240000", "175732.730000", "175734.220000", "175735.710000", "175737.200000", "175738.690000", "175740.180000", "175741.670000", "175743.160000", "175744.650000", "175746.140000", "175747.630000", "175749.120000", "175750.610000", "175752.100000", "175753.590000", "175755.080000", "175756.570000", "175758.060000", "175759.550000", "175801.040000", "175802.530000", "175804.020000", "175805.510000", "175807.000000", "175808.490000", "175809.980000", "175811.470000", "175812.960000", "175814.450000", "175815.940000", "175817.430000", "175818.920000", "175820.410000", "175821.900000", "175823.390000", "175824.880000", "175826.370000", "175827.860000", "175829.350000", "175830.840000", "175832.330000", "175833.820000", "175835.310000", "175836.800000", "175838.290000", "175839.780000", "175841.270000", "175842.760000", "175844.250000", "175845.740000", "175847.230000", "175848.720000", "175850.210000", "175851.700000", "175853.190000", "175854.680000", "175856.170000", "175857.660000", "175859.150000", "175900.640000", "175902.130000", "175903.620000", "175905.110000", "175906.600000", "175908.090000", "175909.580000", "175911.070000", "175912.560000", "175914.050000", "175915.540000", "175917.030000", "175918.520000", "175920.010000", "175921.500000", "175922.990000", "175924.480000", "175925.970000", "175927.460000", "175928.950000", "175930.440000", "175931.930000", "175933.420000", "175934.910000", "175936.400000", "175937.890000", "175939.380000", "175940.870000", "175942.360000", "175943.850000", "175945.340000", "175946.830000", "175948.320000", "175949.810000", "175951.300000", "175952.790000", "175954.280000", "175955.770000", "175957.260000", "175958.750000", "180000.240000", "180001.730000", "180003.220000", "180004.710000", "180006.200000", "180007.690000", "180009.180000", "180010.670000", "180012.160000", "180013.650000", "180015.140000", "180016.630000", "180018.120000", "180019.610000", "180021.100000", "180022.590000", "180024.080000", "180025.570000", "180027.060000", "180028.550000", "180030.040000", "180031.530000", "180033.020000", "180034.510000", "180036.000000", "180037.490000", "180038.980000", "180040.470000", "180041.960000", "180043.450000", "180044.940000", "180046.430000", "180047.920000", "180049.410000", "180050.900000", "180052.390000", "180053.880000", "180055.370000", "180056.860000", "180058.350000", "180059.840000", "180101.330000", "180102.820000", "180104.310000", "180105.800000", "180107.290000", "180108.780000", "180110.270000", "180111.760000", "180113.250000", "180114.740000", "180116.230000", "180117.720000", "180119.210000", "180120.700000", "180122.190000", "180123.680000", "180125.170000", "180126.660000", "180128.150000", "180129.640000", "180131.130000", "180132.620000", "180134.110000", "180135.600000", "180137.090000", "180138.580000", "180140.070000", "180141.560000", "180143.050000", "180144.540000", "180146.030000", "180147.520000", "180149.010000", "180150.500000", "180151.990000", "180153.480000", "180154.970000", "180156.460000", "180157.950000", "180159.440000", "180200.930000", "180202.420000", "180203.910000", "180205.400000", "180206.890000", "180208.380000", "180209.870000", "180211.360000", "180212.850000", "180214.340000", "180215.830000", "180217.320000", "180218.810000", "180220.300000", "180221.790000", "180223.280000", "180224.770000", "180226.260000", "180227.750000", "180229.240000", "180230.730000", "180232.220000", "180233.710000", "180235.200000", "180236.690000", "180238.180000", "180239.670000", "180241.160000", "180242.650000", "180244.140000", "180245.630000", "180247.120000", "180248.610000", "180250.100000", "180251.590000", "180253.080000", "180254.570000", "180256.060000", "180257.550000", "180259.040000", "180300.530000", "180302.020000", "180303.510000", "180305.000000", "180306.490000", "180307.980000", "180309.470000", "180310.960000", "180312.450000", "180313.940000", "180315.430000", "180316.920000", "180318.410000", "180319.900000", "180321.390000", "180322.880000", "180324.370000", "180325.860000", "180327.350000", "180328.840000", "180330.330000", "180331.820000", "180333.310000", "180334.800000", "180336.290000", "180337.780000", "180339.270000", "180340.760000", "180342.250000", "180343.740000", "180345.230000", "180346.720000", "180348.210000", "180349.700000", "180351.190000", "180352.680000", "180354.170000", "180355.660000", "180357.150000", "180358.640000", "180400.130000", "180401.620000", "180403.110000", "180404.600000", "180406.090000", "180407.580000", "180409.070000", "180410.560000", "180412.050000", "180413.540000", "180415.030000", "180416.520000", "180418.010000", "180419.500000", "180420.990000", "180422.480000", "180423.970000", "180425.460000", "180426.950000", "180428.440000", "180429.930000", "180431.420000", "180432.910000", "180434.400000", "180435.890000", "180437.380000", "180438.870000", "180440.360000", "180441.850000", "180443.340000", "180444.830000", "180446.320000", "180447.810000", "180449.300000", "180450.790000", "180452.280000", "180453.770000", "180455.260000", "180456.750000", "180458.240000", "180459.730000", "180501.220000", "180502.710000", "180504.200000", "180505.690000", "180507.180000", "180508.670000", "180510.160000", "180511.650000", "180513.140000", "180514.630000", "180516.120000", "180517.610000", "180519.100000", "180520.590000", "180522.080000", "180523.570000", "180525.060000", "180526.550000", "180528.040000", "180529.530000", "180531.020000", "180532.510000", "180534.000000", "180535.490000", "180536.980000", "180538.470000", "180539.960000", "180541.450000", "180542.940000", "180544.430000", "180545.920000", "180547.410000", "180548.900000", "180550.390000", "180551.880000", "180553.370000", "180554.860000", "180556.350000", "180557.840000", "180559.330000", "180600.820000", "180602.310000", "180603.800000", "180605.290000", "180606.780000", "180608.270000", "180609.760000", "180611.250000", "180612.740000"],
      "ContentTime": ["175606.551000", "175606.554000", "175606.557000", "175606.573000", "175606.576000", "175606.579000", "175606.584000", "175606.587000", "175606.590000", "175606.593000", "175606.596000", "175606.599000", "175606.602000", "175606.605000", "175606.608000", "175606.610000", "175606.613000", "175606.616000", "175606.625000", "175606.627000", "175606.630000", "175606.633000", "175626.517000", "175626.520000", "175626.523000", "175626.526000", "175626.529000", "175626.531000", "175626.534000", "175626.537000", "175626.540000", "175626.543000", "175626.546000", "175626.549000", "175626.551000", "175626.554000", "175626.557000", "175626.560000", "175626.563000", "175626.566000", "175626.569000", "175626.572000", "175646.517000", "175646.520000", "175646.523000", "175646.526000", "175646.528000", "175646.531000", "175646.534000", "175646.537000", "175646.540000", "175646.542000", "175646.545000", "175646.548000", "175646.551000", "175646.554000", "175646.557000", "175646.559000", "175646.562000", "175646.565000", "175646.568000", "175646.571000", "175646.574000", "175706.518000", "175706.521000", "175706.533000", "175706.535000", "175706.538000", "175706.541000", "175706.544000", "175706.547000", "175706.550000", "175706.552000", "175706.555000", "175706.558000", "175706.561000", "175706.564000", "175706.567000", "175706.570000", "175706.573000", "175706.576000", "175706.578000", "175706.581000", "175726.518000", "175726.521000", "175726.524000", "175726.526000", "175726.529000", "175726.532000", "175726.535000", "175726.538000", "175726.541000", "175726.544000", "175726.546000", "175726.549000", "175726.552000", "175726.555000", "175726.558000", "175726.561000", "175726.563000", "175726.566000", "175726.576000", "175726.579000", "175806.517000", "175806.520000", "175806.523000", "175806.526000", "175806.529000", "175806.531000", "175806.548000", "175806.551000", "175806.554000", "175806.557000", "175806.560000", "175806.563000", "175806.565000", "175806.568000", "175806.571000", "175806.574000", "175806.577000", "175806.580000", "175806.583000", "175806.586000", "175806.588000", "175806.591000", "175806.594000", "175806.597000", "175806.600000", "175806.602000", "175806.605000", "175806.608000", "175846.517000", "175846.520000", "175846.523000", "175846.526000", "175846.528000", "175846.531000", "175846.534000", "175846.537000", "175846.540000", "175846.543000", "175846.546000", "175846.548000", "175846.551000", "175846.554000", "175846.557000", "175846.560000", "175846.563000", "175846.566000", "175846.569000", "175846.572000", "175846.574000", "175846.577000", "175846.580000", "175846.583000", "175846.586000", "175846.589000", "175846.591000", "175906.517000", "175906.520000", "175906.523000", "175906.526000", "175906.529000", "175906.531000", "175906.534000", "175906.537000", "175906.540000", "175906.543000", "175906.546000", "175906.548000", "175906.551000", "175946.518000", "175946.521000", "175946.524000", "175946.527000", "175946.530000", "175946.533000", "175946.536000", "175946.538000", "175946.541000", "175946.544000", "175946.547000", "175946.550000", "175946.553000", "175946.556000", "175946.559000", "175946.561000", "175946.564000", "175946.567000", "175946.571000", "175946.573000", "175946.576000", "175946.579000", "175946.582000", "175946.585000", "175946.588000", "175946.591000", "175946.594000", "180026.517000", "180026.520000", "180026.523000", "180026.526000", "180026.529000", "180026.531000", "180026.534000", "180026.537000", "180026.540000", "180026.543000", "180026.546000", "180026.549000", "180026.551000", "180026.554000", "180026.557000", "180026.560000", "180026.563000", "180026.566000", "180026.569000", "180026.572000", "180026.581000", "180026.584000", "180026.587000", "180026.590000", "180026.593000", "180026.595000", "180026.598000", "180106.517000", "180106.520000", "180106.523000", "180106.526000", "180106.529000", "180106.532000", "180106.534000", "180106.537000", "180106.540000", "180106.543000", "180106.546000", "180106.549000", "180106.552000", "180106.554000", "180106.557000", "180106.560000", "180106.563000", "180106.566000", "180106.579000", "180106.582000", "180106.585000", "180106.588000", "180106.590000", "180106.593000", "180106.596000", "180106.599000", "180106.602000", "180146.518000", "180146.521000", "180146.524000", "180146.527000", "180146.529000", "180146.532000", "180146.535000", "180146.538000", "180146.541000", "180146.544000", "180146.547000", "180146.550000", "180146.552000", "180146.555000", "180146.558000", "180146.572000", "180146.575000", "180146.578000", "180146.581000", "180146.583000", "180146.586000", "180146.589000", "180146.592000", "180146.595000", "180146.598000", "180146.601000", "180146.603000", "180226.517000", "180226.520000", "180226.523000", "180226.526000", "180226.529000", "180226.531000", "180226.534000", "180226.537000", "180226.540000", "180226.543000", "180226.546000", "180226.549000", "180226.551000", "180226.554000", "180226.557000", "180226.560000", "180226.563000", "180226.566000", "180226.569000", "180226.572000", "180226.575000", "180226.577000", "180226.580000", "180226.583000", "180226.586000", "180226.589000", "180306.517000", "180306.520000", "180306.523000", "180306.526000", "180306.529000", "180306.531000", "180306.534000", "180306.537000", "180306.540000", "180306.543000", "180306.546000", "180306.549000", "180306.551000", "180306.554000", "180306.557000", "180306.560000", "180306.563000", "180306.566000", "180306.569000", "180306.572000", "180306.574000", "180306.577000", "180306.580000", "180306.583000", "180306.586000", "180306.589000", "180306.592000", "180346.517000", "180346.520000", "180346.523000", "180346.526000", "180346.529000", "180346.532000", "180346.535000", "180346.538000", "180346.540000", "180346.543000", "180346.546000", "180346.549000", "180346.552000", "180346.555000", "180346.558000", "180346.561000", "180346.564000", "180346.567000", "180346.570000", "180346.573000", "180346.575000", "180346.578000", "180346.581000", "180346.584000", "180346.587000", "180346.590000", "180346.592000", "180426.517000", "180426.520000", "180426.523000", "180426.526000", "180426.529000", "180426.532000", "180426.534000", "180426.537000", "180426.540000", "180426.543000", "180426.546000", "180426.549000", "180426.551000", "180426.554000", "180426.557000", "180426.560000", "180426.563000", "180426.566000", "180426.569000", "180426.572000", "180426.574000", "180426.577000", "180426.580000", "180426.583000", "180426.586000", "180426.589000", "180426.592000", "180506.517000", "180506.520000", "180506.523000", "180506.526000", "180506.529000", "180506.532000", "180506.535000", "180506.538000", "180506.541000", "180506.543000", "180506.558000", "180506.561000", "180506.564000", "180506.567000", "180506.570000", "180506.573000", "180506.575000", "180506.578000", "180506.581000", "180506.584000", "180506.587000", "180506.590000", "180506.592000", "180506.595000", "180506.598000", "180506.601000", "180506.604000", "180546.517000", "180546.520000", "180546.523000", "180546.526000", "180546.529000", "180546.531000", "180546.534000", "180546.537000", "180546.540000", "180546.543000", "180546.546000", "180546.549000", "180546.552000", "180546.554000", "180546.557000", "180546.560000", "180546.563000", "180546.566000", "180546.569000", "180546.572000", "180546.575000", "180546.577000", "180546.580000", "180546.583000", "180546.586000", "180546.589000", "180546.592000", "180614.764000", "180614.767000", "180614.778000", "180614.781000", "180614.784000", "180614.787000", "180614.790000", "180614.793000", "180614.796000", "180614.798000", "180614.801000", "180614.804000", "180614.807000", "180614.810000", "180614.813000", "180614.816000", "180614.819000", "180614.822000", "180614.825000"],
