{
  "AcquisitionMatrixPE": 104,
  "AcquisitionNumber": 1,
  "AcquisitionTime": "18:06:57.445000",
  "BandwidthPerPixelPhaseEncode": 17.17,
  "BaseResolution": 104,
  "BodyPartExamined": "BRAIN",
  "CoilCombinationMethod": "Sum of Squares",
  "ConsistencyInfo": "N4_VE11C_LATEST_20160120",
  "ConversionSoftware": "dcm2niix",
  "ConversionSoftwareVersion": "v1.0.20211006",
  "DerivedVendorReportedEchoSpacing": 0.000560011,
  "DeviceSerialNumber": "167006",
  "DwellTime": 2.1e-06,
  "EchoTime": 0.037,
  "EchoTrainLength": 104,
  "EffectiveEchoSpacing": 0.000560011,
  "FlipAngle": 52,
  "HeudiconvVersion": "0.5.3.post569+g418601f",
  "ImageComments": "Unaliased MB4/PE3/LB",
  "ImageOrientationPatientDICOM": [0.998103, -0.0600134, -0.0137207, 0.0512604, 0.933605, -0.354619],
  "ImageOrientationText": "Tra>Cor(-20.7)>Sag(-2.0)",
  "ImageType": [
    "ORIGINAL",
    "PRIMARY",
    "M",
    "MB",
    "ND",
    "MOSAIC"
],
  "ImagingFrequency": 123.259,
  "InPlanePhaseEncodingDirectionDICOM": "COL",
  "InstitutionAddress": "Chemin Queen-Mary 4565,Montreal,District,CA,H3W 1W5",
  "InstitutionName": "IUGM",
  "InstitutionalDepartmentName": "Department",
  "MRAcquisitionType": "2D",
  "MagneticFieldStrength": 3,
  "Manufacturer": "Siemens",
  "ManufacturersModelName": "Prisma_fit",
  "MatrixCoilMode": "SENSE",
  "Modality": "MR",
  "MultibandAccelerationFactor": 4,
  "PartialFourier": 1,
  "PatientPosition": "HFS",
  "PercentPhaseFOV": 100,
  "PercentSampling": 100,
  "PhaseEncodingDirection": "j",
  "PhaseEncodingSteps": 104,
  "PhaseResolution": 1,
  "PixelBandwidth": 2290,
  "ProcedureStepDescription": "video^friends",
  "ProtocolName": "func_task-friends-s05e07b",
  "PulseSequenceDetails": "%CustomerSeq%\\cmrr_mbep2d_bold",
  "ReceiveCoilActiveElements": "HC1-7;NC1,2",
  "ReceiveCoilName": "HeadNeck_64",
  "ReconMatrixPE": 104,
  "RepetitionTime": 1.49,
  "SAR": 0.0343245,
  "ScanOptions": "FS",
  "ScanningSequence": "EP",
  "SequenceName": "epfid2d1_104",
  "SequenceVariant": "SK\\SS",
  "SeriesDescription": "func_task-friends-s05e07b",
  "SeriesNumber": 17,
  "ShimSetting": [618, -7278, -8810, 483, 30, -388, 58, 30],
  "SliceThickness": 2,
  "SliceTiming": [0, 0.7825, 0.0975, 0.88, 0.195, 0.9775, 0.2925, 1.0775, 0.39, 1.175, 0.49, 1.2725, 0.5875, 1.37, 0.685, 0, 0.7825, 0.0975, 0.88, 0.195, 0.9775, 0.2925, 1.0775, 0.39, 1.175, 0.49, 1.2725, 0.5875, 1.37, 0.685, 0, 0.7825, 0.0975, 0.88, 0.195, 0.9775, 0.2925, 1.0775, 0.39, 1.175, 0.49, 1.2725, 0.5875, 1.37, 0.685, 0, 0.7825, 0.0975, 0.88, 0.195, 0.9775, 0.2925, 1.0775, 0.39, 1.175, 0.49, 1.2725, 0.5875, 1.37, 0.685],
  "SoftwareVersions": "syngo MR E11",
  "SpacingBetweenSlices": 2,
  "StationName": "MRC35049",
  "TaskName": "s05e07b",
  "TotalReadoutTime": 0.0576811,
  "TxRefAmp": 235.426,
  "WipMemBlock": "be36bcd6-f0de-4ab7-b78d-c60b747b5d47||Sequence: R016 ve11c/master r/e634e98; Dec 19 2017 11:00:25 by eja",
  "dcmmeta_affine": [
    [-1.996206521987915, 0.10252079367637634, -0.06818322092294693, 97.9031753540039],
    [0.12002680450677872, 1.8672094345092773, -0.706486165523529, -76.83262634277344],
    [-0.02744141034781933, 0.7092380523681641, 1.869820475578308, -59.03153610229492],
    [0.0, 0.0, 0.0, 1.0]
],
  "dcmmeta_reorient_transform": [
    [0.0, -1.0, 0.0, 103.0],
    [1.0, 0.0, 0.0, 0.0],
    [0.0, 0.0, 1.0, 0.0],
    [0.0, 0.0, 0.0, 1.0]
],
  "dcmmeta_shape": [104, 104, 60, 493],
  "dcmmeta_slice_dim": 2,
  "dcmmeta_version": 0.6,
  "global": {
    "const": {
      "AcquisitionMatrix": [104, 0, 0, 104],
      "AngioFlag": "N",
      "BitsAllocated": 16,
      "BitsStored": 16,
      "BodyPartExamined": "BRAIN",
      "Columns": 832,
      "EchoNumbers": 1,
      "EchoTime": 37.0,
      "EchoTrainLength": 104,
      "FlipAngle": 52.0,
      "HighBit": 15,
      "ImageOrientationPatient": [0.9981032681447, -0.0600134016435, -0.0137207048672, 0.05126039761583, 0.9336046916839, -0.3546190227583],
      "ImagePositionPatient": [-872.39956496176, -751.46439740539, 282.17130368348],
      "ImageType": [
        "ORIGINAL",
        "PRIMARY",
        "M",
        "MB",
        "ND",
        "MOSAIC"
],
      "ImagedNucleus": "1H",
      "ImagingFrequency": 123.258883,
      "InPlanePhaseEncodingDirection": "COL",
      "MRAcquisitionType": "2D",
      "MagneticFieldStrength": 3.0,
      "Manufacturer": "SIEMENS",
      "ManufacturerModelName": "Prisma_fit",
      "Modality": "MR",
      "NumberOfAverages": 1.0,
      "NumberOfPhaseEncodingSteps": 104,
      "PercentPhaseFieldOfView": 100.0,
      "PercentSampling": 100.0,
      "PerformedProcedureStepStartTime": "165831.976000",
      "PhotometricInterpretation": "MONOCHROME2",
      "PixelBandwidth": 2290.0,
      "PixelRepresentation": 0,
      "PixelSpacing": [2.0, 2.0],
      "ProtocolName": "func_task-friends-s05e07b",
      "RepetitionTime": 1490.0,
      "Rows": 832,
      "SAR": 0.03432449574578,
      "SamplesPerPixel": 1,
      "ScanOptions": "FS",
      "ScanningSequence": "EP",
      "SequenceName": "epfid2d1_104",
      "SequenceVariant": [
        "SK",
        "SS"
],
      "SeriesDescription": "func_task-friends-s05e07b",
      "SeriesNumber": 17,
      "SeriesTime": "180820.217000",
      "SliceLocation": -31.386268755683,
      "SliceThickness": 2.0,
      "SmallestImagePixelValue": 0,
      "SoftwareVersions": "syngo MR E11",
      "SpacingBetweenSlices": 2.0000000730255,
      "SpecificCharacterSet": "ISO_IR 100",
      "StudyID": "1",
      "StudyTime": "165831.881000",
      "TransmitCoilName": "Body",
      "VariableFlipAngleFlag": "N",
      "WindowCenterWidthExplanation": "Algo1",
      "dBdt": 0.0},
    "slices": {}
  },
  "time": {
    "samples": {
      "AcquisitionNumber": [1, 2, 3, 4, 5, 6, 7, 8, 9, 10, 11, 12, 13, 14, 15, 16, 17, 18, 19, 20, 21, 22, 23, 24, 25, 26, 27, 28, 29, 30, 31, 32, 33, 34, 35, 36, 37, 38, 39, 40, 41, 42, 43, 44, 45, 46, 47, 48, 49, 50, 51, 52, 53, 54, 55, 56, 57, 58, 59, 60, 61, 62, 63, 64, 65, 66, 67, 68, 69, 70, 71, 72, 73, 74, 75, 76, 77, 78, 79, 80, 81, 82, 83, 84, 85, 86, 87, 88, 89, 90, 91, 92, 93, 94, 95, 96, 97, 98, 99, 100, 101, 102, 103, 104, 105, 106, 107, 108, 109, 110, 111, 112, 113, 114, 115, 116, 117, 118, 119, 120, 121, 122, 123, 124, 125, 126, 127, 128, 129, 130, 131, 132, 133, 134, 135, 136, 137, 138, 139, 140, 141, 142, 143, 144, 145, 146, 147, 148, 149, 150, 151, 152, 153, 154, 155, 156, 157, 158, 159, 160, 161, 162, 163, 164, 165, 166, 167, 168, 169, 170, 171, 172, 173, 174, 175, 176, 177, 178, 179, 180, 181, 182, 183, 184, 185, 186, 187, 188, 189, 190, 191, 192, 193, 194, 195, 196, 197, 198, 199, 200, 201, 202, 203, 204, 205, 206, 207, 208, 209, 210, 211, 212, 213, 214, 215, 216, 217, 218, 219, 220, 221, 222, 223, 224, 225, 226, 227, 228, 229, 230, 231, 232, 233, 234, 235, 236, 237, 238, 239, 240, 241, 242, 243, 244, 245, 246, 247, 248, 249, 250, 251, 252, 253, 254, 255, 256, 257, 258, 259, 260, 261, 262, 263, 264, 265, 266, 267, 268, 269, 270, 271, 272, 273, 274, 275, 276, 277, 278, 279, 280, 281, 282, 283, 284, 285, 286, 287, 288, 289, 290, 291, 292, 293, 294, 295, 296, 297, 298, 299, 300, 301, 302, 303, 304, 305, 306, 307, 308, 309, 310, 311, 312, 313, 314, 315, 316, 317, 318, 319, 320, 321, 322, 323, 324, 325, 326, 327, 328, 329, 330, 331, 332, 333, 334, 335, 336, 337, 338, 339, 340, 341, 342, 343, 344, 345, 346, 347, 348, 349, 350, 351, 352, 353, 354, 355, 356, 357, 358, 359, 360, 361, 362, 363, 364, 365, 366, 367, 368, 369, 370, 371, 372, 373, 374, 375, 376, 377, 378, 379, 380, 381, 382, 383, 384, 385, 386, 387, 388, 389, 390, 391, 392, 393, 394, 395, 396, 397, 398, 399, 400, 401, 402, 403, 404, 405, 406, 407, 408, 409, 410, 411, 412, 413, 414, 415, 416, 417, 418, 419, 420, 421, 422, 423, 424, 425, 426, 427, 428, 429, 430, 431, 432, 433, 434, 435, 436, 437, 438, 439, 440, 441, 442, 443, 444, 445, 446, 447, 448, 449, 450, 451, 452, 453, 454, 455, 456, 457, 458, 459, 460, 461, 462, 463, 464, 465, 466, 467, 468, 469, 470, 471, 472, 473, 474, 475, 476, 477, 478, 479, 480, 481, 482, 483, 484, 485, 486, 487, 488, 489, 490, 491, 492, 493],
      "AcquisitionTime": ["180657.445000", "180658.935000", "180700.425000", "180701.915000", "180703.405000", "180704.895000", "180706.385000", "180707.875000", "180709.365000", "180710.855000", "180712.345000", "180713.835000", "180715.325000", "180716.815000", "180718.305000", "180719.795000", "180721.285000", "180722.775000", "180724.265000", "180725.755000", "180727.245000", "180728.735000", "180730.225000", "180731.715000", "180733.205000", "180734.695000", "180736.185000", "180737.675000", "180739.165000", "180740.655000", "180742.145000", "180743.635000", "180745.125000", "180746.615000", "180748.105000", "180749.595000", "180751.085000", "180752.575000", "180754.065000", "180755.555000", "180757.045000", "180758.535000", "180800.025000", "180801.515000", "180803.005000", "180804.495000", "180805.985000", "180807.475000", "180808.965000", "180810.455000", "180811.945000", "180813.435000", "180814.925000", "180816.415000", "180817.905000", "180819.395000", "180820.885000", "180822.375000", "180823.865000", "180825.355000", "180826.845000", "180828.335000", "180829.825000", "180831.315000", "180832.805000", "180834.295000", "180835.785000", "180837.275000", "180838.765000", "180840.255000", "180841.745000", "180843.235000", "180844.725000", "180846.215000", "180847.705000", "180849.195000", "180850.685000", "180852.175000", "180853.665000", "180855.155000", "180856.645000", "180858.135000", "180859.625000", "180901.115000", "180902.605000", "180904.095000", "180905.585000", "180907.075000", "180908.565000", "180910.055000", "180911.545000", "180913.035000", "180914.525000", "180916.015000", "180917.505000", "180918.995000", "180920.485000", "180921.975000", "180923.465000", "180924.955000", "180926.445000", "180927.935000", "180929.425000", "180930.915000", "180932.405000", "180933.895000", "180935.385000", "180936.875000", "180938.365000", "180939.855000", "180941.345000", "180942.835000", "180944.325000", "180945.815000", "180947.305000", "180948.795000", "180950.285000", "180951.775000", "180953.265000", "180954.755000", "180956.245000", "180957.735000", "180959.225000", "181000.715000", "181002.205000", "181003.695000", "181005.185000", "181006.675000", "181008.165000", "181009.655000", "181011.145000", "181012.635000", "181014.125000", "181015.615000", "181017.105000", "181018.595000", "181020.085000", "181021.575000", "181023.065000", "181024.555000", "181026.045000", "181027.535000", "181029.025000", "181030.515000", "181032.005000", "181033.495000", "181034.985000", "181036.475000", "181037.965000", "181039.455000", "181040.945000", "181042.435000", "181043.925000", "181045.415000", "181046.905000", "181048.395000", "181049.885000", "181051.375000", "181052.865000", "181054.355000", "181055.845000", "181057.335000", "181058.825000", "181100.315000", "181101.805000", "181103.295000", "181104.785000", "181106.275000", "181107.765000", "181109.255000", "181110.745000", "181112.235000", "181113.725000", "181115.215000", "181116.705000", "181118.195000", "181119.685000", "181121.175000", "181122.665000", "181124.155000", "181125.645000", "181127.135000", "181128.625000", "181130.115000", "181131.605000", "181133.095000", "181134.585000", "181136.075000", "181137.565000", "181139.055000", "181140.545000", "181142.035000", "181143.525000", "181145.015000", "181146.505000", "181147.995000", "181149.485000", "181150.975000", "181152.465000", "181153.955000", "181155.445000", "181156.935000", "181158.425000", "181159.915000", "181201.405000", "181202.895000", "181204.385000", "181205.875000", "181207.365000", "181208.855000", "181210.345000", "181211.835000", "181213.325000", "181214.815000", "181216.305000", "181217.795000", "181219.285000", "181220.775000", "181222.265000", "181223.755000", "181225.245000", "181226.735000", "181228.225000", "181229.715000", "181231.205000", "181232.695000", "181234.185000", "181235.675000", "181237.165000", "181238.655000", "181240.145000", "181241.635000", "181243.125000", "181244.615000", "181246.105000", "181247.595000", "181249.085000", "181250.575000", "181252.065000", "181253.555000", "181255.045000", "181256.535000", "181258.025000", "181259.515000", "181301.005000", "181302.495000", "181303.985000", "181305.475000", "181306.965000", "181308.455000", "181309.945000", "181311.435000", "181312.925000", "181314.415000", "181315.905000", "181317.395000", "181318.885000", "181320.375000", "181321.865000", "181323.355000", "181324.845000", "181326.335000", "181327.825000", "181329.315000", "181330.805000", "181332.295000", "181333.785000", "181335.275000", "181336.765000", "181338.255000", "181339.745000", "181341.235000", "181342.725000", "181344.215000", "181345.705000", "181347.195000", "181348.685000", "181350.175000", "181351.665000", "181353.155000", "181354.645000", "181356.135000", "181357.625000", "181359.115000", "181400.605000", "181402.095000", "181403.585000", "181405.075000", "181406.565000", "181408.055000", "181409.545000", "181411.035000", "181412.525000", "181414.015000", "181415.505000", "181416.995000", "181418.485000", "181419.975000", "181421.465000", "181422.955000", "181424.445000", "181425.935000", "181427.425000", "181428.915000", "181430.405000", "181431.895000", "181433.385000", "181434.875000", "181436.365000", "181437.855000", "181439.345000", "181440.835000", "181442.325000", "181443.815000", "181445.305000", "181446.795000", "181448.285000", "181449.775000", "181451.265000", "181452.755000", "181454.245000", "181455.735000", "181457.225000", "181458.715000", "181500.205000", "181501.695000", "181503.185000", "181504.675000", "181506.165000", "181507.655000", "181509.145000", "181510.635000", "181512.125000", "181513.615000", "181515.105000", "181516.595000", "181518.085000", "181519.575000", "181521.065000", "181522.555000", "181524.045000", "181525.535000", "181527.025000", "181528.515000", "181530.005000", "181531.495000", "181532.985000", "181534.475000", "181535.965000", "181537.455000", "181538.945000", "181540.435000", "181541.925000", "181543.415000", "181544.905000", "181546.395000", "181547.885000", "181549.375000", "181550.865000", "181552.355000", "181553.845000", "181555.335000", "181556.825000", "181558.315000", "181559.805000", "181601.295000", "181602.785000", "181604.275000", "181605.765000", "181607.255000", "181608.745000", "181610.235000", "181611.725000", "181613.215000", "181614.705000", "181616.195000", "181617.685000", "181619.175000", "181620.665000", "181622.155000", "181623.645000", "181625.135000", "181626.625000", "181628.115000", "181629.605000", "181631.095000", "181632.585000", "181634.075000", "181635.565000", "181637.055000", "181638.545000", "181640.035000", "181641.525000", "181643.015000", "181644.505000", "181645.995000", "181647.485000", "181648.975000", "181650.465000", "181651.955000", "181653.445000", "181654.935000", "181656.425000", "181657.915000", "181659.405000", "181700.895000", "181702.385000", "181703.875000", "181705.365000", "181706.855000", "181708.345000", "181709.835000", "181711.325000", "181712.815000", "181714.305000", "181715.795000", "181717.285000", "181718.775000", "181720.265000", "181721.755000", "181723.245000", "181724.735000", "181726.225000", "181727.715000", "181729.205000", "181730.695000", "181732.185000", "181733.675000", "181735.165000", "181736.655000", "181738.145000", "181739.635000", "181741.125000", "181742.615000", "181744.105000", "181745.595000", "181747.085000", "181748.575000", "181750.065000", "181751.555000", "181753.045000", "181754.535000", "181756.025000", "181757.515000", "181759.005000", "181800.495000", "181801.985000", "181803.475000", "181804.965000", "181806.455000", "181807.945000", "181809.435000", "181810.925000", "181812.415000", "181813.905000", "181815.395000", "181816.885000", "181818.375000", "181819.865000", "181821.355000", "181822.845000", "181824.335000", "181825.825000", "181827.315000", "181828.805000", "181830.295000", "181831.785000", "181833.275000", "181834.765000", "181836.255000", "181837.745000", "181839.235000", "181840.725000", "181842.215000", "181843.705000", "181845.195000", "181846.685000", "181848.175000", "181849.665000", "181851.155000", "181852.645000", "181854.135000", "181855.625000", "181857.115000", "181858.605000", "181900.095000", "181901.585000", "181903.075000", "181904.565000", "181906.055000", "181907.545000", "181909.035000", "181910.525000"],
      "ContentTime": ["180820.219000", "180820.223000", "180820.226000", "180820.234000", "180820.237000", "180820.240000", "180820.243000", "180820.246000", "180820.248000", "180820.251000", "180820.254000", "180820.257000", "180820.260000", "180820.263000", "180820.266000", "180820.268000", "180820.271000", "180820.274000", "180820.277000", "180820.280000", "180820.283000", "180820.285000", "180820.288000", "180820.291000", "180820.294000", "180820.297000", "180820.300000", "180820.302000", "180820.305000", "180840.181000", "180840.184000", "180840.187000", "180840.189000", "180840.192000", "180840.195000", "180840.198000", "180840.201000", "180840.204000", "180840.207000", "180840.210000", "180840.212000", "180840.215000", "180840.218000", "180840.224000", "180840.227000", "180840.230000", "180840.233000", "180840.235000", "180840.238000", "180900.181000", "180900.184000", "180900.187000", "180900.190000", "180900.204000", "180900.207000", "180900.210000", "180900.213000", "180900.216000", "180900.219000", "180900.222000", "180900.224000", "180900.227000", "180900.230000", "180900.233000", "180900.236000", "180900.239000", "180900.242000", "180900.244000", "180900.247000", "180900.250000", "180920.181000", "180920.184000", "180920.187000", "180920.190000", "180920.192000", "180920.195000", "180920.198000", "180920.201000", "180920.204000", "180920.207000", "180920.216000", "180920.219000", "180920.221000", "180920.224000", "180920.227000", "180920.230000", "180920.233000", "180920.236000", "180920.239000", "180920.241000", "181000.181000", "181000.184000", "181000.187000", "181000.190000", "181000.192000", "181000.195000", "181000.198000", "181000.201000", "181000.204000", "181000.207000", "181000.210000", "181000.213000", "181000.215000", "181000.218000", "181000.221000", "181000.224000", "181000.227000", "181000.230000", "181000.233000", "181000.235000", "181000.238000", "181000.241000", "181000.244000", "181000.247000", "181000.250000", "181000.252000", "181000.255000", "181000.258000", "181000.261000", "181000.264000", "181000.267000", "181040.181000", "181040.184000", "181040.187000", "181040.189000", "181040.193000", "181040.195000", "181040.198000", "181040.201000", "181040.204000", "181040.207000", "181040.210000", "181040.213000", "181040.216000", "181040.219000", "181040.222000", "181040.224000", "181040.227000", "181040.230000", "181040.233000", "181040.236000", "181040.239000", "181040.242000", "181040.245000", "181040.247000", "181040.250000", "181040.253000", "181040.256000", "181120.181000", "181120.184000", "181120.187000", "181120.190000", "181120.193000", "181120.196000", "181120.199000", "181120.202000", "181120.204000", "181120.207000", "181120.210000", "181120.213000", "181120.216000", "181120.219000", "181120.222000", "181120.225000", "181120.228000", "181120.230000", "181120.233000", "181120.236000", "181120.239000", "181120.242000", "181120.245000", "181120.248000", "181120.258000", "181120.278000", "181120.281000", "181200.181000", "181200.184000", "181200.187000", "181200.190000", "181200.192000", "181200.195000", "181200.198000", "181200.201000", "181200.204000", "181200.207000", "181200.210000", "181200.212000", "181200.215000", "181200.218000", "181200.221000", "181200.224000", "181200.227000", "181200.230000", "181200.233000", "181200.235000", "181200.238000", "181200.241000", "181200.244000", "181200.247000", "181200.250000", "181200.253000", "181200.255000", "181240.181000", "181240.192000", "181240.194000", "181240.197000", "181240.200000", "181240.203000", "181240.206000", "181240.209000", "181240.212000", "181240.215000", "181240.218000", "181240.221000", "181240.223000", "181240.226000", "181240.229000", "181240.232000", "181240.235000", "181240.238000", "181240.241000", "181240.244000", "181240.246000", "181240.249000", "181240.252000", "181240.255000", "181240.258000", "181240.261000", "181240.264000", "181320.181000", "181320.184000", "181320.187000", "181320.190000", "181320.193000", "181320.196000", "181320.199000", "181320.201000", "181320.204000", "181320.207000", "181320.210000", "181320.213000", "181320.216000", "181320.219000", "181320.221000", "181320.224000", "181320.227000", "181320.230000", "181320.233000", "181320.236000", "181320.239000", "181320.242000", "181320.244000", "181320.247000", "181320.258000", "181320.261000", "181320.264000", "181400.181000", "181400.184000", "181400.187000", "181400.190000", "181400.193000", "181400.196000", "181400.198000", "181400.201000", "181400.204000", "181400.207000", "181400.210000", "181400.213000", "181400.216000", "181400.218000", "181400.221000", "181400.224000", "181400.227000", "181400.230000", "181400.233000", "181400.235000", "181400.238000", "181400.241000", "181400.244000", "181400.247000", "181400.250000", "181400.253000", "181400.255000", "181440.181000", "181440.184000", "181440.187000", "181440.190000", "181440.193000", "181440.195000", "181440.198000", "181440.201000", "181440.204000", "181440.207000", "181440.210000", "181440.213000", "181440.215000", "181440.222000", "181440.225000", "181440.228000", "181440.231000", "181440.234000", "181440.237000", "181440.240000", "181440.243000", "181440.246000", "181440.248000", "181440.251000", "181440.254000", "181440.258000", "181520.181000", "181520.194000", "181520.197000", "181520.199000", "181520.202000", "181520.205000", "181520.208000", "181520.211000", "181520.214000", "181520.217000", "181520.219000", "181520.222000", "181520.225000", "181520.228000", "181520.231000", "181520.234000", "181520.237000", "181520.240000", "181520.243000", "181520.246000", "181520.248000", "181520.251000", "181520.254000", "181520.257000", "181520.260000", "181520.263000", "181520.266000", "181600.181000", "181600.184000", "181600.187000", "181600.190000", "181600.192000", "181600.195000", "181600.198000", "181600.201000", "181600.204000", "181600.207000", "181600.210000", "181600.213000", "181600.216000", "181600.218000", "181600.221000", "181600.224000", "181600.227000", "181600.230000", "181600.233000", "181600.235000", "181600.238000", "181600.241000", "181600.244000", "181600.247000", "181600.250000", "181600.253000", "181600.269000", "181640.181000", "181640.184000", "181640.187000", "181640.190000", "181640.192000", "181640.195000", "181640.198000", "181640.201000", "181640.208000", "181640.211000", "181640.214000", "181640.216000", "181640.220000", "181640.222000", "181640.225000", "181640.228000", "181640.231000", "181640.234000", "181640.237000", "181640.240000", "181640.243000", "181640.246000", "181640.249000", "181640.251000", "181640.254000", "181640.257000", "181640.260000", "181720.181000", "181720.184000", "181720.187000", "181720.190000", "181720.193000", "181720.196000", "181720.198000", "181720.201000", "181720.204000", "181720.207000", "181720.210000", "181720.213000", "181720.216000", "181720.218000", "181720.221000", "181720.224000", "181720.227000", "181720.230000", "181720.233000", "181720.236000", "181720.238000", "181720.241000", "181720.244000", "181720.247000", "181720.250000", "181720.253000", "181720.256000", "181800.181000", "181800.184000", "181800.187000", "181800.190000", "181800.193000", "181800.195000", "181800.198000", "181800.201000", "181800.204000", "181800.207000", "181800.210000", "181800.213000", "181800.216000", "181800.218000", "181800.221000", "181800.224000", "181800.227000", "181800.230000", "181800.233000", "181800.236000", "181800.238000", "181800.241000", "181800.251000", "181800.254000", "181800.256000", "181800.259000", "181800.262000", "181840.181000", "181840.184000", "181840.187000", "181840.190000", "181840.192000", "181840.195000", "181840.198000", "181840.201000", "181840.204000", "181840.207000", "181840.210000", "181840.213000", "181840.216000", "181840.219000", "181840.222000", "181840.224000", "181840.227000", "181840.230000", "181840.233000", "181840.236000", "181840.239000", "181840.241000", "181840.244000", "181840.247000", "181840.250000", "181840.253000", "181900.181000", "181900.184000", "181900.187000", "181900.190000", "181900.193000", "181900.196000", "181900.198000", "181900.201000", "181900.204000", "181900.207000", "181900.210000", "181900.213000", "181900.216000", "181900.219000", "181913.103000", "181913.106000", "181913.109000", "181913.112000", "181913.115000", "181913.118000", "181913.120000", "181913.123000", "181913.126000"],
