{
  "AcquisitionMatrixPE": 104,
  "AcquisitionNumber": 1,
  "AcquisitionTime": "11:38:15.792500",
  "BandwidthPerPixelPhaseEncode": 17.17,
  "BaseResolution": 104,
  "BodyPartExamined": "BRAIN",
  "CoilString": "HC1-7;NC1_2",
  "ConsistencyInfo": "N4_VE11C_LATEST_20160120",
  "ConversionSoftware": "dcm2niix",
  "ConversionSoftwareVersion": "v1.0.20200427",
  "DerivedVendorReportedEchoSpacing": 0.000560011,
  "DeviceSerialNumber": "167006",
  "DwellTime": 2.1e-06,
  "EchoTime": 0.037,
  "EchoTrainLength": 104,
  "EffectiveEchoSpacing": 0.000560011,
  "FlipAngle": 52,
  "ImageComments": "Unaliased_MB4_PE3_LB",
  "ImageOrientationPatientDICOM": [0.998344, 0.0501424, 0.0281882, -0.0400976, 0.957993, -0.283976],
  "ImageType": [
    "ORIGINAL",
    "PRIMARY",
    "M",
    "MB",
    "ND",
    "MOSAIC"
],
  "ImagingFrequency": 123.259,
  "InPlanePhaseEncodingDirectionDICOM": "COL",
  "InstitutionAddress": "Chemin_Queen-Mary_4565_Montreal_District_CA_H3W_1W5",
  "InstitutionName": "IUGM",
  "InstitutionalDepartmentName": "Department",
  "MRAcquisitionType": "2D",
  "MagneticFieldStrength": 3,
  "Manufacturer": "Siemens",
  "ManufacturersModelName": "Prisma_fit",
  "Modality": "MR",
  "MultibandAccelerationFactor": 4,
  "PartialFourier": 1,
  "PatientPosition": "HFS",
  "PercentPhaseFOV": 100,
  "PercentSampling": 100,
  "PhaseEncodingDirection": "j",
  "PhaseEncodingSteps": 104,
  "PhaseResolution": 1,
  "PixelBandwidth": 2290,
  "ProcedureStepDescription": "video_friends",
  "ProtocolName": "func_task-friends-s01e19b",
  "PulseSequenceDetails": "%CustomerSeq%_cmrr_mbep2d_bold",
  "ReceiveCoilActiveElements": "HC1-7;NC1,2",
  "ReceiveCoilName": "HeadNeck_64",
  "ReconMatrixPE": 104,
  "RepetitionTime": 1.49,
  "SAR": 0.038545,
  "ScanOptions": "FS",
  "ScanningSequence": "EP",
  "SequenceName": "epfid2d1_104",
  "SequenceVariant": "SK_SS",
  "SeriesDescription": "func_task-friends-s01e19b",
  "SeriesNumber": 14,
  "ShimSetting": [638, -7207, -8805, 741, 109, -23, 50, -9],
  "SliceThickness": 2,
  "SliceTiming": [0, 0.785, 0.1, 0.8825, 0.1975, 0.98, 0.295, 1.08, 0.3925, 1.1775, 0.49, 1.275, 0.59, 1.3725, 0.6875, 0, 0.785, 0.1, 0.8825, 0.1975, 0.98, 0.295, 1.08, 0.3925, 1.1775, 0.49, 1.275, 0.59, 1.3725, 0.6875, 0, 0.785, 0.1, 0.8825, 0.1975, 0.98, 0.295, 1.08, 0.3925, 1.1775, 0.49, 1.275, 0.59, 1.3725, 0.6875, 0, 0.785, 0.1, 0.8825, 0.1975, 0.98, 0.295, 1.08, 0.3925, 1.1775, 0.49, 1.275, 0.59, 1.3725, 0.6875],
  "SoftwareVersions": "syngo_MR_E11",
  "SpacingBetweenSlices": 2,
  "StationName": "MRC35049",
  "TaskName": "s01e19b",
  "TotalReadoutTime": 0.0576811,
  "TxRefAmp": 248.126,
  "WipMemBlock": "2a897afa-50ac-4a95-9cbd-8673db733a66||Sequence: R016 ve11c/master r/e634e98; Dec 19 2017 11:00:25 by eja",
  "dcmmeta_affine": [
    [-1.9966883659362793, -0.08019528537988663, 0.08248668164014816, 104.8152847290039],
    [-0.10028475522994995, 1.9159852266311646, -0.5647508502006531, -68.1150131225586],
    [0.05637645721435547, 0.5679517984390259, 1.9168338775634766, -53.53849792480469],
    [0.0, 0.0, 0.0, 1.0]
],
  "dcmmeta_reorient_transform": [
    [0.0, -1.0, 0.0, 103.0],
    [1.0, 0.0, 0.0, 0.0],
    [0.0, 0.0, 1.0, 0.0],
    [0.0, 0.0, 0.0, 1.0]
],
  "dcmmeta_shape": [104, 104, 60, 460],
  "dcmmeta_slice_dim": 2,
  "dcmmeta_version": 0.6,
  "global": {
    "const": {
      "AcquisitionMatrix": [104, 0, 0, 104],
      "AngioFlag": "N",
      "BitsAllocated": 16,
      "BitsStored": 16,
      "BodyPartExamined": "BRAIN",
      "Columns": 832,
      "EchoNumbers": 1,
      "EchoTime": 37.0,
      "EchoTrainLength": 104,
      "FlipAngle": 52.0,
      "HighBit": 15,
      "ImageOrientationPatient": [0.99834421206953, 0.05014237685054, 0.02818822929966, -0.0400976420612, 0.95799262032198, -0.2839759118477],
      "ImagePositionPatient": [-794.15867346476, -863.15374512251, 191.17397156995],
      "ImageType": [
        "ORIGINAL",
        "PRIMARY",
        "M",
        "MB",
        "ND",
        "MOSAIC"
],
      "ImagedNucleus": "1H",
      "ImagingFrequency": 123.259128,
      "InPlanePhaseEncodingDirection": "COL",
      "MRAcquisitionType": "2D",
      "MagneticFieldStrength": 3.0,
      "Manufacturer": "SIEMENS",
      "ManufacturerModelName": "Prisma_fit",
      "Modality": "MR",
      "NumberOfAverages": 1.0,
      "NumberOfPhaseEncodingSteps": 104,
      "PercentPhaseFieldOfView": 100.0,
      "PercentSampling": 100.0,
      "PerformedProcedureStepStartTime": "104558.599000",
      "PhotometricInterpretation": "MONOCHROME2",
      "PixelBandwidth": 2290.0,
      "PixelRepresentation": 0,
      "PixelSpacing": [2.0, 2.0],
      "ProtocolName": "func_task-friends-s01e19b",
      "RepetitionTime": 1490.0,
      "Rows": 832,
      "SAR": 0.03854501038166,
      "SamplesPerPixel": 1,
      "ScanOptions": "FS",
      "ScanningSequence": "EP",
      "SequenceName": "epfid2d1_104",
      "SequenceVariant": [
        "SK",
        "SS"
],
      "SeriesDescription": "func_task-friends-s01e19b",
      "SeriesNumber": 14,
      "SeriesTime": "113929.908000",
      "SliceLocation": -27.755268164016,
      "SliceThickness": 2.0,
      "SmallestImagePixelValue": 0,
      "SoftwareVersions": "syngo MR E11",
      "SpacingBetweenSlices": 1.9999999578513,
      "SpecificCharacterSet": "ISO_IR 100",
      "StudyID": "1",
      "StudyTime": "104558.523000",
      "TransmitCoilName": "Body",
      "VariableFlipAngleFlag": "N",
      "WindowCenterWidthExplanation": "Algo1",
      "dBdt": 0.0},
    "slices": {}
  },
  "time": {
    "samples": {
      "AcquisitionNumber": [1, 2, 3, 4, 5, 6, 7, 8, 9, 10, 11, 12, 13, 14, 15, 16, 17, 18, 19, 20, 21, 22, 23, 24, 25, 26, 27, 28, 29, 30, 31, 32, 33, 34, 35, 36, 37, 38, 39, 40, 41, 42, 43, 44, 45, 46, 47, 48, 49, 50, 51, 52, 53, 54, 55, 56, 57, 58, 59, 60, 61, 62, 63, 64, 65, 66, 67, 68, 69, 70, 71, 72, 73, 74, 75, 76, 77, 78, 79, 80, 81, 82, 83, 84, 85, 86, 87, 88, 89, 90, 91, 92, 93, 94, 95, 96, 97, 98, 99, 100, 101, 102, 103, 104, 105, 106, 107, 108, 109, 110, 111, 112, 113, 114, 115, 116, 117, 118, 119, 120, 121, 122, 123, 124, 125, 126, 127, 128, 129, 130, 131, 132, 133, 134, 135, 136, 137, 138, 139, 140, 141, 142, 143, 144, 145, 146, 147, 148, 149, 150, 151, 152, 153, 154, 155, 156, 157, 158, 159, 160, 161, 162, 163, 164, 165, 166, 167, 168, 169, 170, 171, 172, 173, 174, 175, 176, 177, 178, 179, 180, 181, 182, 183, 184, 185, 186, 187, 188, 189, 190, 191, 192, 193, 194, 195, 196, 197, 198, 199, 200, 201, 202, 203, 204, 205, 206, 207, 208, 209, 210, 211, 212, 213, 214, 215, 216, 217, 218, 219, 220, 221, 222, 223, 224, 225, 226, 227, 228, 229, 230, 231, 232, 233, 234, 235, 236, 237, 238, 239, 240, 241, 242, 243, 244, 245, 246, 247, 248, 249, 250, 251, 252, 253, 254, 255, 256, 257, 258, 259, 260, 261, 262, 263, 264, 265, 266, 267, 268, 269, 270, 271, 272, 273, 274, 275, 276, 277, 278, 279, 280, 281, 282, 283, 284, 285, 286, 287, 288, 289, 290, 291, 292, 293, 294, 295, 296, 297, 298, 299, 300, 301, 302, 303, 304, 305, 306, 307, 308, 309, 310, 311, 312, 313, 314, 315, 316, 317, 318, 319, 320, 321, 322, 323, 324, 325, 326, 327, 328, 329, 330, 331, 332, 333, 334, 335, 336, 337, 338, 339, 340, 341, 342, 343, 344, 345, 346, 347, 348, 349, 350, 351, 352, 353, 354, 355, 356, 357, 358, 359, 360, 361, 362, 363, 364, 365, 366, 367, 368, 369, 370, 371, 372, 373, 374, 375, 376, 377, 378, 379, 380, 381, 382, 383, 384, 385, 386, 387, 388, 389, 390, 391, 392, 393, 394, 395, 396, 397, 398, 399, 400, 401, 402, 403, 404, 405, 406, 407, 408, 409, 410, 411, 412, 413, 414, 415, 416, 417, 418, 419, 420, 421, 422, 423, 424, 425, 426, 427, 428, 429, 430, 431, 432, 433, 434, 435, 436, 437, 438, 439, 440, 441, 442, 443, 444, 445, 446, 447, 448, 449, 450, 451, 452, 453, 454, 455, 456, 457, 458, 459, 460],
      "AcquisitionTime": ["113815.792500", "113817.282500", "113818.772500", "113820.262500", "113821.752500", "113823.242500", "113824.732500", "113826.222500", "113827.712500", "113829.202500", "113830.692500", "113832.182500", "113833.672500", "113835.162500", "113836.652500", "113838.142500", "113839.632500", "113841.122500", "113842.612500", "113844.102500", "113845.592500", "113847.082500", "113848.572500", "113850.062500", "113851.552500", "113853.042500", "113854.532500", "113856.022500", "113857.512500", "113859.002500", "113900.492500", "113901.982500", "113903.472500", "113904.962500", "113906.452500", "113907.942500", "113909.432500", "113910.922500", "113912.412500", "113913.902500", "113915.392500", "113916.882500", "113918.372500", "113919.862500", "113921.352500", "113922.842500", "113924.332500", "113925.822500", "113927.312500", "113928.802500", "113930.292500", "113931.782500", "113933.272500", "113934.762500", "113936.252500", "113937.742500", "113939.232500", "113940.722500", "113942.212500", "113943.702500", "113945.192500", "113946.682500", "113948.172500", "113949.662500", "113951.152500", "113952.642500", "113954.132500", "113955.622500", "113957.112500", "113958.602500", "114000.092500", "114001.582500", "114003.072500", "114004.562500", "114006.052500", "114007.542500", "114009.032500", "114010.522500", "114012.012500", "114013.502500", "114014.992500", "114016.482500", "114017.972500", "114019.462500", "114020.952500", "114022.442500", "114023.932500", "114025.422500", "114026.912500", "114028.402500", "114029.892500", "114031.382500", "114032.872500", "114034.362500", "114035.852500", "114037.342500", "114038.832500", "114040.322500", "114041.812500", "114043.302500", "114044.792500", "114046.282500", "114047.772500", "114049.262500", "114050.752500", "114052.242500", "114053.732500", "114055.222500", "114056.712500", "114058.202500", "114059.692500", "114101.182500", "114102.672500", "114104.162500", "114105.652500", "114107.142500", "114108.632500", "114110.122500", "114111.612500", "114113.102500", "114114.592500", "114116.082500", "114117.572500", "114119.062500", "114120.552500", "114122.042500", "114123.532500", "114125.022500", "114126.512500", "114128.002500", "114129.492500", "114130.982500", "114132.472500", "114133.962500", "114135.452500", "114136.942500", "114138.432500", "114139.922500", "114141.412500", "114142.902500", "114144.392500", "114145.882500", "114147.372500", "114148.862500", "114150.352500", "114151.842500", "114153.332500", "114154.822500", "114156.312500", "114157.802500", "114159.292500", "114200.782500", "114202.272500", "114203.762500", "114205.252500", "114206.742500", "114208.232500", "114209.722500", "114211.212500", "114212.702500", "114214.192500", "114215.682500", "114217.172500", "114218.662500", "114220.152500", "114221.642500", "114223.132500", "114224.622500", "114226.112500", "114227.602500", "114229.092500", "114230.582500", "114232.072500", "114233.562500", "114235.052500", "114236.542500", "114238.032500", "114239.522500", "114241.012500", "114242.502500", "114243.992500", "114245.482500", "114246.972500", "114248.462500", "114249.952500", "114251.442500", "114252.932500", "114254.422500", "114255.912500", "114257.402500", "114258.892500", "114300.382500", "114301.872500", "114303.362500", "114304.852500", "114306.342500", "114307.832500", "114309.322500", "114310.812500", "114312.302500", "114313.792500", "114315.282500", "114316.772500", "114318.262500", "114319.752500", "114321.242500", "114322.732500", "114324.222500", "114325.712500", "114327.202500", "114328.692500", "114330.182500", "114331.672500", "114333.162500", "114334.652500", "114336.142500", "114337.632500", "114339.122500", "114340.612500", "114342.102500", "114343.592500", "114345.082500", "114346.572500", "114348.062500", "114349.552500", "114351.042500", "114352.532500", "114354.022500", "114355.512500", "114357.002500", "114358.492500", "114359.982500", "114401.472500", "114402.962500", "114404.452500", "114405.942500", "114407.432500", "114408.922500", "114410.412500", "114411.902500", "114413.392500", "114414.882500", "114416.372500", "114417.862500", "114419.352500", "114420.842500", "114422.332500", "114423.822500", "114425.312500", "114426.802500", "114428.292500", "114429.782500", "114431.272500", "114432.762500", "114434.252500", "114435.742500", "114437.232500", "114438.722500", "114440.212500", "114441.702500", "114443.192500", "114444.682500", "114446.172500", "114447.662500", "114449.152500", "114450.642500", "114452.132500", "114453.622500", "114455.112500", "114456.602500", "114458.092500", "114459.582500", "114501.072500", "114502.562500", "114504.052500", "114505.542500", "114507.032500", "114508.522500", "114510.012500", "114511.502500", "114512.992500", "114514.482500", "114515.972500", "114517.462500", "114518.952500", "114520.442500", "114521.932500", "114523.422500", "114524.912500", "114526.402500", "114527.892500", "114529.382500", "114530.872500", "114532.362500", "114533.852500", "114535.342500", "114536.832500", "114538.322500", "114539.812500", "114541.302500", "114542.792500", "114544.282500", "114545.772500", "114547.262500", "114548.752500", "114550.242500", "114551.732500", "114553.222500", "114554.712500", "114556.202500", "114557.692500", "114559.182500", "114600.672500", "114602.162500", "114603.652500", "114605.142500", "114606.632500", "114608.122500", "114609.612500", "114611.102500", "114612.592500", "114614.082500", "114615.572500", "114617.062500", "114618.552500", "114620.042500", "114621.532500", "114623.022500", "114624.512500", "114626.002500", "114627.492500", "114628.982500", "114630.472500", "114631.962500", "114633.452500", "114634.942500", "114636.432500", "114637.922500", "114639.412500", "114640.902500", "114642.392500", "114643.882500", "114645.372500", "114646.862500", "114648.352500", "114649.842500", "114651.332500", "114652.822500", "114654.312500", "114655.802500", "114657.292500", "114658.782500", "114700.272500", "114701.762500", "114703.252500", "114704.742500", "114706.232500", "114707.722500", "114709.212500", "114710.702500", "114712.192500", "114713.682500", "114715.172500", "114716.662500", "114718.152500", "114719.642500", "114721.132500", "114722.622500", "114724.112500", "114725.602500", "114727.092500", "114728.582500", "114730.072500", "114731.562500", "114733.052500", "114734.542500", "114736.032500", "114737.522500", "114739.012500", "114740.502500", "114741.992500", "114743.482500", "114744.972500", "114746.462500", "114747.952500", "114749.442500", "114750.932500", "114752.422500", "114753.912500", "114755.402500", "114756.892500", "114758.382500", "114759.872500", "114801.362500", "114802.852500", "114804.342500", "114805.832500", "114807.322500", "114808.812500", "114810.302500", "114811.792500", "114813.282500", "114814.772500", "114816.262500", "114817.752500", "114819.242500", "114820.732500", "114822.222500", "114823.712500", "114825.202500", "114826.692500", "114828.182500", "114829.672500", "114831.162500", "114832.652500", "114834.142500", "114835.632500", "114837.122500", "114838.612500", "114840.102500", "114841.592500", "114843.082500", "114844.572500", "114846.062500", "114847.552500", "114849.042500", "114850.532500", "114852.022500", "114853.512500", "114855.002500", "114856.492500", "114857.982500", "114859.472500", "114900.962500", "114902.452500", "114903.942500", "114905.432500", "114906.922500", "114908.412500", "114909.902500", "114911.392500", "114912.882500", "114914.372500", "114915.862500", "114917.352500", "114918.842500", "114920.332500", "114921.822500", "114923.312500", "114924.802500", "114926.292500", "114927.782500", "114929.272500", "114930.762500", "114932.252500", "114933.742500", "114935.232500", "114936.722500", "114938.212500", "114939.702500"],
      "ContentTime": ["113929.911000", "113929.914000", "113929.917000", "113929.920000", "113929.923000", "113929.926000", "113929.929000", "113929.932000", "113929.935000", "113929.938000", "113929.940000", "113929.948000", "113929.955000", "113929.963000", "113929.966000", "113929.969000", "113929.972000", "113929.975000", "113929.978000", "113929.981000", "113949.860000", "113949.863000", "113949.866000", "113949.869000", "113949.872000", "113949.875000", "113949.878000", "113949.881000", "113949.884000", "113949.887000", "113949.889000", "113949.892000", "113949.895000", "113949.898000", "113949.901000", "113949.904000", "113949.907000", "113949.910000", "113949.913000", "113949.916000", "114009.860000", "114009.863000", "114009.866000", "114009.869000", "114009.872000", "114009.875000", "114009.878000", "114009.885000", "114009.888000", "114009.892000", "114009.895000", "114009.898000", "114009.901000", "114009.904000", "114009.907000", "114009.910000", "114009.913000", "114009.915000", "114009.918000", "114009.921000", "114009.924000", "114029.859000", "114029.862000", "114029.865000", "114029.868000", "114029.871000", "114029.874000", "114029.876000", "114029.879000", "114029.882000", "114029.885000", "114029.888000", "114029.891000", "114029.894000", "114029.897000", "114029.900000", "114029.903000", "114029.921000", "114029.924000", "114029.927000", "114029.930000", "114049.859000", "114049.862000", "114049.865000", "114049.868000", "114049.871000", "114049.874000", "114049.877000", "114049.880000", "114049.882000", "114049.885000", "114049.888000", "114049.891000", "114049.894000", "114049.897000", "114049.900000", "114049.903000", "114049.906000", "114049.909000", "114049.912000", "114049.915000", "114129.859000", "114129.862000", "114129.865000", "114129.868000", "114129.871000", "114129.874000", "114129.877000", "114129.879000", "114129.882000", "114129.885000", "114129.888000", "114129.891000", "114129.906000", "114129.909000", "114129.912000", "114129.915000", "114129.918000", "114129.921000", "114129.924000", "114129.927000", "114129.930000", "114129.933000", "114129.936000", "114129.938000", "114129.941000", "114129.944000", "114129.947000", "114129.950000", "114209.860000", "114209.863000", "114209.866000", "114209.869000", "114209.872000", "114209.875000", "114209.878000", "114209.881000", "114209.883000", "114209.886000", "114209.889000", "114209.892000", "114209.895000", "114209.898000", "114209.901000", "114209.904000", "114209.907000", "114209.910000", "114209.912000", "114209.915000", "114209.918000", "114209.921000", "114209.924000", "114209.927000", "114209.930000", "114209.933000", "114209.936000", "114249.859000", "114249.862000", "114249.865000", "114249.868000", "114249.871000", "114249.874000", "114249.877000", "114249.880000", "114249.883000", "114249.885000", "114249.888000", "114249.891000", "114249.894000", "114249.897000", "114249.900000", "114249.903000", "114249.906000", "114249.909000", "114249.912000", "114249.915000", "114249.917000", "114249.920000", "114249.923000", "114249.926000", "114249.929000", "114249.932000", "114249.935000", "114329.859000", "114329.862000", "114329.865000", "114329.868000", "114329.871000", "114329.874000", "114329.877000", "114329.879000", "114329.882000", "114329.885000", "114329.888000", "114329.891000", "114329.894000", "114329.897000", "114329.900000", "114329.903000", "114329.906000", "114329.909000", "114329.912000", "114329.914000", "114329.918000", "114329.920000", "114329.923000", "114329.926000", "114329.929000", "114329.932000", "114329.935000", "114409.859000", "114409.862000", "114409.865000", "114409.868000", "114409.871000", "114409.874000", "114409.877000", "114409.880000", "114409.883000", "114409.886000", "114409.889000", "114409.892000", "114409.895000", "114409.898000", "114409.901000", "114409.904000", "114409.907000", "114409.911000", "114409.914000", "114409.917000", "114409.920000", "114409.923000", "114409.926000", "114409.929000", "114409.932000", "114409.935000", "114449.860000", "114449.863000", "114449.866000", "114449.869000", "114449.872000", "114449.875000", "114449.878000", "114449.881000", "114449.884000", "114449.887000", "114449.889000", "114449.892000", "114449.895000", "114449.898000", "114449.901000", "114449.904000", "114449.907000", "114449.910000", "114449.913000", "114449.916000", "114449.919000", "114449.922000", "114449.925000", "114449.928000", "114449.930000", "114449.933000", "114449.936000", "114529.859000", "114529.862000", "114529.865000", "114529.868000", "114529.871000", "114529.874000", "114529.877000", "114529.880000", "114529.883000", "114529.885000", "114529.888000", "114529.903000", "114529.906000", "114529.909000", "114529.911000", "114529.914000", "114529.917000", "114529.920000", "114529.923000", "114529.926000", "114529.929000", "114529.932000", "114529.935000", "114529.937000", "114529.940000", "114529.943000", "114529.946000", "114609.859000", "114609.862000", "114609.865000", "114609.868000", "114609.871000", "114609.874000", "114609.877000", "114609.880000", "114609.883000", "114609.886000", "114609.889000", "114609.891000", "114609.894000", "114609.897000", "114609.900000", "114609.903000", "114609.906000", "114609.909000", "114609.912000", "114609.915000", "114609.918000", "114609.920000", "114609.923000", "114609.926000", "114609.929000", "114609.932000", "114609.935000", "114649.860000", "114649.863000", "114649.866000", "114649.869000", "114649.872000", "114649.875000", "114649.878000", "114649.881000", "114649.884000", "114649.887000", "114649.890000", "114649.893000", "114649.895000", "114649.898000", "114649.901000", "114649.904000", "114649.907000", "114649.910000", "114649.913000", "114649.916000", "114649.919000", "114649.922000", "114649.925000", "114649.927000", "114649.930000", "114649.933000", "114649.936000", "114729.859000", "114729.862000", "114729.865000", "114729.868000", "114729.871000", "114729.874000", "114729.877000", "114729.879000", "114729.882000", "114729.885000", "114729.888000", "114729.891000", "114729.894000", "114729.897000", "114729.900000", "114729.903000", "114729.906000", "114729.909000", "114729.912000", "114729.915000", "114729.917000", "114729.920000", "114729.923000", "114729.926000", "114729.929000", "114729.932000", "114729.935000", "114809.859000", "114809.862000", "114809.865000", "114809.868000", "114809.871000", "114809.874000", "114809.877000", "114809.880000", "114809.883000", "114809.886000", "114809.889000", "114809.892000", "114809.894000", "114809.897000", "114809.900000", "114809.903000", "114809.906000", "114809.909000", "114809.912000", "114809.915000", "114809.918000", "114809.921000", "114809.924000", "114809.927000", "114809.930000", "114809.932000", "114809.935000", "114849.859000", "114849.862000", "114849.865000", "114849.868000", "114849.871000", "114849.874000", "114849.877000", "114849.880000", "114849.883000", "114849.886000", "114849.889000", "114849.893000", "114849.896000", "114849.899000", "114849.903000", "114849.906000", "114849.909000", "114849.912000", "114849.915000", "114849.918000", "114849.921000", "114849.924000", "114849.926000", "114849.929000", "114849.932000", "114849.935000", "114929.860000", "114929.863000", "114929.866000", "114929.869000", "114929.872000", "114929.875000", "114929.878000", "114929.881000", "114929.884000", "114929.887000", "114929.890000", "114929.892000", "114929.895000", "114929.898000", "114929.901000", "114929.904000", "114929.907000", "114929.910000", "114929.913000", "114929.916000", "114929.930000", "114929.933000", "114929.935000", "114929.938000", "114929.941000", "114929.944000", "114929.947000", "114942.219000", "114942.222000", "114942.225000", "114942.228000", "114942.231000", "114942.234000", "114942.237000", "114942.240000", "114942.243000"],
