{
  "AcquisitionMatrixPE": 104,
  "AcquisitionNumber": 1,
  "AcquisitionTime": "11:26:19.110000",
  "BandwidthPerPixelPhaseEncode": 17.17,
  "BaseResolution": 104,
  "BodyPartExamined": "BRAIN",
  "CoilString": "HC1-7;NC1_2",
  "ConsistencyInfo": "N4_VE11C_LATEST_20160120",
  "ConversionSoftware": "dcm2niix",
  "ConversionSoftwareVersion": "v1.0.20200427",
  "DerivedVendorReportedEchoSpacing": 0.000560011,
  "DeviceSerialNumber": "167006",
  "DwellTime": 2.1e-06,
  "EchoTime": 0.037,
  "EchoTrainLength": 104,
  "EffectiveEchoSpacing": 0.000560011,
  "FlipAngle": 52,
  "ImageComments": "Unaliased_MB4_PE3_LB",
  "ImageOrientationPatientDICOM": [0.998344, 0.0501424, 0.0281882, -0.0400976, 0.957993, -0.283976],
  "ImageType": [
    "ORIGINAL",
    "PRIMARY",
    "M",
    "MB",
    "ND",
    "MOSAIC"
],
  "ImagingFrequency": 123.259,
  "InPlanePhaseEncodingDirectionDICOM": "COL",
  "InstitutionAddress": "Chemin_Queen-Mary_4565_Montreal_District_CA_H3W_1W5",
  "InstitutionName": "IUGM",
  "InstitutionalDepartmentName": "Department",
  "MRAcquisitionType": "2D",
  "MagneticFieldStrength": 3,
  "Manufacturer": "Siemens",
  "ManufacturersModelName": "Prisma_fit",
  "Modality": "MR",
  "MultibandAccelerationFactor": 4,
  "PartialFourier": 1,
  "PatientPosition": "HFS",
  "PercentPhaseFOV": 100,
  "PercentSampling": 100,
  "PhaseEncodingDirection": "j",
  "PhaseEncodingSteps": 104,
  "PhaseResolution": 1,
  "PixelBandwidth": 2290,
  "ProcedureStepDescription": "video_friends",
  "ProtocolName": "func_task-friends-s01e19a",
  "PulseSequenceDetails": "%CustomerSeq%_cmrr_mbep2d_bold",
  "ReceiveCoilActiveElements": "HC1-7;NC1,2",
  "ReceiveCoilName": "HeadNeck_64",
  "ReconMatrixPE": 104,
  "RepetitionTime": 1.49,
  "SAR": 0.038545,
  "ScanOptions": "FS",
  "ScanningSequence": "EP",
  "SequenceName": "epfid2d1_104",
  "SequenceVariant": "SK_SS",
  "SeriesDescription": "func_task-friends-s01e19a",
  "SeriesNumber": 12,
  "ShimSetting": [638, -7207, -8805, 741, 109, -23, 50, -9],
  "SliceThickness": 2,
  "SliceTiming": [0, 0.7825, 0.0975, 0.88, 0.195, 0.98, 0.2925, 1.0775, 0.3925, 1.175, 0.49, 1.2725, 0.5875, 1.37, 0.685, 0, 0.7825, 0.0975, 0.88, 0.195, 0.98, 0.2925, 1.0775, 0.3925, 1.175, 0.49, 1.2725, 0.5875, 1.37, 0.685, 0, 0.7825, 0.0975, 0.88, 0.195, 0.98, 0.2925, 1.0775, 0.3925, 1.175, 0.49, 1.2725, 0.5875, 1.37, 0.685, 0, 0.7825, 0.0975, 0.88, 0.195, 0.98, 0.2925, 1.0775, 0.3925, 1.175, 0.49, 1.2725, 0.5875, 1.37, 0.685],
  "SoftwareVersions": "syngo_MR_E11",
  "SpacingBetweenSlices": 2,
  "StationName": "MRC35049",
  "TaskName": "s01e19a",
  "TotalReadoutTime": 0.0576811,
  "TxRefAmp": 248.126,
  "WipMemBlock": "f4d64264-955e-4cff-8a2b-9c51803bff59||Sequence: R016 ve11c/master r/e634e98; Dec 19 2017 11:00:25 by eja",
  "dcmmeta_affine": [
    [-1.9966883659362793, -0.08019528537988663, 0.08248668164014816, 104.8152847290039],
    [-0.10028475522994995, 1.9159852266311646, -0.5647508502006531, -68.1150131225586],
    [0.05637645721435547, 0.5679517984390259, 1.9168338775634766, -53.53849792480469],
    [0.0, 0.0, 0.0, 1.0]
],
  "dcmmeta_reorient_transform": [
    [0.0, -1.0, 0.0, 103.0],
    [1.0, 0.0, 0.0, 0.0],
    [0.0, 0.0, 1.0, 0.0],
    [0.0, 0.0, 0.0, 1.0]
],
  "dcmmeta_shape": [104, 104, 60, 460],
  "dcmmeta_slice_dim": 2,
  "dcmmeta_version": 0.6,
  "global": {
    "const": {
      "AcquisitionMatrix": [104, 0, 0, 104],
      "AngioFlag": "N",
      "BitsAllocated": 16,
      "BitsStored": 16,
      "BodyPartExamined": "BRAIN",
      "Columns": 832,
      "EchoNumbers": 1,
      "EchoTime": 37.0,
      "EchoTrainLength": 104,
      "FlipAngle": 52.0,
      "HighBit": 15,
      "ImageOrientationPatient": [0.99834421206953, 0.05014237685054, 0.02818822929966, -0.0400976420612, 0.95799262032198, -0.2839759118477],
      "ImagePositionPatient": [-794.15867346476, -863.15374512251, 191.17397156995],
      "ImageType": [
        "ORIGINAL",
        "PRIMARY",
        "M",
        "MB",
        "ND",
        "MOSAIC"
],
      "ImagedNucleus": "1H",
      "ImagingFrequency": 123.259128,
      "InPlanePhaseEncodingDirection": "COL",
      "MRAcquisitionType": "2D",
      "MagneticFieldStrength": 3.0,
      "Manufacturer": "SIEMENS",
      "ManufacturerModelName": "Prisma_fit",
      "Modality": "MR",
      "NumberOfAverages": 1.0,
      "NumberOfPhaseEncodingSteps": 104,
      "PercentPhaseFieldOfView": 100.0,
      "PercentSampling": 100.0,
      "PerformedProcedureStepStartTime": "104558.599000",
      "PhotometricInterpretation": "MONOCHROME2",
      "PixelBandwidth": 2290.0,
      "PixelRepresentation": 0,
      "PixelSpacing": [2.0, 2.0],
      "ProtocolName": "func_task-friends-s01e19a",
      "RepetitionTime": 1490.0,
      "Rows": 832,
      "SAR": 0.03854501038166,
      "SamplesPerPixel": 1,
      "ScanOptions": "FS",
      "ScanningSequence": "EP",
      "SequenceName": "epfid2d1_104",
      "SequenceVariant": [
        "SK",
        "SS"
],
      "SeriesDescription": "func_task-friends-s01e19a",
      "SeriesNumber": 12,
      "SeriesTime": "112749.418000",
      "SliceLocation": -27.755268164016,
      "SliceThickness": 2.0,
      "SmallestImagePixelValue": 0,
      "SoftwareVersions": "syngo MR E11",
      "SpacingBetweenSlices": 1.9999999578513,
      "SpecificCharacterSet": "ISO_IR 100",
      "StudyID": "1",
      "StudyTime": "104558.523000",
      "TransmitCoilName": "Body",
      "VariableFlipAngleFlag": "N",
      "WindowCenterWidthExplanation": "Algo1",
      "dBdt": 0.0},
    "slices": {}
  },
  "time": {
    "samples": {
      "AcquisitionNumber": [1, 2, 3, 4, 5, 6, 7, 8, 9, 10, 11, 12, 13, 14, 15, 16, 17, 18, 19, 20, 21, 22, 23, 24, 25, 26, 27, 28, 29, 30, 31, 32, 33, 34, 35, 36, 37, 38, 39, 40, 41, 42, 43, 44, 45, 46, 47, 48, 49, 50, 51, 52, 53, 54, 55, 56, 57, 58, 59, 60, 61, 62, 63, 64, 65, 66, 67, 68, 69, 70, 71, 72, 73, 74, 75, 76, 77, 78, 79, 80, 81, 82, 83, 84, 85, 86, 87, 88, 89, 90, 91, 92, 93, 94, 95, 96, 97, 98, 99, 100, 101, 102, 103, 104, 105, 106, 107, 108, 109, 110, 111, 112, 113, 114, 115, 116, 117, 118, 119, 120, 121, 122, 123, 124, 125, 126, 127, 128, 129, 130, 131, 132, 133, 134, 135, 136, 137, 138, 139, 140, 141, 142, 143, 144, 145, 146, 147, 148, 149, 150, 151, 152, 153, 154, 155, 156, 157, 158, 159, 160, 161, 162, 163, 164, 165, 166, 167, 168, 169, 170, 171, 172, 173, 174, 175, 176, 177, 178, 179, 180, 181, 182, 183, 184, 185, 186, 187, 188, 189, 190, 191, 192, 193, 194, 195, 196, 197, 198, 199, 200, 201, 202, 203, 204, 205, 206, 207, 208, 209, 210, 211, 212, 213, 214, 215, 216, 217, 218, 219, 220, 221, 222, 223, 224, 225, 226, 227, 228, 229, 230, 231, 232, 233, 234, 235, 236, 237, 238, 239, 240, 241, 242, 243, 244, 245, 246, 247, 248, 249, 250, 251, 252, 253, 254, 255, 256, 257, 258, 259, 260, 261, 262, 263, 264, 265, 266, 267, 268, 269, 270, 271, 272, 273, 274, 275, 276, 277, 278, 279, 280, 281, 282, 283, 284, 285, 286, 287, 288, 289, 290, 291, 292, 293, 294, 295, 296, 297, 298, 299, 300, 301, 302, 303, 304, 305, 306, 307, 308, 309, 310, 311, 312, 313, 314, 315, 316, 317, 318, 319, 320, 321, 322, 323, 324, 325, 326, 327, 328, 329, 330, 331, 332, 333, 334, 335, 336, 337, 338, 339, 340, 341, 342, 343, 344, 345, 346, 347, 348, 349, 350, 351, 352, 353, 354, 355, 356, 357, 358, 359, 360, 361, 362, 363, 364, 365, 366, 367, 368, 369, 370, 371, 372, 373, 374, 375, 376, 377, 378, 379, 380, 381, 382, 383, 384, 385, 386, 387, 388, 389, 390, 391, 392, 393, 394, 395, 396, 397, 398, 399, 400, 401, 402, 403, 404, 405, 406, 407, 408, 409, 410, 411, 412, 413, 414, 415, 416, 417, 418, 419, 420, 421, 422, 423, 424, 425, 426, 427, 428, 429, 430, 431, 432, 433, 434, 435, 436, 437, 438, 439, 440, 441, 442, 443, 444, 445, 446, 447, 448, 449, 450, 451, 452, 453, 454, 455, 456, 457, 458, 459, 460],
      "AcquisitionTime": ["112619.110000", "112620.600000", "112622.090000", "112623.580000", "112625.070000", "112626.560000", "112628.050000", "112629.540000", "112631.030000", "112632.520000", "112634.010000", "112635.500000", "112636.990000", "112638.480000", "112639.970000", "112641.460000", "112642.950000", "112644.440000", "112645.930000", "112647.420000", "112648.910000", "112650.400000", "112651.890000", "112653.380000", "112654.870000", "112656.360000", "112657.850000", "112659.340000", "112700.830000", "112702.320000", "112703.810000", "112705.300000", "112706.790000", "112708.280000", "112709.770000", "112711.260000", "112712.750000", "112714.240000", "112715.730000", "112717.220000", "112718.710000", "112720.200000", "112721.690000", "112723.180000", "112724.670000", "112726.160000", "112727.650000", "112729.140000", "112730.630000", "112732.120000", "112733.610000", "112735.100000", "112736.590000", "112738.080000", "112739.570000", "112741.060000", "112742.550000", "112744.040000", "112745.530000", "112747.020000", "112748.510000", "112750.000000", "112751.490000", "112752.980000", "112754.470000", "112755.960000", "112757.450000", "112758.940000", "112800.430000", "112801.920000", "112803.410000", "112804.900000", "112806.390000", "112807.880000", "112809.370000", "112810.860000", "112812.350000", "112813.840000", "112815.330000", "112816.820000", "112818.310000", "112819.800000", "112821.290000", "112822.780000", "112824.270000", "112825.760000", "112827.250000", "112828.740000", "112830.230000", "112831.720000", "112833.210000", "112834.700000", "112836.190000", "112837.680000", "112839.170000", "112840.660000", "112842.150000", "112843.640000", "112845.130000", "112846.620000", "112848.110000", "112849.600000", "112851.090000", "112852.580000", "112854.070000", "112855.560000", "112857.050000", "112858.540000", "112900.030000", "112901.520000", "112903.010000", "112904.500000", "112905.990000", "112907.480000", "112908.970000", "112910.460000", "112911.950000", "112913.440000", "112914.930000", "112916.420000", "112917.910000", "112919.400000", "112920.890000", "112922.380000", "112923.870000", "112925.360000", "112926.850000", "112928.340000", "112929.830000", "112931.320000", "112932.810000", "112934.300000", "112935.790000", "112937.280000", "112938.770000", "112940.260000", "112941.750000", "112943.240000", "112944.730000", "112946.220000", "112947.710000", "112949.200000", "112950.690000", "112952.180000", "112953.670000", "112955.160000", "112956.650000", "112958.140000", "112959.630000", "113001.120000", "113002.610000", "113004.100000", "113005.590000", "113007.080000", "113008.570000", "113010.060000", "113011.550000", "113013.040000", "113014.530000", "113016.020000", "113017.510000", "113019.000000", "113020.490000", "113021.980000", "113023.470000", "113024.960000", "113026.450000", "113027.940000", "113029.430000", "113030.920000", "113032.410000", "113033.900000", "113035.390000", "113036.880000", "113038.370000", "113039.860000", "113041.350000", "113042.840000", "113044.330000", "113045.820000", "113047.310000", "113048.800000", "113050.290000", "113051.780000", "113053.270000", "113054.760000", "113056.250000", "113057.740000", "113059.230000", "113100.720000", "113102.210000", "113103.700000", "113105.190000", "113106.680000", "113108.170000", "113109.660000", "113111.150000", "113112.640000", "113114.130000", "113115.620000", "113117.110000", "113118.600000", "113120.090000", "113121.580000", "113123.070000", "113124.560000", "113126.050000", "113127.540000", "113129.030000", "113130.520000", "113132.010000", "113133.500000", "113134.990000", "113136.480000", "113137.970000", "113139.460000", "113140.950000", "113142.440000", "113143.930000", "113145.420000", "113146.910000", "113148.400000", "113149.890000", "113151.380000", "113152.870000", "113154.360000", "113155.850000", "113157.340000", "113158.830000", "113200.320000", "113201.810000", "113203.300000", "113204.790000", "113206.280000", "113207.770000", "113209.260000", "113210.750000", "113212.240000", "113213.730000", "113215.220000", "113216.710000", "113218.200000", "113219.690000", "113221.180000", "113222.670000", "113224.160000", "113225.650000", "113227.140000", "113228.630000", "113230.120000", "113231.610000", "113233.100000", "113234.590000", "113236.080000", "113237.570000", "113239.060000", "113240.550000", "113242.040000", "113243.530000", "113245.020000", "113246.510000", "113248.000000", "113249.490000", "113250.980000", "113252.470000", "113253.960000", "113255.450000", "113256.940000", "113258.430000", "113259.920000", "113301.410000", "113302.900000", "113304.390000", "113305.880000", "113307.370000", "113308.860000", "113310.350000", "113311.840000", "113313.330000", "113314.820000", "113316.310000", "113317.800000", "113319.290000", "113320.780000", "113322.270000", "113323.760000", "113325.250000", "113326.740000", "113328.230000", "113329.720000", "113331.210000", "113332.700000", "113334.190000", "113335.680000", "113337.170000", "113338.660000", "113340.150000", "113341.640000", "113343.130000", "113344.620000", "113346.110000", "113347.600000", "113349.090000", "113350.580000", "113352.070000", "113353.560000", "113355.050000", "113356.540000", "113358.030000", "113359.520000", "113401.010000", "113402.500000", "113403.990000", "113405.480000", "113406.970000", "113408.460000", "113409.950000", "113411.440000", "113412.930000", "113414.420000", "113415.910000", "113417.400000", "113418.890000", "113420.380000", "113421.870000", "113423.360000", "113424.850000", "113426.340000", "113427.830000", "113429.320000", "113430.810000", "113432.300000", "113433.790000", "113435.280000", "113436.770000", "113438.260000", "113439.750000", "113441.240000", "113442.730000", "113444.220000", "113445.710000", "113447.200000", "113448.690000", "113450.180000", "113451.670000", "113453.160000", "113454.650000", "113456.140000", "113457.630000", "113459.120000", "113500.610000", "113502.100000", "113503.590000", "113505.080000", "113506.570000", "113508.060000", "113509.550000", "113511.040000", "113512.530000", "113514.020000", "113515.510000", "113517.000000", "113518.490000", "113519.980000", "113521.470000", "113522.960000", "113524.450000", "113525.940000", "113527.430000", "113528.920000", "113530.410000", "113531.900000", "113533.390000", "113534.880000", "113536.370000", "113537.860000", "113539.350000", "113540.840000", "113542.330000", "113543.820000", "113545.310000", "113546.800000", "113548.290000", "113549.780000", "113551.270000", "113552.760000", "113554.250000", "113555.740000", "113557.230000", "113558.720000", "113600.210000", "113601.700000", "113603.190000", "113604.680000", "113606.170000", "113607.660000", "113609.150000", "113610.640000", "113612.130000", "113613.620000", "113615.110000", "113616.600000", "113618.090000", "113619.580000", "113621.070000", "113622.560000", "113624.050000", "113625.540000", "113627.030000", "113628.520000", "113630.010000", "113631.500000", "113632.990000", "113634.480000", "113635.970000", "113637.460000", "113638.950000", "113640.440000", "113641.930000", "113643.420000", "113644.910000", "113646.400000", "113647.890000", "113649.380000", "113650.870000", "113652.360000", "113653.850000", "113655.340000", "113656.830000", "113658.320000", "113659.810000", "113701.300000", "113702.790000", "113704.280000", "113705.770000", "113707.260000", "113708.750000", "113710.240000", "113711.730000", "113713.220000", "113714.710000", "113716.200000", "113717.690000", "113719.180000", "113720.670000", "113722.160000", "113723.650000", "113725.140000", "113726.630000", "113728.120000", "113729.610000", "113731.100000", "113732.590000", "113734.080000", "113735.570000", "113737.060000", "113738.550000", "113740.040000", "113741.530000", "113743.020000"],
      "ContentTime": ["112749.420000", "112749.424000", "112749.427000", "112749.430000", "112749.433000", "112749.436000", "112749.439000", "112749.444000", "112749.447000", "112749.450000", "112749.453000", "112749.456000", "112749.459000", "112749.462000", "112749.464000", "112749.467000", "112749.470000", "112749.473000", "112749.476000", "112749.479000", "112749.482000", "112749.485000", "112749.488000", "112749.491000", "112749.494000", "112749.497000", "112749.499000", "112749.502000", "112749.505000", "112749.508000", "112749.511000", "112749.514000", "112749.517000", "112749.520000", "112749.523000", "112809.396000", "112809.399000", "112809.402000", "112809.405000", "112809.408000", "112809.411000", "112809.414000", "112809.417000", "112809.420000", "112809.424000", "112809.428000", "112809.431000", "112809.434000", "112809.436000", "112809.440000", "112809.443000", "112809.446000", "112809.449000", "112809.452000", "112809.456000", "112829.396000", "112829.399000", "112829.402000", "112829.405000", "112829.408000", "112829.410000", "112829.413000", "112829.416000", "112829.419000", "112829.422000", "112829.425000", "112829.428000", "112829.431000", "112829.434000", "112829.436000", "112829.439000", "112829.442000", "112829.445000", "112829.448000", "112829.451000", "112849.396000", "112849.399000", "112849.402000", "112849.405000", "112849.408000", "112849.410000", "112849.413000", "112849.416000", "112849.419000", "112849.422000", "112849.425000", "112849.428000", "112849.431000", "112849.434000", "112849.436000", "112849.439000", "112849.442000", "112849.445000", "112849.448000", "112849.451000", "112849.454000", "112929.395000", "112929.398000", "112929.401000", "112929.404000", "112929.407000", "112929.410000", "112929.413000", "112929.416000", "112929.419000", "112929.422000", "112929.425000", "112929.427000", "112929.430000", "112929.433000", "112929.436000", "112929.439000", "112929.442000", "112929.445000", "112929.448000", "112929.451000", "112929.454000", "112929.456000", "112929.459000", "112929.462000", "112929.465000", "112929.468000", "112929.471000", "112929.474000", "112929.477000", "112929.480000", "112929.482000", "113009.395000", "113009.398000", "113009.401000", "113009.404000", "113009.407000", "113009.410000", "113009.412000", "113009.415000", "113009.418000", "113009.421000", "113009.424000", "113009.427000", "113009.430000", "113009.433000", "113009.436000", "113009.439000", "113009.442000", "113009.445000", "113009.447000", "113009.450000", "113009.453000", "113009.456000", "113009.459000", "113009.462000", "113009.465000", "113009.468000", "113009.471000", "113049.396000", "113049.399000", "113049.402000", "113049.405000", "113049.408000", "113049.411000", "113049.414000", "113049.417000", "113049.420000", "113049.423000", "113049.428000", "113049.431000", "113049.434000", "113049.437000", "113049.440000", "113049.443000", "113049.446000", "113049.449000", "113049.452000", "113049.454000", "113049.457000", "113049.460000", "113049.463000", "113049.466000", "113049.469000", "113049.472000", "113049.475000", "113129.395000", "113129.414000", "113129.417000", "113129.420000", "113129.423000", "113129.425000", "113129.428000", "113129.431000", "113129.434000", "113129.437000", "113129.440000", "113129.443000", "113129.446000", "113129.449000", "113129.452000", "113129.455000", "113129.457000", "113129.460000", "113129.463000", "113129.466000", "113129.469000", "113129.472000", "113129.475000", "113129.478000", "113129.481000", "113129.483000", "113129.486000", "113209.395000", "113209.398000", "113209.401000", "113209.404000", "113209.407000", "113209.410000", "113209.413000", "113209.416000", "113209.418000", "113209.421000", "113209.424000", "113209.427000", "113209.430000", "113209.433000", "113209.436000", "113209.439000", "113209.442000", "113209.445000", "113209.448000", "113209.451000", "113209.454000", "113209.456000", "113209.459000", "113209.462000", "113209.465000", "113209.468000", "113209.471000", "113249.396000", "113249.399000", "113249.402000", "113249.405000", "113249.408000", "113249.411000", "113249.414000", "113249.416000", "113249.419000", "113249.422000", "113249.425000", "113249.428000", "113249.431000", "113249.434000", "113249.437000", "113249.440000", "113249.443000", "113249.445000", "113249.448000", "113249.451000", "113249.454000", "113249.457000", "113249.460000", "113249.463000", "113249.466000", "113249.469000", "113329.396000", "113329.399000", "113329.402000", "113329.405000", "113329.408000", "113329.411000", "113329.414000", "113329.417000", "113329.419000", "113329.422000", "113329.425000", "113329.428000", "113329.431000", "113329.434000", "113329.437000", "113329.440000", "113329.443000", "113329.446000", "113329.448000", "113329.451000", "113329.454000", "113329.457000", "113329.460000", "113329.463000", "113329.466000", "113329.469000", "113329.472000", "113409.395000", "113409.398000", "113409.401000", "113409.404000", "113409.407000", "113409.410000", "113409.413000", "113409.416000", "113409.419000", "113409.422000", "113409.424000", "113409.427000", "113409.430000", "113409.433000", "113409.436000", "113409.439000", "113409.442000", "113409.445000", "113409.448000", "113409.451000", "113409.454000", "113409.457000", "113409.459000", "113409.462000", "113409.465000", "113409.468000", "113409.471000", "113449.395000", "113449.398000", "113449.401000", "113449.404000", "113449.407000", "113449.410000", "113449.413000", "113449.415000", "113449.418000", "113449.421000", "113449.424000", "113449.427000", "113449.430000", "113449.433000", "113449.436000", "113449.439000", "113449.442000", "113449.445000", "113449.448000", "113449.450000", "113449.453000", "113449.456000", "113449.459000", "113449.462000", "113449.465000", "113449.468000", "113449.471000", "113529.396000", "113529.399000", "113529.402000", "113529.405000", "113529.408000", "113529.411000", "113529.414000", "113529.417000", "113529.420000", "113529.422000", "113529.425000", "113529.428000", "113529.431000", "113529.434000", "113529.437000", "113529.440000", "113529.443000", "113529.446000", "113529.449000", "113529.452000", "113529.455000", "113529.458000", "113529.460000", "113529.463000", "113529.466000", "113529.469000", "113529.472000", "113609.395000", "113609.398000", "113609.401000", "113609.404000", "113609.407000", "113609.410000", "113609.413000", "113609.416000", "113609.419000", "113609.422000", "113609.425000", "113609.427000", "113609.430000", "113609.433000", "113609.436000", "113609.439000", "113609.442000", "113609.445000", "113609.448000", "113609.451000", "113609.454000", "113609.456000", "113609.459000", "113609.462000", "113609.465000", "113609.468000", "113609.471000", "113649.395000", "113649.398000", "113649.401000", "113649.404000", "113649.407000", "113649.410000", "113649.413000", "113649.416000", "113649.419000", "113649.422000", "113649.425000", "113649.428000", "113649.431000", "113649.434000", "113649.437000", "113649.440000", "113649.442000", "113649.445000", "113649.448000", "113649.451000", "113649.454000", "113649.457000", "113649.460000", "113649.463000", "113649.466000", "113649.469000", "113729.396000", "113729.399000", "113729.402000", "113729.405000", "113729.408000", "113729.411000", "113729.414000", "113729.417000", "113729.419000", "113729.422000", "113729.425000", "113729.428000", "113729.431000", "113729.434000", "113729.437000", "113729.440000", "113729.443000", "113729.446000", "113729.449000", "113729.452000", "113729.455000", "113729.457000", "113729.461000", "113729.464000", "113729.466000", "113729.469000", "113729.472000", "113744.691000", "113744.694000", "113744.697000", "113744.700000", "113744.703000", "113744.706000", "113744.709000", "113744.712000", "113744.715000", "113744.718000", "113744.721000"],
