{
  "AcquisitionMatrixPE": 104,
  "AcquisitionNumber": 1,
  "AcquisitionTime": "11:09:55.657500",
  "BandwidthPerPixelPhaseEncode": 17.17,
  "BaseResolution": 104,
  "BodyPartExamined": "BRAIN",
  "CoilString": "HC1-7;NC1_2",
  "ConsistencyInfo": "N4_VE11C_LATEST_20160120",
  "ConversionSoftware": "dcm2niix",
  "ConversionSoftwareVersion": "v1.0.20200427",
  "DerivedVendorReportedEchoSpacing": 0.000560011,
  "DeviceSerialNumber": "167006",
  "DwellTime": 2.1e-06,
  "EchoTime": 0.037,
  "EchoTrainLength": 104,
  "EffectiveEchoSpacing": 0.000560011,
  "FlipAngle": 52,
  "ImageComments": "Unaliased_MB4_PE3_LB",
  "ImageOrientationPatientDICOM": [0.999615, 0.0276694, 0.00183159, -0.022859, 0.859618, -0.510426],
  "ImageType": [
    "ORIGINAL",
    "PRIMARY",
    "M",
    "MB",
    "ND",
    "MOSAIC"
],
  "ImagingFrequency": 123.259,
  "InPlanePhaseEncodingDirectionDICOM": "COL",
  "InstitutionAddress": "Chemin_Queen-Mary_4565_Montreal_District_CA_H3W_1W5",
  "InstitutionName": "IUGM",
  "InstitutionalDepartmentName": "Department",
  "MRAcquisitionType": "2D",
  "MagneticFieldStrength": 3,
  "Manufacturer": "Siemens",
  "ManufacturersModelName": "Prisma_fit",
  "Modality": "MR",
  "MultibandAccelerationFactor": 4,
  "PartialFourier": 1,
  "PatientPosition": "HFS",
  "PercentPhaseFOV": 100,
  "PercentSampling": 100,
  "PhaseEncodingDirection": "j",
  "PhaseEncodingSteps": 104,
  "PhaseResolution": 1,
  "PixelBandwidth": 2290,
  "ProcedureStepDescription": "video_friends",
  "ProtocolName": "func_task-friends-s03e11a",
  "PulseSequenceDetails": "%CustomerSeq%_cmrr_mbep2d_bold",
  "ReceiveCoilActiveElements": "HC1-7;NC1,2",
  "ReceiveCoilName": "HeadNeck_64",
  "ReconMatrixPE": 104,
  "RepetitionTime": 1.49,
  "SAR": 0.0384384,
  "ScanOptions": "FS",
  "ScanningSequence": "EP",
  "SequenceName": "epfid2d1_104",
  "SequenceVariant": "SK_SS",
  "SeriesDescription": "func_task-friends-s03e11a",
  "SeriesNumber": 9,
  "ShimSetting": [624, -7218, -8840, 368, -29, -192, 50, -28],
  "SliceThickness": 2,
  "SliceTiming": [0, 0.785, 0.1, 0.8825, 0.1975, 0.98, 0.295, 1.0775, 0.3925, 1.1775, 0.49, 1.275, 0.59, 1.3725, 0.6875, 0, 0.785, 0.1, 0.8825, 0.1975, 0.98, 0.295, 1.0775, 0.3925, 1.1775, 0.49, 1.275, 0.59, 1.3725, 0.6875, 0, 0.785, 0.1, 0.8825, 0.1975, 0.98, 0.295, 1.0775, 0.3925, 1.1775, 0.49, 1.275, 0.59, 1.3725, 0.6875, 0, 0.785, 0.1, 0.8825, 0.1975, 0.98, 0.295, 1.0775, 0.3925, 1.1775, 0.49, 1.275, 0.59, 1.3725, 0.6875],
  "SoftwareVersions": "syngo_MR_E11",
  "SpacingBetweenSlices": 2,
  "StationName": "MRC35049",
  "TaskName": "s03e11a",
  "TotalReadoutTime": 0.0576811,
  "TxRefAmp": 257.322,
  "WipMemBlock": "c929d8cd-5b07-4cfd-a4b2-739ebe5936f1||Sequence: R016 ve11c/master r/e634e98; Dec 19 2017 11:00:25 by eja",
  "dcmmeta_affine": [
    [-1.9992308616638184, -0.045718029141426086, 0.03139534592628479, 104.82377624511719],
    [-0.05533883720636368, 1.7192350625991821, -1.0203766822814941, -55.81954574584961],
    [0.003663185751065612, 1.0208529233932495, 1.7198388576507568, -81.55398559570312],
    [0.0, 0.0, 0.0, 1.0]
],
  "dcmmeta_reorient_transform": [
    [0.0, -1.0, 0.0, 103.0],
    [1.0, 0.0, 0.0, 0.0],
    [0.0, 0.0, 1.0, 0.0],
    [0.0, 0.0, 0.0, 1.0]
],
  "dcmmeta_shape": [104, 104, 60, 457],
  "dcmmeta_slice_dim": 2,
  "dcmmeta_version": 0.6,
  "global": {
    "const": {
      "AcquisitionMatrix": [104, 0, 0, 104],
      "AngioFlag": "N",
      "BitsAllocated": 16,
      "BitsStored": 16,
      "BodyPartExamined": "BRAIN",
      "Columns": 832,
      "EchoNumbers": 1,
      "EchoTime": 37.0,
      "EchoTrainLength": 104,
      "FlipAngle": 52.0,
      "HighBit": 15,
      "ImageOrientationPatient": [0.99961545032171, 0.02766941895913, 0.00183159290885, -0.0228590139581, 0.85961751139496, -0.5104264879334],
      "ImagePositionPatient": [-811.19350472706, -767.2065479235, 393.85095342335],
      "ImageType": [
        "ORIGINAL",
        "PRIMARY",
        "M",
        "MB",
        "ND",
        "MOSAIC"
],
      "ImagedNucleus": "1H",
      "ImagingFrequency": 123.259026,
      "InPlanePhaseEncodingDirection": "COL",
      "MRAcquisitionType": "2D",
      "MagneticFieldStrength": 3.0,
      "Manufacturer": "SIEMENS",
      "ManufacturerModelName": "Prisma_fit",
      "Modality": "MR",
      "NumberOfAverages": 1.0,
      "NumberOfPhaseEncodingSteps": 104,
      "PercentPhaseFieldOfView": 100.0,
      "PercentSampling": 100.0,
      "PerformedProcedureStepStartTime": "110702.345000",
      "PhotometricInterpretation": "MONOCHROME2",
      "PixelBandwidth": 2290.0,
      "PixelRepresentation": 0,
      "PixelSpacing": [2.0, 2.0],
      "ProtocolName": "func_task-friends-s03e11a",
      "RepetitionTime": 1490.0,
      "Rows": 832,
      "SAR": 0.03843838748468,
      "SamplesPerPixel": 1,
      "ScanOptions": "FS",
      "ScanningSequence": "EP",
      "SequenceName": "epfid2d1_104",
      "SequenceVariant": [
        "SK",
        "SS"
],
      "SeriesDescription": "func_task-friends-s03e11a",
      "SeriesNumber": 9,
      "SeriesTime": "111104.373000",
      "SliceLocation": -40.005888638719,
      "SliceThickness": 2.0,
      "SmallestImagePixelValue": 0,
      "SoftwareVersions": "syngo MR E11",
      "SpacingBetweenSlices": 1.9999999822765,
      "SpecificCharacterSet": "ISO_IR 100",
      "StudyID": "1",
      "StudyTime": "110702.284000",
      "TransmitCoilName": "Body",
      "VariableFlipAngleFlag": "N",
      "WindowCenterWidthExplanation": "Algo1",
      "dBdt": 0.0},
    "slices": {}
  },
  "time": {
    "samples": {
      "AcquisitionNumber": [1, 2, 3, 4, 5, 6, 7, 8, 9, 10, 11, 12, 13, 14, 15, 16, 17, 18, 19, 20, 21, 22, 23, 24, 25, 26, 27, 28, 29, 30, 31, 32, 33, 34, 35, 36, 37, 38, 39, 40, 41, 42, 43, 44, 45, 46, 47, 48, 49, 50, 51, 52, 53, 54, 55, 56, 57, 58, 59, 60, 61, 62, 63, 64, 65, 66, 67, 68, 69, 70, 71, 72, 73, 74, 75, 76, 77, 78, 79, 80, 81, 82, 83, 84, 85, 86, 87, 88, 89, 90, 91, 92, 93, 94, 95, 96, 97, 98, 99, 100, 101, 102, 103, 104, 105, 106, 107, 108, 109, 110, 111, 112, 113, 114, 115, 116, 117, 118, 119, 120, 121, 122, 123, 124, 125, 126, 127, 128, 129, 130, 131, 132, 133, 134, 135, 136, 137, 138, 139, 140, 141, 142, 143, 144, 145, 146, 147, 148, 149, 150, 151, 152, 153, 154, 155, 156, 157, 158, 159, 160, 161, 162, 163, 164, 165, 166, 167, 168, 169, 170, 171, 172, 173, 174, 175, 176, 177, 178, 179, 180, 181, 182, 183, 184, 185, 186, 187, 188, 189, 190, 191, 192, 193, 194, 195, 196, 197, 198, 199, 200, 201, 202, 203, 204, 205, 206, 207, 208, 209, 210, 211, 212, 213, 214, 215, 216, 217, 218, 219, 220, 221, 222, 223, 224, 225, 226, 227, 228, 229, 230, 231, 232, 233, 234, 235, 236, 237, 238, 239, 240, 241, 242, 243, 244, 245, 246, 247, 248, 249, 250, 251, 252, 253, 254, 255, 256, 257, 258, 259, 260, 261, 262, 263, 264, 265, 266, 267, 268, 269, 270, 271, 272, 273, 274, 275, 276, 277, 278, 279, 280, 281, 282, 283, 284, 285, 286, 287, 288, 289, 290, 291, 292, 293, 294, 295, 296, 297, 298, 299, 300, 301, 302, 303, 304, 305, 306, 307, 308, 309, 310, 311, 312, 313, 314, 315, 316, 317, 318, 319, 320, 321, 322, 323, 324, 325, 326, 327, 328, 329, 330, 331, 332, 333, 334, 335, 336, 337, 338, 339, 340, 341, 342, 343, 344, 345, 346, 347, 348, 349, 350, 351, 352, 353, 354, 355, 356, 357, 358, 359, 360, 361, 362, 363, 364, 365, 366, 367, 368, 369, 370, 371, 372, 373, 374, 375, 376, 377, 378, 379, 380, 381, 382, 383, 384, 385, 386, 387, 388, 389, 390, 391, 392, 393, 394, 395, 396, 397, 398, 399, 400, 401, 402, 403, 404, 405, 406, 407, 408, 409, 410, 411, 412, 413, 414, 415, 416, 417, 418, 419, 420, 421, 422, 423, 424, 425, 426, 427, 428, 429, 430, 431, 432, 433, 434, 435, 436, 437, 438, 439, 440, 441, 442, 443, 444, 445, 446, 447, 448, 449, 450, 451, 452, 453, 454, 455, 456, 457],
      "AcquisitionTime": ["110955.657500", "110957.147500", "110958.637500", "111000.127500", "111001.617500", "111003.107500", "111004.597500", "111006.087500", "111007.577500", "111009.067500", "111010.557500", "111012.047500", "111013.537500", "111015.027500", "111016.517500", "111018.007500", "111019.497500", "111020.987500", "111022.477500", "111023.967500", "111025.457500", "111026.947500", "111028.437500", "111029.927500", "111031.417500", "111032.907500", "111034.397500", "111035.887500", "111037.377500", "111038.867500", "111040.357500", "111041.847500", "111043.337500", "111044.827500", "111046.317500", "111047.807500", "111049.297500", "111050.787500", "111052.277500", "111053.767500", "111055.257500", "111056.747500", "111058.237500", "111059.727500", "111101.217500", "111102.707500", "111104.197500", "111105.687500", "111107.177500", "111108.667500", "111110.157500", "111111.647500", "111113.137500", "111114.627500", "111116.117500", "111117.607500", "111119.097500", "111120.587500", "111122.077500", "111123.567500", "111125.057500", "111126.547500", "111128.037500", "111129.527500", "111131.017500", "111132.507500", "111133.997500", "111135.487500", "111136.977500", "111138.467500", "111139.957500", "111141.447500", "111142.937500", "111144.427500", "111145.917500", "111147.407500", "111148.897500", "111150.387500", "111151.877500", "111153.367500", "111154.857500", "111156.347500", "111157.837500", "111159.327500", "111200.817500", "111202.307500", "111203.797500", "111205.287500", "111206.777500", "111208.267500", "111209.757500", "111211.247500", "111212.737500", "111214.227500", "111215.717500", "111217.207500", "111218.697500", "111220.187500", "111221.677500", "111223.167500", "111224.657500", "111226.147500", "111227.637500", "111229.127500", "111230.617500", "111232.107500", "111233.597500", "111235.087500", "111236.577500", "111238.067500", "111239.557500", "111241.047500", "111242.537500", "111244.027500", "111245.517500", "111247.007500", "111248.497500", "111249.987500", "111251.477500", "111252.967500", "111254.457500", "111255.947500", "111257.437500", "111258.927500", "111300.417500", "111301.907500", "111303.397500", "111304.887500", "111306.377500", "111307.867500", "111309.357500", "111310.847500", "111312.337500", "111313.827500", "111315.317500", "111316.807500", "111318.297500", "111319.787500", "111321.277500", "111322.767500", "111324.257500", "111325.747500", "111327.237500", "111328.727500", "111330.217500", "111331.707500", "111333.197500", "111334.687500", "111336.177500", "111337.667500", "111339.157500", "111340.647500", "111342.137500", "111343.627500", "111345.117500", "111346.607500", "111348.097500", "111349.587500", "111351.077500", "111352.567500", "111354.057500", "111355.547500", "111357.037500", "111358.527500", "111400.017500", "111401.507500", "111402.997500", "111404.487500", "111405.977500", "111407.467500", "111408.957500", "111410.447500", "111411.937500", "111413.427500", "111414.917500", "111416.407500", "111417.897500", "111419.387500", "111420.877500", "111422.367500", "111423.857500", "111425.347500", "111426.837500", "111428.327500", "111429.817500", "111431.307500", "111432.797500", "111434.287500", "111435.777500", "111437.267500", "111438.757500", "111440.247500", "111441.737500", "111443.227500", "111444.717500", "111446.207500", "111447.697500", "111449.187500", "111450.677500", "111452.167500", "111453.657500", "111455.147500", "111456.637500", "111458.127500", "111459.617500", "111501.107500", "111502.597500", "111504.087500", "111505.577500", "111507.067500", "111508.557500", "111510.047500", "111511.537500", "111513.027500", "111514.517500", "111516.007500", "111517.497500", "111518.987500", "111520.477500", "111521.967500", "111523.457500", "111524.947500", "111526.437500", "111527.927500", "111529.417500", "111530.907500", "111532.397500", "111533.887500", "111535.377500", "111536.867500", "111538.357500", "111539.847500", "111541.337500", "111542.827500", "111544.317500", "111545.807500", "111547.297500", "111548.787500", "111550.277500", "111551.767500", "111553.257500", "111554.747500", "111556.237500", "111557.727500", "111559.217500", "111600.707500", "111602.197500", "111603.687500", "111605.177500", "111606.667500", "111608.157500", "111609.647500", "111611.137500", "111612.627500", "111614.117500", "111615.607500", "111617.097500", "111618.587500", "111620.077500", "111621.567500", "111623.057500", "111624.547500", "111626.037500", "111627.527500", "111629.017500", "111630.507500", "111631.997500", "111633.487500", "111634.977500", "111636.467500", "111637.957500", "111639.447500", "111640.937500", "111642.427500", "111643.917500", "111645.407500", "111646.897500", "111648.387500", "111649.877500", "111651.367500", "111652.857500", "111654.347500", "111655.837500", "111657.327500", "111658.817500", "111700.307500", "111701.797500", "111703.287500", "111704.777500", "111706.267500", "111707.757500", "111709.247500", "111710.737500", "111712.227500", "111713.717500", "111715.207500", "111716.697500", "111718.187500", "111719.677500", "111721.167500", "111722.657500", "111724.147500", "111725.637500", "111727.127500", "111728.617500", "111730.107500", "111731.597500", "111733.087500", "111734.577500", "111736.067500", "111737.557500", "111739.047500", "111740.537500", "111742.027500", "111743.517500", "111745.007500", "111746.497500", "111747.987500", "111749.477500", "111750.967500", "111752.457500", "111753.947500", "111755.437500", "111756.927500", "111758.417500", "111759.907500", "111801.397500", "111802.887500", "111804.377500", "111805.867500", "111807.357500", "111808.847500", "111810.337500", "111811.827500", "111813.317500", "111814.807500", "111816.297500", "111817.787500", "111819.277500", "111820.767500", "111822.257500", "111823.747500", "111825.237500", "111826.727500", "111828.217500", "111829.707500", "111831.197500", "111832.687500", "111834.177500", "111835.667500", "111837.157500", "111838.647500", "111840.137500", "111841.627500", "111843.117500", "111844.607500", "111846.097500", "111847.587500", "111849.077500", "111850.567500", "111852.057500", "111853.547500", "111855.037500", "111856.527500", "111858.017500", "111859.507500", "111900.997500", "111902.487500", "111903.977500", "111905.467500", "111906.957500", "111908.447500", "111909.937500", "111911.427500", "111912.917500", "111914.407500", "111915.897500", "111917.387500", "111918.877500", "111920.367500", "111921.857500", "111923.347500", "111924.837500", "111926.327500", "111927.817500", "111929.307500", "111930.797500", "111932.287500", "111933.777500", "111935.267500", "111936.757500", "111938.247500", "111939.737500", "111941.227500", "111942.717500", "111944.207500", "111945.697500", "111947.187500", "111948.677500", "111950.167500", "111951.657500", "111953.147500", "111954.637500", "111956.127500", "111957.617500", "111959.107500", "112000.597500", "112002.087500", "112003.577500", "112005.067500", "112006.557500", "112008.047500", "112009.537500", "112011.027500", "112012.517500", "112014.007500", "112015.497500", "112016.987500", "112018.477500", "112019.967500", "112021.457500", "112022.947500", "112024.437500", "112025.927500", "112027.417500", "112028.907500", "112030.397500", "112031.887500", "112033.377500", "112034.867500", "112036.357500", "112037.847500", "112039.337500", "112040.827500", "112042.317500", "112043.807500", "112045.297500", "112046.787500", "112048.277500", "112049.767500", "112051.257500", "112052.747500", "112054.237500", "112055.727500", "112057.217500", "112058.707500", "112100.197500", "112101.687500", "112103.177500", "112104.667500", "112106.157500", "112107.647500", "112109.137500", "112110.627500", "112112.117500", "112113.607500", "112115.097500"],
      "ContentTime": ["111104.376000", "111104.380000", "111104.382000", "111104.385000", "111104.388000", "111104.391000", "111104.394000", "111124.345000", "111124.348000", "111124.351000", "111124.354000", "111124.357000", "111124.360000", "111124.362000", "111124.365000", "111124.368000", "111124.371000", "111124.374000", "111124.377000", "111124.380000", "111124.382000", "111124.385000", "111124.388000", "111124.391000", "111124.394000", "111124.397000", "111124.400000", "111144.345000", "111144.348000", "111144.351000", "111144.360000", "111144.363000", "111144.365000", "111144.368000", "111144.371000", "111144.374000", "111144.377000", "111144.380000", "111144.400000", "111144.403000", "111144.405000", "111144.413000", "111144.416000", "111144.419000", "111144.422000", "111144.424000", "111144.427000", "111144.430000", "111204.345000", "111204.348000", "111204.351000", "111204.354000", "111204.357000", "111204.359000", "111204.362000", "111204.365000", "111204.368000", "111204.371000", "111204.374000", "111204.377000", "111204.379000", "111204.382000", "111204.385000", "111204.388000", "111204.391000", "111204.394000", "111204.397000", "111204.400000", "111224.345000", "111224.348000", "111224.351000", "111224.358000", "111224.361000", "111224.364000", "111224.367000", "111224.370000", "111224.373000", "111224.375000", "111224.378000", "111224.381000", "111224.384000", "111224.387000", "111224.390000", "111224.393000", "111224.395000", "111224.398000", "111224.401000", "111224.404000", "111244.346000", "111244.349000", "111244.352000", "111244.355000", "111244.357000", "111244.360000", "111244.363000", "111244.366000", "111244.369000", "111244.372000", "111244.375000", "111244.377000", "111244.380000", "111244.383000", "111244.393000", "111244.396000", "111244.398000", "111244.401000", "111244.404000", "111244.407000", "111324.345000", "111324.348000", "111324.351000", "111324.354000", "111324.357000", "111324.359000", "111324.362000", "111324.365000", "111324.368000", "111324.371000", "111324.374000", "111324.377000", "111324.389000", "111324.392000", "111324.394000", "111324.397000", "111324.400000", "111324.403000", "111324.406000", "111324.409000", "111324.412000", "111324.415000", "111324.417000", "111324.420000", "111324.423000", "111324.426000", "111324.429000", "111324.432000", "111324.435000", "111324.437000", "111324.440000", "111404.345000", "111404.348000", "111404.351000", "111404.354000", "111404.357000", "111404.359000", "111404.362000", "111404.365000", "111404.368000", "111404.371000", "111404.374000", "111404.377000", "111404.380000", "111404.382000", "111404.385000", "111404.388000", "111404.391000", "111404.394000", "111404.397000", "111404.400000", "111404.402000", "111404.405000", "111404.408000", "111404.411000", "111404.414000", "111404.417000", "111404.420000", "111444.345000", "111444.348000", "111444.351000", "111444.354000", "111444.357000", "111444.360000", "111444.363000", "111444.365000", "111444.368000", "111444.371000", "111444.374000", "111444.377000", "111444.380000", "111444.382000", "111444.385000", "111444.388000", "111444.391000", "111444.394000", "111444.397000", "111444.400000", "111444.403000", "111444.405000", "111444.408000", "111444.411000", "111444.414000", "111444.417000", "111444.420000", "111524.345000", "111524.348000", "111524.351000", "111524.354000", "111524.357000", "111524.360000", "111524.363000", "111524.366000", "111524.368000", "111524.371000", "111524.374000", "111524.377000", "111524.380000", "111524.383000", "111524.385000", "111524.388000", "111524.391000", "111524.394000", "111524.397000", "111524.400000", "111524.403000", "111524.406000", "111524.408000", "111524.412000", "111524.415000", "111524.417000", "111604.345000", "111604.348000", "111604.351000", "111604.354000", "111604.357000", "111604.359000", "111604.362000", "111604.365000", "111604.368000", "111604.371000", "111604.374000", "111604.377000", "111604.379000", "111604.382000", "111604.385000", "111604.401000", "111604.404000", "111604.406000", "111604.409000", "111604.412000", "111604.415000", "111604.418000", "111604.421000", "111604.424000", "111604.426000", "111604.429000", "111604.432000", "111644.345000", "111644.348000", "111644.351000", "111644.354000", "111644.357000", "111644.360000", "111644.363000", "111644.366000", "111644.368000", "111644.371000", "111644.374000", "111644.377000", "111644.380000", "111644.383000", "111644.386000", "111644.389000", "111644.392000", "111644.394000", "111644.397000", "111644.400000", "111644.403000", "111644.406000", "111644.409000", "111644.412000", "111644.414000", "111644.417000", "111644.420000", "111724.346000", "111724.349000", "111724.352000", "111724.355000", "111724.358000", "111724.361000", "111724.363000", "111724.366000", "111724.369000", "111724.372000", "111724.375000", "111724.378000", "111724.380000", "111724.383000", "111724.386000", "111724.389000", "111724.392000", "111724.395000", "111724.398000", "111724.401000", "111724.403000", "111724.406000", "111724.409000", "111724.412000", "111724.415000", "111724.418000", "111724.421000", "111804.345000", "111804.348000", "111804.351000", "111804.354000", "111804.357000", "111804.359000", "111804.362000", "111804.365000", "111804.368000", "111804.371000", "111804.374000", "111804.377000", "111804.380000", "111804.383000", "111804.385000", "111804.388000", "111804.391000", "111804.394000", "111804.397000", "111804.400000", "111804.403000", "111804.405000", "111804.408000", "111804.411000", "111804.414000", "111804.417000", "111804.420000", "111844.345000", "111844.348000", "111844.351000", "111844.354000", "111844.357000", "111844.360000", "111844.362000", "111844.365000", "111844.368000", "111844.371000", "111844.374000", "111844.377000", "111844.380000", "111844.383000", "111844.386000", "111844.388000", "111844.391000", "111844.394000", "111844.397000", "111844.400000", "111844.403000", "111844.406000", "111844.408000", "111844.411000", "111844.414000", "111844.417000", "111844.420000", "111924.346000", "111924.349000", "111924.352000", "111924.355000", "111924.358000", "111924.361000", "111924.364000", "111924.366000", "111924.369000", "111924.372000", "111924.375000", "111924.378000", "111924.381000", "111924.384000", "111924.393000", "111924.396000", "111924.399000", "111924.402000", "111924.405000", "111924.408000", "111924.410000", "111924.413000", "111924.416000", "111924.419000", "111924.422000", "111924.425000", "111924.428000", "112004.345000", "112004.348000", "112004.351000", "112004.354000", "112004.357000", "112004.360000", "112004.362000", "112004.365000", "112004.368000", "112004.371000", "112004.374000", "112004.377000", "112004.380000", "112004.383000", "112004.385000", "112004.388000", "112004.391000", "112004.394000", "112004.397000", "112004.400000", "112004.403000", "112004.405000", "112004.410000", "112004.413000", "112004.416000", "112004.419000", "112044.345000", "112044.348000", "112044.351000", "112044.354000", "112044.357000", "112044.359000", "112044.362000", "112044.365000", "112044.368000", "112044.371000", "112044.374000", "112044.385000", "112044.387000", "112044.390000", "112044.393000", "112044.396000", "112044.399000", "112044.402000", "112044.405000", "112044.408000", "112044.410000", "112044.413000", "112044.416000", "112044.419000", "112044.422000", "112044.425000", "112044.428000", "112117.606000", "112117.610000", "112117.613000", "112117.616000", "112117.619000", "112117.622000", "112117.625000", "112117.628000", "112117.631000", "112117.634000", "112117.637000", "112117.640000", "112117.642000", "112117.645000", "112117.648000", "112117.651000", "112117.654000", "112117.657000", "112117.660000", "112117.663000", "112117.665000", "112117.668000", "112117.671000"],
