{
  "AcquisitionMatrixPE": 104,
  "AcquisitionNumber": 1,
  "AcquisitionTime": "11:21:46.867500",
  "BandwidthPerPixelPhaseEncode": 17.17,
  "BaseResolution": 104,
  "BodyPartExamined": "BRAIN",
  "CoilString": "HC1-7;NC1_2",
  "ConsistencyInfo": "N4_VE11C_LATEST_20160120",
  "ConversionSoftware": "dcm2niix",
  "ConversionSoftwareVersion": "v1.0.20200427",
  "DerivedVendorReportedEchoSpacing": 0.000560011,
  "DeviceSerialNumber": "167006",
  "DwellTime": 2.1e-06,
  "EchoTime": 0.037,
  "EchoTrainLength": 104,
  "EffectiveEchoSpacing": 0.000560011,
  "FlipAngle": 52,
  "ImageComments": "Unaliased_MB4_PE3_LB",
  "ImageOrientationPatientDICOM": [0.999615, 0.0276694, 0.00183159, -0.022859, 0.859618, -0.510426],
  "ImageType": [
    "ORIGINAL",
    "PRIMARY",
    "M",
    "MB",
    "ND",
    "MOSAIC"
],
  "ImagingFrequency": 123.259,
  "InPlanePhaseEncodingDirectionDICOM": "COL",
  "InstitutionAddress": "Chemin_Queen-Mary_4565_Montreal_District_CA_H3W_1W5",
  "InstitutionName": "IUGM",
  "InstitutionalDepartmentName": "Department",
  "MRAcquisitionType": "2D",
  "MagneticFieldStrength": 3,
  "Manufacturer": "Siemens",
  "ManufacturersModelName": "Prisma_fit",
  "Modality": "MR",
  "MultibandAccelerationFactor": 4,
  "PartialFourier": 1,
  "PatientPosition": "HFS",
  "PercentPhaseFOV": 100,
  "PercentSampling": 100,
  "PhaseEncodingDirection": "j",
  "PhaseEncodingSteps": 104,
  "PhaseResolution": 1,
  "PixelBandwidth": 2290,
  "ProcedureStepDescription": "video_friends",
  "ProtocolName": "func_task-friends-s03e11b",
  "PulseSequenceDetails": "%CustomerSeq%_cmrr_mbep2d_bold",
  "ReceiveCoilActiveElements": "HC1-7;NC1,2",
  "ReceiveCoilName": "HeadNeck_64",
  "ReconMatrixPE": 104,
  "RepetitionTime": 1.49,
  "SAR": 0.038438,
  "ScanOptions": "FS",
  "ScanningSequence": "EP",
  "SequenceName": "epfid2d1_104",
  "SequenceVariant": "SK_SS",
  "SeriesDescription": "func_task-friends-s03e11b",
  "SeriesNumber": 11,
  "ShimSetting": [624, -7218, -8840, 368, -29, -192, 50, -28],
  "SliceThickness": 2,
  "SliceTiming": [0, 0.785, 0.0975, 0.8825, 0.1975, 0.98, 0.295, 1.0775, 0.3925, 1.1775, 0.49, 1.275, 0.5875, 1.3725, 0.6875, 0, 0.785, 0.0975, 0.8825, 0.1975, 0.98, 0.295, 1.0775, 0.3925, 1.1775, 0.49, 1.275, 0.5875, 1.3725, 0.6875, 0, 0.785, 0.0975, 0.8825, 0.1975, 0.98, 0.295, 1.0775, 0.3925, 1.1775, 0.49, 1.275, 0.5875, 1.3725, 0.6875, 0, 0.785, 0.0975, 0.8825, 0.1975, 0.98, 0.295, 1.0775, 0.3925, 1.1775, 0.49, 1.275, 0.5875, 1.3725, 0.6875],
  "SoftwareVersions": "syngo_MR_E11",
  "SpacingBetweenSlices": 2,
  "StationName": "MRC35049",
  "TaskName": "s03e11b",
  "TotalReadoutTime": 0.0576811,
  "TxRefAmp": 257.322,
  "WipMemBlock": "1ca631bb-dc4f-461e-ab42-3ebfe8f3aab4||Sequence: R016 ve11c/master r/e634e98; Dec 19 2017 11:00:25 by eja",
  "dcmmeta_affine": [
    [-1.9992308616638184, -0.045718029141426086, 0.03139534592628479, 104.82377624511719],
    [-0.05533883720636368, 1.7192350625991821, -1.0203766822814941, -55.81954574584961],
    [0.003663185751065612, 1.0208529233932495, 1.7198388576507568, -81.55398559570312],
    [0.0, 0.0, 0.0, 1.0]
],
  "dcmmeta_reorient_transform": [
    [0.0, -1.0, 0.0, 103.0],
    [1.0, 0.0, 0.0, 0.0],
    [0.0, 0.0, 1.0, 0.0],
    [0.0, 0.0, 0.0, 1.0]
],
  "dcmmeta_shape": [104, 104, 60, 456],
  "dcmmeta_slice_dim": 2,
  "dcmmeta_version": 0.6,
  "global": {
    "const": {
      "AcquisitionMatrix": [104, 0, 0, 104],
      "AngioFlag": "N",
      "BitsAllocated": 16,
      "BitsStored": 16,
      "BodyPartExamined": "BRAIN",
      "Columns": 832,
      "EchoNumbers": 1,
      "EchoTime": 37.0,
      "EchoTrainLength": 104,
      "FlipAngle": 52.0,
      "HighBit": 15,
      "ImageOrientationPatient": [0.99961545032171, 0.02766941895913, 0.00183159290885, -0.0228590139581, 0.85961751139496, -0.5104264879334],
      "ImagePositionPatient": [-811.19350472706, -767.2065479235, 393.85095342335],
      "ImageType": [
        "ORIGINAL",
        "PRIMARY",
        "M",
        "MB",
        "ND",
        "MOSAIC"
],
      "ImagedNucleus": "1H",
      "ImagingFrequency": 123.259041,
      "InPlanePhaseEncodingDirection": "COL",
      "MRAcquisitionType": "2D",
      "MagneticFieldStrength": 3.0,
      "Manufacturer": "SIEMENS",
      "ManufacturerModelName": "Prisma_fit",
      "Modality": "MR",
      "NumberOfAverages": 1.0,
      "NumberOfPhaseEncodingSteps": 104,
      "PercentPhaseFieldOfView": 100.0,
      "PercentSampling": 100.0,
      "PerformedProcedureStepStartTime": "110702.345000",
      "PhotometricInterpretation": "MONOCHROME2",
      "PixelBandwidth": 2290.0,
      "PixelRepresentation": 0,
      "PixelSpacing": [2.0, 2.0],
      "ProtocolName": "func_task-friends-s03e11b",
      "RepetitionTime": 1490.0,
      "Rows": 832,
      "SAR": 0.03843802384266,
      "SamplesPerPixel": 1,
      "ScanOptions": "FS",
      "ScanningSequence": "EP",
      "SequenceName": "epfid2d1_104",
      "SequenceVariant": [
        "SK",
        "SS"
],
      "SeriesDescription": "func_task-friends-s03e11b",
      "SeriesNumber": 11,
      "SeriesTime": "112302.608000",
      "SliceLocation": -40.005888638719,
      "SliceThickness": 2.0,
      "SmallestImagePixelValue": 0,
      "SoftwareVersions": "syngo MR E11",
      "SpacingBetweenSlices": 1.9999999822765,
      "SpecificCharacterSet": "ISO_IR 100",
      "StudyID": "1",
      "StudyTime": "110702.284000",
      "TransmitCoilName": "Body",
      "VariableFlipAngleFlag": "N",
      "WindowCenterWidthExplanation": "Algo1",
      "dBdt": 0.0},
    "slices": {}
  },
  "time": {
    "samples": {
      "AcquisitionNumber": [1, 2, 3, 4, 5, 6, 7, 8, 9, 10, 11, 12, 13, 14, 15, 16, 17, 18, 19, 20, 21, 22, 23, 24, 25, 26, 27, 28, 29, 30, 31, 32, 33, 34, 35, 36, 37, 38, 39, 40, 41, 42, 43, 44, 45, 46, 47, 48, 49, 50, 51, 52, 53, 54, 55, 56, 57, 58, 59, 60, 61, 62, 63, 64, 65, 66, 67, 68, 69, 70, 71, 72, 73, 74, 75, 76, 77, 78, 79, 80, 81, 82, 83, 84, 85, 86, 87, 88, 89, 90, 91, 92, 93, 94, 95, 96, 97, 98, 99, 100, 101, 102, 103, 104, 105, 106, 107, 108, 109, 110, 111, 112, 113, 114, 115, 116, 117, 118, 119, 120, 121, 122, 123, 124, 125, 126, 127, 128, 129, 130, 131, 132, 133, 134, 135, 136, 137, 138, 139, 140, 141, 142, 143, 144, 145, 146, 147, 148, 149, 150, 151, 152, 153, 154, 155, 156, 157, 158, 159, 160, 161, 162, 163, 164, 165, 166, 167, 168, 169, 170, 171, 172, 173, 174, 175, 176, 177, 178, 179, 180, 181, 182, 183, 184, 185, 186, 187, 188, 189, 190, 191, 192, 193, 194, 195, 196, 197, 198, 199, 200, 201, 202, 203, 204, 205, 206, 207, 208, 209, 210, 211, 212, 213, 214, 215, 216, 217, 218, 219, 220, 221, 222, 223, 224, 225, 226, 227, 228, 229, 230, 231, 232, 233, 234, 235, 236, 237, 238, 239, 240, 241, 242, 243, 244, 245, 246, 247, 248, 249, 250, 251, 252, 253, 254, 255, 256, 257, 258, 259, 260, 261, 262, 263, 264, 265, 266, 267, 268, 269, 270, 271, 272, 273, 274, 275, 276, 277, 278, 279, 280, 281, 282, 283, 284, 285, 286, 287, 288, 289, 290, 291, 292, 293, 294, 295, 296, 297, 298, 299, 300, 301, 302, 303, 304, 305, 306, 307, 308, 309, 310, 311, 312, 313, 314, 315, 316, 317, 318, 319, 320, 321, 322, 323, 324, 325, 326, 327, 328, 329, 330, 331, 332, 333, 334, 335, 336, 337, 338, 339, 340, 341, 342, 343, 344, 345, 346, 347, 348, 349, 350, 351, 352, 353, 354, 355, 356, 357, 358, 359, 360, 361, 362, 363, 364, 365, 366, 367, 368, 369, 370, 371, 372, 373, 374, 375, 376, 377, 378, 379, 380, 381, 382, 383, 384, 385, 386, 387, 388, 389, 390, 391, 392, 393, 394, 395, 396, 397, 398, 399, 400, 401, 402, 403, 404, 405, 406, 407, 408, 409, 410, 411, 412, 413, 414, 415, 416, 417, 418, 419, 420, 421, 422, 423, 424, 425, 426, 427, 428, 429, 430, 431, 432, 433, 434, 435, 436, 437, 438, 439, 440, 441, 442, 443, 444, 445, 446, 447, 448, 449, 450, 451, 452, 453, 454, 455, 456],
      "AcquisitionTime": ["112146.867500", "112148.357500", "112149.847500", "112151.337500", "112152.827500", "112154.317500", "112155.807500", "112157.297500", "112158.787500", "112200.277500", "112201.767500", "112203.257500", "112204.747500", "112206.237500", "112207.727500", "112209.217500", "112210.707500", "112212.197500", "112213.687500", "112215.177500", "112216.667500", "112218.157500", "112219.647500", "112221.137500", "112222.627500", "112224.117500", "112225.607500", "112227.097500", "112228.587500", "112230.077500", "112231.567500", "112233.057500", "112234.547500", "112236.037500", "112237.527500", "112239.017500", "112240.507500", "112241.997500", "112243.487500", "112244.977500", "112246.467500", "112247.957500", "112249.447500", "112250.937500", "112252.427500", "112253.917500", "112255.407500", "112256.897500", "112258.387500", "112259.877500", "112301.367500", "112302.857500", "112304.347500", "112305.837500", "112307.327500", "112308.817500", "112310.307500", "112311.797500", "112313.287500", "112314.777500", "112316.267500", "112317.757500", "112319.247500", "112320.737500", "112322.227500", "112323.717500", "112325.207500", "112326.697500", "112328.187500", "112329.677500", "112331.167500", "112332.657500", "112334.147500", "112335.637500", "112337.127500", "112338.617500", "112340.107500", "112341.597500", "112343.087500", "112344.577500", "112346.067500", "112347.557500", "112349.047500", "112350.537500", "112352.027500", "112353.517500", "112355.007500", "112356.497500", "112357.987500", "112359.477500", "112400.967500", "112402.457500", "112403.947500", "112405.437500", "112406.927500", "112408.417500", "112409.907500", "112411.397500", "112412.887500", "112414.377500", "112415.867500", "112417.357500", "112418.847500", "112420.337500", "112421.827500", "112423.317500", "112424.807500", "112426.297500", "112427.787500", "112429.277500", "112430.767500", "112432.257500", "112433.747500", "112435.237500", "112436.727500", "112438.217500", "112439.707500", "112441.197500", "112442.687500", "112444.177500", "112445.667500", "112447.157500", "112448.647500", "112450.137500", "112451.627500", "112453.117500", "112454.607500", "112456.097500", "112457.587500", "112459.077500", "112500.567500", "112502.057500", "112503.547500", "112505.037500", "112506.527500", "112508.017500", "112509.507500", "112510.997500", "112512.487500", "112513.977500", "112515.467500", "112516.957500", "112518.447500", "112519.937500", "112521.427500", "112522.917500", "112524.407500", "112525.897500", "112527.387500", "112528.877500", "112530.367500", "112531.857500", "112533.347500", "112534.837500", "112536.327500", "112537.817500", "112539.307500", "112540.797500", "112542.287500", "112543.777500", "112545.267500", "112546.757500", "112548.247500", "112549.737500", "112551.227500", "112552.717500", "112554.207500", "112555.697500", "112557.187500", "112558.677500", "112600.167500", "112601.657500", "112603.147500", "112604.637500", "112606.127500", "112607.617500", "112609.107500", "112610.597500", "112612.087500", "112613.577500", "112615.067500", "112616.557500", "112618.047500", "112619.537500", "112621.027500", "112622.517500", "112624.007500", "112625.497500", "112626.987500", "112628.477500", "112629.967500", "112631.457500", "112632.947500", "112634.437500", "112635.927500", "112637.417500", "112638.907500", "112640.397500", "112641.887500", "112643.377500", "112644.867500", "112646.357500", "112647.847500", "112649.337500", "112650.827500", "112652.317500", "112653.807500", "112655.297500", "112656.787500", "112658.277500", "112659.767500", "112701.257500", "112702.747500", "112704.237500", "112705.727500", "112707.217500", "112708.707500", "112710.197500", "112711.687500", "112713.177500", "112714.667500", "112716.157500", "112717.647500", "112719.137500", "112720.627500", "112722.117500", "112723.607500", "112725.097500", "112726.587500", "112728.077500", "112729.567500", "112731.057500", "112732.547500", "112734.037500", "112735.527500", "112737.017500", "112738.507500", "112739.997500", "112741.487500", "112742.977500", "112744.467500", "112745.957500", "112747.447500", "112748.937500", "112750.427500", "112751.917500", "112753.407500", "112754.897500", "112756.387500", "112757.877500", "112759.367500", "112800.857500", "112802.347500", "112803.837500", "112805.327500", "112806.817500", "112808.307500", "112809.797500", "112811.287500", "112812.777500", "112814.267500", "112815.757500", "112817.247500", "112818.737500", "112820.227500", "112821.717500", "112823.207500", "112824.697500", "112826.187500", "112827.677500", "112829.167500", "112830.657500", "112832.147500", "112833.637500", "112835.127500", "112836.617500", "112838.107500", "112839.597500", "112841.087500", "112842.577500", "112844.067500", "112845.557500", "112847.047500", "112848.537500", "112850.027500", "112851.517500", "112853.007500", "112854.497500", "112855.987500", "112857.477500", "112858.967500", "112900.457500", "112901.947500", "112903.437500", "112904.927500", "112906.417500", "112907.907500", "112909.397500", "112910.887500", "112912.377500", "112913.867500", "112915.357500", "112916.847500", "112918.337500", "112919.827500", "112921.317500", "112922.807500", "112924.297500", "112925.787500", "112927.277500", "112928.767500", "112930.257500", "112931.747500", "112933.237500", "112934.727500", "112936.217500", "112937.707500", "112939.197500", "112940.687500", "112942.177500", "112943.667500", "112945.157500", "112946.647500", "112948.137500", "112949.627500", "112951.117500", "112952.607500", "112954.097500", "112955.587500", "112957.077500", "112958.567500", "113000.057500", "113001.547500", "113003.037500", "113004.527500", "113006.017500", "113007.507500", "113008.997500", "113010.487500", "113011.977500", "113013.467500", "113014.957500", "113016.447500", "113017.937500", "113019.427500", "113020.917500", "113022.407500", "113023.897500", "113025.387500", "113026.877500", "113028.367500", "113029.857500", "113031.347500", "113032.837500", "113034.327500", "113035.817500", "113037.307500", "113038.797500", "113040.287500", "113041.777500", "113043.267500", "113044.757500", "113046.247500", "113047.737500", "113049.227500", "113050.717500", "113052.207500", "113053.697500", "113055.187500", "113056.677500", "113058.167500", "113059.657500", "113101.147500", "113102.637500", "113104.127500", "113105.617500", "113107.107500", "113108.597500", "113110.087500", "113111.577500", "113113.067500", "113114.557500", "113116.047500", "113117.537500", "113119.027500", "113120.517500", "113122.007500", "113123.497500", "113124.987500", "113126.477500", "113127.967500", "113129.457500", "113130.947500", "113132.437500", "113133.927500", "113135.417500", "113136.907500", "113138.397500", "113139.887500", "113141.377500", "113142.867500", "113144.357500", "113145.847500", "113147.337500", "113148.827500", "113150.317500", "113151.807500", "113153.297500", "113154.787500", "113156.277500", "113157.767500", "113159.257500", "113200.747500", "113202.237500", "113203.727500", "113205.217500", "113206.707500", "113208.197500", "113209.687500", "113211.177500", "113212.667500", "113214.157500", "113215.647500", "113217.137500", "113218.627500", "113220.117500", "113221.607500", "113223.097500", "113224.587500", "113226.077500", "113227.567500", "113229.057500", "113230.547500", "113232.037500", "113233.527500", "113235.017500", "113236.507500", "113237.997500", "113239.487500", "113240.977500", "113242.467500", "113243.957500", "113245.447500", "113246.937500", "113248.427500", "113249.917500", "113251.407500", "113252.897500", "113254.387500", "113255.877500", "113257.367500", "113258.857500", "113300.347500", "113301.837500", "113303.327500", "113304.817500"],
      "ContentTime": ["112302.612000", "112302.622000", "112302.625000", "112302.628000", "112302.643000", "112302.646000", "112302.649000", "112302.652000", "112302.655000", "112302.657000", "112302.660000", "112302.663000", "112302.666000", "112302.669000", "112302.672000", "112302.675000", "112302.678000", "112302.681000", "112302.683000", "112302.686000", "112322.583000", "112322.586000", "112322.589000", "112322.592000", "112322.595000", "112322.597000", "112322.600000", "112322.603000", "112322.606000", "112322.609000", "112322.612000", "112322.615000", "112322.618000", "112322.621000", "112322.623000", "112322.626000", "112322.629000", "112322.632000", "112322.635000", "112322.638000", "112322.641000", "112342.583000", "112342.586000", "112342.589000", "112342.592000", "112342.595000", "112342.597000", "112342.600000", "112342.603000", "112342.606000", "112342.609000", "112342.612000", "112342.615000", "112342.618000", "112342.620000", "112342.623000", "112342.626000", "112342.629000", "112342.632000", "112342.635000", "112342.638000", "112402.583000", "112402.586000", "112402.589000", "112402.592000", "112402.594000", "112402.597000", "112402.600000", "112402.603000", "112402.606000", "112402.609000", "112402.612000", "112402.614000", "112402.617000", "112402.620000", "112402.623000", "112402.626000", "112402.629000", "112402.632000", "112402.635000", "112402.637000", "112422.583000", "112422.586000", "112422.589000", "112422.591000", "112422.594000", "112422.597000", "112422.600000", "112422.603000", "112422.606000", "112422.609000", "112422.612000", "112422.614000", "112422.617000", "112422.620000", "112422.623000", "112422.626000", "112422.629000", "112422.631000", "112422.634000", "112422.637000", "112502.583000", "112502.586000", "112502.594000", "112502.597000", "112502.600000", "112502.603000", "112502.606000", "112502.608000", "112502.611000", "112502.614000", "112502.617000", "112502.620000", "112502.623000", "112502.626000", "112502.629000", "112502.632000", "112502.635000", "112502.637000", "112502.640000", "112502.643000", "112502.646000", "112502.649000", "112502.652000", "112502.654000", "112502.657000", "112502.660000", "112502.663000", "112502.666000", "112502.669000", "112502.672000", "112542.583000", "112542.586000", "112542.589000", "112542.592000", "112542.595000", "112542.597000", "112542.600000", "112542.603000", "112542.606000", "112542.609000", "112542.612000", "112542.634000", "112542.637000", "112542.640000", "112542.643000", "112542.646000", "112542.649000", "112542.651000", "112542.654000", "112542.657000", "112542.660000", "112542.663000", "112542.666000", "112542.669000", "112542.672000", "112542.675000", "112622.583000", "112622.586000", "112622.589000", "112622.592000", "112622.595000", "112622.598000", "112622.600000", "112622.603000", "112622.606000", "112622.609000", "112622.612000", "112622.615000", "112622.618000", "112622.621000", "112622.623000", "112622.626000", "112622.629000", "112622.632000", "112622.635000", "112622.638000", "112622.641000", "112622.644000", "112622.646000", "112622.649000", "112622.652000", "112622.655000", "112622.658000", "112702.583000", "112702.586000", "112702.589000", "112702.592000", "112702.595000", "112702.597000", "112702.600000", "112702.603000", "112702.606000", "112702.609000", "112702.612000", "112702.615000", "112702.618000", "112702.621000", "112702.624000", "112702.627000", "112702.630000", "112702.632000", "112702.635000", "112702.638000", "112702.641000", "112702.644000", "112702.647000", "112702.650000", "112702.653000", "112702.656000", "112702.658000", "112742.583000", "112742.586000", "112742.589000", "112742.592000", "112742.595000", "112742.598000", "112742.601000", "112742.603000", "112742.606000", "112742.609000", "112742.612000", "112742.615000", "112742.618000", "112742.621000", "112742.624000", "112742.627000", "112742.630000", "112742.632000", "112742.635000", "112742.638000", "112742.641000", "112742.644000", "112742.647000", "112742.650000", "112742.653000", "112742.656000", "112742.659000", "112822.583000", "112822.586000", "112822.589000", "112822.592000", "112822.595000", "112822.598000", "112822.600000", "112822.607000", "112822.610000", "112822.613000", "112822.616000", "112822.619000", "112822.622000", "112822.625000", "112822.628000", "112822.630000", "112822.633000", "112822.636000", "112822.639000", "112822.642000", "112822.645000", "112822.648000", "112822.651000", "112822.654000", "112822.656000", "112822.659000", "112822.662000", "112902.583000", "112902.586000", "112902.589000", "112902.592000", "112902.595000", "112902.598000", "112902.600000", "112902.603000", "112902.606000", "112902.609000", "112902.612000", "112902.615000", "112902.618000", "112902.621000", "112902.624000", "112902.627000", "112902.630000", "112902.632000", "112902.635000", "112902.638000", "112902.641000", "112902.644000", "112902.647000", "112902.650000", "112902.653000", "112902.656000", "112902.658000", "112942.583000", "112942.586000", "112942.589000", "112942.592000", "112942.595000", "112942.598000", "112942.601000", "112942.604000", "112942.606000", "112942.610000", "112942.612000", "112942.615000", "112942.618000", "112942.621000", "112942.624000", "112942.627000", "112942.630000", "112942.633000", "112942.636000", "112942.639000", "112942.642000", "112942.645000", "112942.648000", "112942.651000", "112942.654000", "112942.657000", "113002.584000", "113002.587000", "113002.590000", "113002.593000", "113002.596000", "113002.599000", "113002.601000", "113002.604000", "113002.625000", "113002.628000", "113002.631000", "113002.634000", "113002.637000", "113002.639000", "113042.583000", "113042.586000", "113042.589000", "113042.592000", "113042.595000", "113042.598000", "113042.601000", "113042.604000", "113042.607000", "113042.609000", "113042.612000", "113042.615000", "113042.618000", "113042.621000", "113042.624000", "113042.627000", "113042.630000", "113042.633000", "113042.636000", "113042.639000", "113042.642000", "113042.644000", "113042.647000", "113042.650000", "113042.653000", "113042.656000", "113042.659000", "113122.583000", "113122.586000", "113122.589000", "113122.592000", "113122.595000", "113122.598000", "113122.601000", "113122.604000", "113122.607000", "113122.609000", "113122.613000", "113122.615000", "113122.618000", "113122.621000", "113122.624000", "113122.627000", "113122.630000", "113122.633000", "113122.636000", "113122.639000", "113122.642000", "113122.645000", "113122.648000", "113122.650000", "113122.653000", "113122.656000", "113122.659000", "113202.583000", "113202.586000", "113202.589000", "113202.592000", "113202.595000", "113202.598000", "113202.601000", "113202.604000", "113202.607000", "113202.609000", "113202.612000", "113202.615000", "113202.618000", "113202.621000", "113202.624000", "113202.627000", "113202.630000", "113202.633000", "113202.636000", "113202.639000", "113202.641000", "113202.644000", "113202.647000", "113202.650000", "113202.653000", "113202.656000", "113242.583000", "113242.586000", "113242.589000", "113242.592000", "113242.595000", "113242.598000", "113242.601000", "113242.604000", "113242.607000", "113242.610000", "113242.612000", "113242.616000", "113242.618000", "113242.621000", "113242.624000", "113242.627000", "113242.630000", "113242.633000", "113242.636000", "113242.639000", "113242.642000", "113242.645000", "113242.648000", "113242.651000", "113242.654000", "113242.657000", "113242.660000", "113306.813000", "113306.816000", "113306.819000", "113306.822000", "113306.825000", "113306.828000", "113306.831000", "113306.834000", "113306.836000", "113306.839000", "113306.842000", "113306.845000", "113306.848000", "113306.851000", "113306.854000", "113306.857000", "113306.860000"],
