{
  "AcquisitionMatrixPE": 104,
  "AcquisitionNumber": 1,
  "AcquisitionTime": "14:22:32.467500",
  "BandwidthPerPixelPhaseEncode": 17.17,
  "BaseResolution": 104,
  "BodyPartExamined": "BRAIN",
  "CoilString": "HC1-7;NC1_2",
  "ConsistencyInfo": "N4_VE11C_LATEST_20160120",
  "ConversionSoftware": "dcm2niix",
  "ConversionSoftwareVersion": "v1.0.20190902",
  "DerivedVendorReportedEchoSpacing": 0.000560011,
  "DeviceSerialNumber": "167006",
  "DwellTime": 2.1e-06,
  "EchoTime": 0.037,
  "EchoTrainLength": 104,
  "EffectiveEchoSpacing": 0.000560011,
  "FlipAngle": 52,
  "HeudiconvVersion": "0.10.0",
  "ImageComments": "Unaliased_MB4_PE3_LB",
  "ImageOrientationPatientDICOM": [0.999421, 0.0100876, 0.0324796, 0.0075007, 0.866108, -0.499801],
  "ImageType": [
    "ORIGINAL",
    "PRIMARY",
    "M",
    "MB",
    "ND",
    "MOSAIC"
],
  "ImagingFrequency": 123.259,
  "InPlanePhaseEncodingDirectionDICOM": "COL",
  "InstitutionAddress": "Chemin_Queen-Mary_4565_Montreal_District_CA_H3W_1W5",
  "InstitutionName": "IUGM",
  "InstitutionalDepartmentName": "Department",
  "MRAcquisitionType": "2D",
  "MagneticFieldStrength": 3,
  "Manufacturer": "Siemens",
  "ManufacturersModelName": "Prisma_fit",
  "Modality": "MR",
  "MultibandAccelerationFactor": 4,
  "PartialFourier": 1,
  "PatientPosition": "HFS",
  "PercentPhaseFOV": 100,
  "PhaseEncodingDirection": "j",
  "PhaseEncodingSteps": 104,
  "PhaseResolution": 1,
  "PixelBandwidth": 2290,
  "ProcedureStepDescription": "video_friends",
  "ProtocolName": "func_task-friends-s06e02a",
  "PulseSequenceDetails": "%CustomerSeq%_cmrr_mbep2d_bold",
  "ReceiveCoilActiveElements": "HC1-7;NC1,2",
  "ReceiveCoilName": "HeadNeck_64",
  "ReconMatrixPE": 104,
  "RepetitionTime": 1.49,
  "SAR": 0.0604038,
  "ScanOptions": "FS",
  "ScanningSequence": "EP",
  "SequenceName": "epfid2d1_104",
  "SequenceVariant": "SK_SS",
  "SeriesDescription": "func_task-friends-s06e02a",
  "SeriesNumber": 13,
  "ShimSetting": [627, -7178, -8862, 282, -16, -167, -3, 13],
  "SliceThickness": 2,
  "SliceTiming": [0, 0.7825, 0.0975, 0.88, 0.195, 0.98, 0.2925, 1.0775, 0.39, 1.175, 0.49, 1.2725, 0.5875, 1.37, 0.685, 0, 0.7825, 0.0975, 0.88, 0.195, 0.98, 0.2925, 1.0775, 0.39, 1.175, 0.49, 1.2725, 0.5875, 1.37, 0.685, 0, 0.7825, 0.0975, 0.88, 0.195, 0.98, 0.2925, 1.0775, 0.39, 1.175, 0.49, 1.2725, 0.5875, 1.37, 0.685, 0, 0.7825, 0.0975, 0.88, 0.195, 0.98, 0.2925, 1.0775, 0.39, 1.175, 0.49, 1.2725, 0.5875, 1.37, 0.685],
  "SoftwareVersions": "syngo_MR_E11",
  "SpacingBetweenSlices": 2,
  "StationName": "MRC35049",
  "TaskName": "s06e02a",
  "TotalReadoutTime": 0.0576811,
  "TxRefAmp": 294.176,
  "WipMemBlock": "c234b50d-7568-4b5e-953d-0f75d2435ba2||Sequence: R016 ve11c/master r/e634e98; Dec 19 2017 11:00:25 by eja",
  "dcmmeta_affine": [
    [-1.9988429546356201, 0.015001409687101841, 0.06634527444839478, 99.74177551269531],
    [-0.02017522044479847, 1.7322160005569458, -0.9995101690292358, -59.54429244995117],
    [0.06495920568704605, 0.9996012449264526, 1.7310625314712524, -99.54463958740234],
    [0.0, 0.0, 0.0, 1.0]
],
  "dcmmeta_reorient_transform": [
    [0.0, -1.0, 0.0, 103.0],
    [1.0, 0.0, 0.0, 0.0],
    [0.0, 0.0, 1.0, 0.0],
    [0.0, 0.0, 0.0, 1.0]
],
  "dcmmeta_shape": [104, 104, 60, 453],
  "dcmmeta_slice_dim": 2,
  "dcmmeta_version": 0.6,
  "global": {
    "const": {
      "AcquisitionMatrix": [104, 0, 0, 104],
      "AngioFlag": "N",
      "BitsAllocated": 16,
      "BitsStored": 16,
      "BodyPartExamined": "BRAIN",
      "Columns": 832,
      "EchoNumbers": 1,
      "EchoTime": 37.0,
      "EchoTrainLength": 104,
      "FlipAngle": 52.0,
      "HighBit": 15,
      "ImageOrientationPatient": [0.99942149044361, 0.010087609901, 0.03247960230619, 0.00750070489364, 0.86610800692909, -0.499800620007],
      "ImagePositionPatient": [-834.3262797843, -756.74436601086, 343.62399108501],
      "ImageType": [
        "ORIGINAL",
        "PRIMARY",
        "M",
        "MB",
        "ND",
        "MOSAIC"
],
      "ImagedNucleus": "1H",
      "ImagingFrequency": 123.258859,
      "InPlanePhaseEncodingDirection": "COL",
      "MRAcquisitionType": "2D",
      "MagneticFieldStrength": 3.0,
      "Manufacturer": "SIEMENS",
      "ManufacturerModelName": "Prisma_fit",
      "Modality": "MR",
      "NumberOfAverages": 1.0,
      "NumberOfPhaseEncodingSteps": 104,
      "PercentPhaseFieldOfView": 100.0,
      "PercentSampling": 100.0,
      "PerformedProcedureStepStartTime": "134252.484000",
      "PhotometricInterpretation": "MONOCHROME2",
      "PixelBandwidth": 2290.0,
      "PixelRepresentation": 0,
      "PixelSpacing": [2.0, 2.0],
      "ProtocolName": "func_task-friends-s06e02a",
      "RepetitionTime": 1490.0,
      "Rows": 832,
      "SAR": 0.06040378080435,
      "SamplesPerPixel": 1,
      "ScanOptions": "FS",
      "ScanningSequence": "EP",
      "SequenceName": "epfid2d1_104",
      "SequenceVariant": [
        "SK",
        "SS"
],
      "SeriesDescription": "func_task-friends-s06e02a",
      "SeriesNumber": 13,
      "SeriesTime": "142349.758000",
      "SliceLocation": -53.092736988208,
      "SliceThickness": 2.0,
      "SmallestImagePixelValue": 0,
      "SoftwareVersions": "syngo MR E11",
      "SpacingBetweenSlices": 1.9999999867294,
      "SpecificCharacterSet": "ISO_IR 100",
      "StudyID": "1",
      "StudyTime": "134252.440000",
      "TransmitCoilName": "Body",
      "VariableFlipAngleFlag": "N",
      "WindowCenterWidthExplanation": "Algo1",
      "dBdt": 0.0},
    "slices": {}
  },
  "time": {
    "samples": {
      "AcquisitionNumber": [1, 2, 3, 4, 5, 6, 7, 8, 9, 10, 11, 12, 13, 14, 15, 16, 17, 18, 19, 20, 21, 22, 23, 24, 25, 26, 27, 28, 29, 30, 31, 32, 33, 34, 35, 36, 37, 38, 39, 40, 41, 42, 43, 44, 45, 46, 47, 48, 49, 50, 51, 52, 53, 54, 55, 56, 57, 58, 59, 60, 61, 62, 63, 64, 65, 66, 67, 68, 69, 70, 71, 72, 73, 74, 75, 76, 77, 78, 79, 80, 81, 82, 83, 84, 85, 86, 87, 88, 89, 90, 91, 92, 93, 94, 95, 96, 97, 98, 99, 100, 101, 102, 103, 104, 105, 106, 107, 108, 109, 110, 111, 112, 113, 114, 115, 116, 117, 118, 119, 120, 121, 122, 123, 124, 125, 126, 127, 128, 129, 130, 131, 132, 133, 134, 135, 136, 137, 138, 139, 140, 141, 142, 143, 144, 145, 146, 147, 148, 149, 150, 151, 152, 153, 154, 155, 156, 157, 158, 159, 160, 161, 162, 163, 164, 165, 166, 167, 168, 169, 170, 171, 172, 173, 174, 175, 176, 177, 178, 179, 180, 181, 182, 183, 184, 185, 186, 187, 188, 189, 190, 191, 192, 193, 194, 195, 196, 197, 198, 199, 200, 201, 202, 203, 204, 205, 206, 207, 208, 209, 210, 211, 212, 213, 214, 215, 216, 217, 218, 219, 220, 221, 222, 223, 224, 225, 226, 227, 228, 229, 230, 231, 232, 233, 234, 235, 236, 237, 238, 239, 240, 241, 242, 243, 244, 245, 246, 247, 248, 249, 250, 251, 252, 253, 254, 255, 256, 257, 258, 259, 260, 261, 262, 263, 264, 265, 266, 267, 268, 269, 270, 271, 272, 273, 274, 275, 276, 277, 278, 279, 280, 281, 282, 283, 284, 285, 286, 287, 288, 289, 290, 291, 292, 293, 294, 295, 296, 297, 298, 299, 300, 301, 302, 303, 304, 305, 306, 307, 308, 309, 310, 311, 312, 313, 314, 315, 316, 317, 318, 319, 320, 321, 322, 323, 324, 325, 326, 327, 328, 329, 330, 331, 332, 333, 334, 335, 336, 337, 338, 339, 340, 341, 342, 343, 344, 345, 346, 347, 348, 349, 350, 351, 352, 353, 354, 355, 356, 357, 358, 359, 360, 361, 362, 363, 364, 365, 366, 367, 368, 369, 370, 371, 372, 373, 374, 375, 376, 377, 378, 379, 380, 381, 382, 383, 384, 385, 386, 387, 388, 389, 390, 391, 392, 393, 394, 395, 396, 397, 398, 399, 400, 401, 402, 403, 404, 405, 406, 407, 408, 409, 410, 411, 412, 413, 414, 415, 416, 417, 418, 419, 420, 421, 422, 423, 424, 425, 426, 427, 428, 429, 430, 431, 432, 433, 434, 435, 436, 437, 438, 439, 440, 441, 442, 443, 444, 445, 446, 447, 448, 449, 450, 451, 452, 453],
      "AcquisitionTime": ["142232.467500", "142233.957500", "142235.447500", "142236.937500", "142238.427500", "142239.917500", "142241.407500", "142242.897500", "142244.387500", "142245.877500", "142247.367500", "142248.857500", "142250.347500", "142251.837500", "142253.327500", "142254.817500", "142256.307500", "142257.797500", "142259.287500", "142300.777500", "142302.267500", "142303.757500", "142305.247500", "142306.737500", "142308.227500", "142309.717500", "142311.207500", "142312.697500", "142314.187500", "142315.677500", "142317.167500", "142318.657500", "142320.147500", "142321.637500", "142323.127500", "142324.617500", "142326.107500", "142327.597500", "142329.087500", "142330.577500", "142332.067500", "142333.557500", "142335.047500", "142336.537500", "142338.027500", "142339.517500", "142341.007500", "142342.497500", "142343.987500", "142345.477500", "142346.967500", "142348.457500", "142349.947500", "142351.437500", "142352.927500", "142354.417500", "142355.907500", "142357.397500", "142358.887500", "142400.377500", "142401.867500", "142403.357500", "142404.847500", "142406.337500", "142407.827500", "142409.317500", "142410.807500", "142412.297500", "142413.787500", "142415.277500", "142416.767500", "142418.257500", "142419.747500", "142421.237500", "142422.727500", "142424.217500", "142425.707500", "142427.197500", "142428.687500", "142430.177500", "142431.667500", "142433.157500", "142434.647500", "142436.137500", "142437.627500", "142439.117500", "142440.607500", "142442.097500", "142443.587500", "142445.077500", "142446.567500", "142448.057500", "142449.547500", "142451.037500", "142452.527500", "142454.017500", "142455.507500", "142456.997500", "142458.487500", "142459.977500", "142501.467500", "142502.957500", "142504.447500", "142505.937500", "142507.427500", "142508.917500", "142510.407500", "142511.897500", "142513.387500", "142514.877500", "142516.367500", "142517.857500", "142519.347500", "142520.837500", "142522.327500", "142523.817500", "142525.307500", "142526.797500", "142528.287500", "142529.777500", "142531.267500", "142532.757500", "142534.247500", "142535.737500", "142537.227500", "142538.717500", "142540.207500", "142541.697500", "142543.187500", "142544.677500", "142546.167500", "142547.657500", "142549.147500", "142550.637500", "142552.127500", "142553.617500", "142555.107500", "142556.597500", "142558.087500", "142559.577500", "142601.067500", "142602.557500", "142604.047500", "142605.537500", "142607.027500", "142608.517500", "142610.007500", "142611.497500", "142612.987500", "142614.477500", "142615.967500", "142617.457500", "142618.947500", "142620.437500", "142621.927500", "142623.417500", "142624.907500", "142626.397500", "142627.887500", "142629.377500", "142630.867500", "142632.357500", "142633.847500", "142635.337500", "142636.827500", "142638.317500", "142639.807500", "142641.297500", "142642.787500", "142644.277500", "142645.767500", "142647.257500", "142648.747500", "142650.237500", "142651.727500", "142653.217500", "142654.707500", "142656.197500", "142657.687500", "142659.177500", "142700.667500", "142702.157500", "142703.647500", "142705.137500", "142706.627500", "142708.117500", "142709.607500", "142711.097500", "142712.587500", "142714.077500", "142715.567500", "142717.057500", "142718.547500", "142720.037500", "142721.527500", "142723.017500", "142724.507500", "142725.997500", "142727.487500", "142728.977500", "142730.467500", "142731.957500", "142733.447500", "142734.937500", "142736.427500", "142737.917500", "142739.407500", "142740.897500", "142742.387500", "142743.877500", "142745.367500", "142746.857500", "142748.347500", "142749.837500", "142751.327500", "142752.817500", "142754.307500", "142755.797500", "142757.287500", "142758.777500", "142800.267500", "142801.757500", "142803.247500", "142804.737500", "142806.227500", "142807.717500", "142809.207500", "142810.697500", "142812.187500", "142813.677500", "142815.167500", "142816.657500", "142818.147500", "142819.637500", "142821.127500", "142822.617500", "142824.107500", "142825.597500", "142827.087500", "142828.577500", "142830.067500", "142831.557500", "142833.047500", "142834.537500", "142836.027500", "142837.517500", "142839.007500", "142840.497500", "142841.987500", "142843.477500", "142844.967500", "142846.457500", "142847.947500", "142849.437500", "142850.927500", "142852.417500", "142853.907500", "142855.397500", "142856.887500", "142858.377500", "142859.867500", "142901.357500", "142902.847500", "142904.337500", "142905.827500", "142907.317500", "142908.807500", "142910.297500", "142911.787500", "142913.277500", "142914.767500", "142916.257500", "142917.747500", "142919.237500", "142920.727500", "142922.217500", "142923.707500", "142925.197500", "142926.687500", "142928.177500", "142929.667500", "142931.157500", "142932.647500", "142934.137500", "142935.627500", "142937.117500", "142938.607500", "142940.097500", "142941.587500", "142943.077500", "142944.567500", "142946.057500", "142947.547500", "142949.037500", "142950.527500", "142952.017500", "142953.507500", "142954.997500", "142956.487500", "142957.977500", "142959.467500", "143000.957500", "143002.447500", "143003.937500", "143005.427500", "143006.917500", "143008.407500", "143009.897500", "143011.387500", "143012.877500", "143014.367500", "143015.857500", "143017.347500", "143018.837500", "143020.327500", "143021.817500", "143023.307500", "143024.797500", "143026.287500", "143027.777500", "143029.267500", "143030.757500", "143032.247500", "143033.737500", "143035.227500", "143036.717500", "143038.207500", "143039.697500", "143041.187500", "143042.677500", "143044.167500", "143045.657500", "143047.147500", "143048.637500", "143050.127500", "143051.617500", "143053.107500", "143054.597500", "143056.087500", "143057.577500", "143059.067500", "143100.557500", "143102.047500", "143103.537500", "143105.027500", "143106.517500", "143108.007500", "143109.497500", "143110.987500", "143112.477500", "143113.967500", "143115.457500", "143116.947500", "143118.437500", "143119.927500", "143121.417500", "143122.907500", "143124.397500", "143125.887500", "143127.377500", "143128.867500", "143130.357500", "143131.847500", "143133.337500", "143134.827500", "143136.317500", "143137.807500", "143139.297500", "143140.787500", "143142.277500", "143143.767500", "143145.257500", "143146.747500", "143148.237500", "143149.727500", "143151.217500", "143152.707500", "143154.197500", "143155.687500", "143157.177500", "143158.667500", "143200.157500", "143201.647500", "143203.137500", "143204.627500", "143206.117500", "143207.607500", "143209.097500", "143210.587500", "143212.077500", "143213.567500", "143215.057500", "143216.547500", "143218.037500", "143219.527500", "143221.017500", "143222.507500", "143223.997500", "143225.487500", "143226.977500", "143228.467500", "143229.957500", "143231.447500", "143232.937500", "143234.427500", "143235.917500", "143237.407500", "143238.897500", "143240.387500", "143241.877500", "143243.367500", "143244.857500", "143246.347500", "143247.837500", "143249.327500", "143250.817500", "143252.307500", "143253.797500", "143255.287500", "143256.777500", "143258.267500", "143259.757500", "143301.247500", "143302.737500", "143304.227500", "143305.717500", "143307.207500", "143308.697500", "143310.187500", "143311.677500", "143313.167500", "143314.657500", "143316.147500", "143317.637500", "143319.127500", "143320.617500", "143322.107500", "143323.597500", "143325.087500", "143326.577500", "143328.067500", "143329.557500", "143331.047500", "143332.537500", "143334.027500", "143335.517500", "143337.007500", "143338.497500", "143339.987500", "143341.477500", "143342.967500", "143344.457500", "143345.947500"],
      "ContentTime": ["142349.760000", "142349.764000", "142349.767000", "142349.770000", "142349.773000", "142349.776000", "142349.778000", "142349.788000", "142349.791000", "142349.794000", "142349.797000", "142349.800000", "142349.803000", "142349.806000", "142349.818000", "142349.821000", "142349.828000", "142349.831000", "142349.834000", "142349.837000", "142349.840000", "142349.843000", "142349.846000", "142409.723000", "142409.726000", "142409.729000", "142409.732000", "142409.735000", "142409.738000", "142409.741000", "142409.744000", "142409.746000", "142409.749000", "142409.752000", "142409.755000", "142409.766000", "142409.769000", "142409.772000", "142409.775000", "142409.778000", "142409.781000", "142409.784000", "142409.787000", "142429.722000", "142429.725000", "142429.728000", "142429.731000", "142429.734000", "142429.737000", "142429.747000", "142429.750000", "142429.753000", "142429.756000", "142429.759000", "142429.762000", "142429.765000", "142429.768000", "142429.770000", "142429.773000", "142429.776000", "142429.779000", "142429.782000", "142429.785000", "142429.788000", "142449.722000", "142449.725000", "142449.728000", "142449.731000", "142449.734000", "142449.737000", "142449.740000", "142449.743000", "142449.745000", "142449.748000", "142449.751000", "142449.754000", "142449.757000", "142449.760000", "142449.763000", "142449.766000", "142449.769000", "142449.772000", "142449.774000", "142449.777000", "142509.722000", "142509.725000", "142509.728000", "142509.731000", "142509.734000", "142509.737000", "142509.740000", "142509.743000", "142509.746000", "142509.749000", "142509.751000", "142509.754000", "142509.757000", "142509.760000", "142509.763000", "142509.766000", "142509.769000", "142509.772000", "142509.775000", "142509.778000", "142549.722000", "142549.725000", "142549.728000", "142549.731000", "142549.734000", "142549.737000", "142549.740000", "142549.743000", "142549.746000", "142549.749000", "142549.751000", "142549.754000", "142549.757000", "142549.760000", "142549.763000", "142549.766000", "142549.769000", "142549.772000", "142549.775000", "142549.778000", "142549.781000", "142549.784000", "142549.787000", "142549.790000", "142549.793000", "142549.796000", "142549.799000", "142549.802000", "142629.723000", "142629.727000", "142629.731000", "142629.734000", "142629.737000", "142629.741000", "142629.745000", "142629.748000", "142629.751000", "142629.755000", "142629.759000", "142629.762000", "142629.766000", "142629.770000", "142629.774000", "142629.777000", "142629.781000", "142629.785000", "142629.788000", "142629.792000", "142629.795000", "142629.799000", "142629.802000", "142629.806000", "142629.822000", "142629.826000", "142709.722000", "142709.725000", "142709.728000", "142709.731000", "142709.743000", "142709.746000", "142709.749000", "142709.752000", "142709.755000", "142709.758000", "142709.761000", "142709.764000", "142709.767000", "142709.770000", "142709.773000", "142709.776000", "142709.779000", "142709.782000", "142709.785000", "142709.788000", "142709.791000", "142709.794000", "142709.802000", "142709.805000", "142709.808000", "142709.811000", "142709.814000", "142749.722000", "142749.725000", "142749.728000", "142749.731000", "142749.734000", "142749.737000", "142749.740000", "142749.743000", "142749.746000", "142749.749000", "142749.752000", "142749.755000", "142749.758000", "142749.761000", "142749.764000", "142749.767000", "142749.770000", "142749.773000", "142749.776000", "142749.778000", "142749.781000", "142749.792000", "142749.795000", "142749.798000", "142749.801000", "142749.804000", "142749.807000", "142829.722000", "142829.725000", "142829.728000", "142829.731000", "142829.734000", "142829.737000", "142829.740000", "142829.743000", "142829.746000", "142829.749000", "142829.752000", "142829.755000", "142829.758000", "142829.760000", "142829.763000", "142829.766000", "142829.769000", "142829.772000", "142829.775000", "142829.778000", "142829.781000", "142829.784000", "142829.787000", "142829.790000", "142829.793000", "142829.796000", "142829.798000", "142909.722000", "142909.725000", "142909.728000", "142909.731000", "142909.734000", "142909.743000", "142909.746000", "142909.749000", "142909.752000", "142909.755000", "142909.758000", "142909.761000", "142909.763000", "142909.766000", "142909.770000", "142909.773000", "142909.776000", "142909.779000", "142909.781000", "142909.784000", "142909.787000", "142909.790000", "142909.793000", "142909.796000", "142909.799000", "142909.802000", "142909.805000", "142949.722000", "142949.725000", "142949.728000", "142949.731000", "142949.734000", "142949.737000", "142949.749000", "142949.752000", "142949.755000", "142949.758000", "142949.761000", "142949.764000", "142949.767000", "142949.801000", "142949.804000", "142949.807000", "142949.810000", "142949.813000", "142949.816000", "142949.819000", "142949.822000", "142949.825000", "142949.828000", "142949.830000", "142949.833000", "142949.836000", "142949.839000", "143029.722000", "143029.725000", "143029.728000", "143029.731000", "143029.734000", "143029.738000", "143029.741000", "143029.744000", "143029.747000", "143029.750000", "143029.754000", "143029.757000", "143029.760000", "143029.763000", "143029.765000", "143029.768000", "143029.771000", "143029.774000", "143029.777000", "143029.780000", "143029.783000", "143029.786000", "143029.789000", "143029.792000", "143029.795000", "143029.798000", "143109.723000", "143109.726000", "143109.729000", "143109.732000", "143109.735000", "143109.738000", "143109.741000", "143109.744000", "143109.747000", "143109.750000", "143109.753000", "143109.756000", "143109.759000", "143109.762000", "143109.765000", "143109.768000", "143109.779000", "143109.804000", "143109.807000", "143109.810000", "143109.818000", "143109.821000", "143109.824000", "143109.834000", "143109.837000", "143109.840000", "143109.843000", "143149.722000", "143149.725000", "143149.735000", "143149.738000", "143149.741000", "143149.743000", "143149.746000", "143149.749000", "143149.752000", "143149.755000", "143149.758000", "143149.761000", "143149.764000", "143149.767000", "143149.770000", "143149.773000", "143149.776000", "143149.779000", "143149.782000", "143149.785000", "143149.788000", "143149.791000", "143149.794000", "143149.797000", "143149.800000", "143149.802000", "143149.805000", "143229.722000", "143229.725000", "143229.728000", "143229.731000", "143229.734000", "143229.737000", "143229.740000", "143229.743000", "143229.746000", "143229.749000", "143229.752000", "143229.755000", "143229.758000", "143229.761000", "143229.764000", "143229.767000", "143229.796000", "143229.799000", "143229.802000", "143229.805000", "143229.808000", "143229.811000", "143229.813000", "143229.816000", "143229.819000", "143229.822000", "143229.825000", "143309.722000", "143309.725000", "143309.728000", "143309.741000", "143309.744000", "143309.747000", "143309.750000", "143309.753000", "143309.756000", "143309.759000", "143309.762000", "143309.765000", "143309.768000", "143309.770000", "143309.773000", "143309.776000", "143309.779000", "143309.782000", "143309.785000", "143309.788000", "143309.791000", "143309.794000", "143309.797000", "143309.800000", "143309.803000", "143309.806000", "143309.809000", "143347.957000", "143347.961000", "143347.964000", "143347.967000", "143347.970000", "143347.973000", "143347.976000", "143347.979000", "143347.982000", "143347.985000", "143347.988000", "143347.991000", "143347.994000", "143347.997000", "143348.000000", "143348.003000", "143348.006000", "143348.009000", "143348.012000", "143348.015000", "143348.018000", "143348.021000", "143348.024000", "143348.027000", "143348.030000", "143348.033000"],
