{
  "AcquisitionMatrixPE": 104,
  "AcquisitionNumber": 1,
  "AcquisitionTime": "13:56:44.967500",
  "BandwidthPerPixelPhaseEncode": 17.17,
  "BaseResolution": 104,
  "BodyPartExamined": "BRAIN",
  "CoilString": "HC1-7;NC1_2",
  "ConsistencyInfo": "N4_VE11C_LATEST_20160120",
  "ConversionSoftware": "dcm2niix",
  "ConversionSoftwareVersion": "v1.0.20190902",
  "DerivedVendorReportedEchoSpacing": 0.000560011,
  "DeviceSerialNumber": "167006",
  "DwellTime": 2.1e-06,
  "EchoTime": 0.037,
  "EchoTrainLength": 104,
  "EffectiveEchoSpacing": 0.000560011,
  "FlipAngle": 52,
  "HeudiconvVersion": "0.10.0",
  "ImageComments": "Unaliased_MB4_PE3_LB",
  "ImageOrientationPatientDICOM": [0.999421, 0.0100876, 0.0324796, 0.0075007, 0.866108, -0.499801],
  "ImageType": [
    "ORIGINAL",
    "PRIMARY",
    "M",
    "MB",
    "ND",
    "MOSAIC"
],
  "ImagingFrequency": 123.259,
  "InPlanePhaseEncodingDirectionDICOM": "COL",
  "InstitutionAddress": "Chemin_Queen-Mary_4565_Montreal_District_CA_H3W_1W5",
  "InstitutionName": "IUGM",
  "InstitutionalDepartmentName": "Department",
  "MRAcquisitionType": "2D",
  "MagneticFieldStrength": 3,
  "Manufacturer": "Siemens",
  "ManufacturersModelName": "Prisma_fit",
  "Modality": "MR",
  "MultibandAccelerationFactor": 4,
  "PartialFourier": 1,
  "PatientPosition": "HFS",
  "PercentPhaseFOV": 100,
  "PhaseEncodingDirection": "j",
  "PhaseEncodingSteps": 104,
  "PhaseResolution": 1,
  "PixelBandwidth": 2290,
  "ProcedureStepDescription": "video_friends",
  "ProtocolName": "func_task-friends-s06e01a",
  "PulseSequenceDetails": "%CustomerSeq%_cmrr_mbep2d_bold",
  "ReceiveCoilActiveElements": "HC1-7;NC1,2",
  "ReceiveCoilName": "HeadNeck_64",
  "ReconMatrixPE": 104,
  "RepetitionTime": 1.49,
  "SAR": 0.0604106,
  "ScanOptions": "FS",
  "ScanningSequence": "EP",
  "SequenceName": "epfid2d1_104",
  "SequenceVariant": "SK_SS",
  "SeriesDescription": "func_task-friends-s06e01a",
  "SeriesNumber": 9,
  "ShimSetting": [627, -7178, -8862, 282, -16, -167, -3, 13],
  "SliceThickness": 2,
  "SliceTiming": [0, 0.785, 0.0975, 0.8825, 0.195, 0.98, 0.295, 1.0775, 0.3925, 1.175, 0.49, 1.275, 0.5875, 1.3725, 0.685, 0, 0.785, 0.0975, 0.8825, 0.195, 0.98, 0.295, 1.0775, 0.3925, 1.175, 0.49, 1.275, 0.5875, 1.3725, 0.685, 0, 0.785, 0.0975, 0.8825, 0.195, 0.98, 0.295, 1.0775, 0.3925, 1.175, 0.49, 1.275, 0.5875, 1.3725, 0.685, 0, 0.785, 0.0975, 0.8825, 0.195, 0.98, 0.295, 1.0775, 0.3925, 1.175, 0.49, 1.275, 0.5875, 1.3725, 0.685],
  "SoftwareVersions": "syngo_MR_E11",
  "SpacingBetweenSlices": 2,
  "StationName": "MRC35049",
  "TaskName": "s06e01a",
  "TotalReadoutTime": 0.0576811,
  "TxRefAmp": 294.176,
  "WipMemBlock": "1f4f3223-0b2d-49af-9eec-09b791d5b086||Sequence: R016 ve11c/master r/e634e98; Dec 19 2017 11:00:25 by eja",
  "dcmmeta_affine": [
    [-1.9988429546356201, 0.015001409687101841, 0.06634527444839478, 99.74177551269531],
    [-0.02017522044479847, 1.7322160005569458, -0.9995101690292358, -59.54429244995117],
    [0.06495920568704605, 0.9996012449264526, 1.7310625314712524, -99.54463958740234],
    [0.0, 0.0, 0.0, 1.0]
],
  "dcmmeta_reorient_transform": [
    [0.0, -1.0, 0.0, 103.0],
    [1.0, 0.0, 0.0, 0.0],
    [0.0, 0.0, 1.0, 0.0],
    [0.0, 0.0, 0.0, 1.0]
],
  "dcmmeta_shape": [104, 104, 60, 465],
  "dcmmeta_slice_dim": 2,
  "dcmmeta_version": 0.6,
  "global": {
    "const": {
      "AcquisitionMatrix": [104, 0, 0, 104],
      "AngioFlag": "N",
      "BitsAllocated": 16,
      "BitsStored": 16,
      "BodyPartExamined": "BRAIN",
      "Columns": 832,
      "EchoNumbers": 1,
      "EchoTime": 37.0,
      "EchoTrainLength": 104,
      "FlipAngle": 52.0,
      "HighBit": 15,
      "ImageOrientationPatient": [0.99942149044361, 0.010087609901, 0.03247960230619, 0.00750070489364, 0.86610800692909, -0.499800620007],
      "ImagePositionPatient": [-834.3262797843, -756.74436601086, 343.62399108501],
      "ImageType": [
        "ORIGINAL",
        "PRIMARY",
        "M",
        "MB",
        "ND",
        "MOSAIC"
],
      "ImagedNucleus": "1H",
      "ImagingFrequency": 123.258842,
      "InPlanePhaseEncodingDirection": "COL",
      "MRAcquisitionType": "2D",
      "MagneticFieldStrength": 3.0,
      "Manufacturer": "SIEMENS",
      "ManufacturerModelName": "Prisma_fit",
      "Modality": "MR",
      "NumberOfAverages": 1.0,
      "NumberOfPhaseEncodingSteps": 104,
      "PercentPhaseFieldOfView": 100.0,
      "PercentSampling": 100.0,
      "PerformedProcedureStepStartTime": "134252.484000",
      "PhotometricInterpretation": "MONOCHROME2",
      "PixelBandwidth": 2290.0,
      "PixelRepresentation": 0,
      "PixelSpacing": [2.0, 2.0],
      "ProtocolName": "func_task-friends-s06e01a",
      "RepetitionTime": 1490.0,
      "Rows": 832,
      "SAR": 0.06041057261666,
      "SamplesPerPixel": 1,
      "ScanOptions": "FS",
      "ScanningSequence": "EP",
      "SequenceName": "epfid2d1_104",
      "SequenceVariant": [
        "SK",
        "SS"
],
      "SeriesDescription": "func_task-friends-s06e01a",
      "SeriesNumber": 9,
      "SeriesTime": "135755.468000",
      "SliceLocation": -53.092736988208,
      "SliceThickness": 2.0,
      "SmallestImagePixelValue": 0,
      "SoftwareVersions": "syngo MR E11",
      "SpacingBetweenSlices": 1.9999999867294,
      "SpecificCharacterSet": "ISO_IR 100",
      "StudyID": "1",
      "StudyTime": "134252.440000",
      "TransmitCoilName": "Body",
      "VariableFlipAngleFlag": "N",
      "WindowCenterWidthExplanation": "Algo1",
      "dBdt": 0.0},
    "slices": {}
  },
  "time": {
    "samples": {
      "AcquisitionNumber": [1, 2, 3, 4, 5, 6, 7, 8, 9, 10, 11, 12, 13, 14, 15, 16, 17, 18, 19, 20, 21, 22, 23, 24, 25, 26, 27, 28, 29, 30, 31, 32, 33, 34, 35, 36, 37, 38, 39, 40, 41, 42, 43, 44, 45, 46, 47, 48, 49, 50, 51, 52, 53, 54, 55, 56, 57, 58, 59, 60, 61, 62, 63, 64, 65, 66, 67, 68, 69, 70, 71, 72, 73, 74, 75, 76, 77, 78, 79, 80, 81, 82, 83, 84, 85, 86, 87, 88, 89, 90, 91, 92, 93, 94, 95, 96, 97, 98, 99, 100, 101, 102, 103, 104, 105, 106, 107, 108, 109, 110, 111, 112, 113, 114, 115, 116, 117, 118, 119, 120, 121, 122, 123, 124, 125, 126, 127, 128, 129, 130, 131, 132, 133, 134, 135, 136, 137, 138, 139, 140, 141, 142, 143, 144, 145, 146, 147, 148, 149, 150, 151, 152, 153, 154, 155, 156, 157, 158, 159, 160, 161, 162, 163, 164, 165, 166, 167, 168, 169, 170, 171, 172, 173, 174, 175, 176, 177, 178, 179, 180, 181, 182, 183, 184, 185, 186, 187, 188, 189, 190, 191, 192, 193, 194, 195, 196, 197, 198, 199, 200, 201, 202, 203, 204, 205, 206, 207, 208, 209, 210, 211, 212, 213, 214, 215, 216, 217, 218, 219, 220, 221, 222, 223, 224, 225, 226, 227, 228, 229, 230, 231, 232, 233, 234, 235, 236, 237, 238, 239, 240, 241, 242, 243, 244, 245, 246, 247, 248, 249, 250, 251, 252, 253, 254, 255, 256, 257, 258, 259, 260, 261, 262, 263, 264, 265, 266, 267, 268, 269, 270, 271, 272, 273, 274, 275, 276, 277, 278, 279, 280, 281, 282, 283, 284, 285, 286, 287, 288, 289, 290, 291, 292, 293, 294, 295, 296, 297, 298, 299, 300, 301, 302, 303, 304, 305, 306, 307, 308, 309, 310, 311, 312, 313, 314, 315, 316, 317, 318, 319, 320, 321, 322, 323, 324, 325, 326, 327, 328, 329, 330, 331, 332, 333, 334, 335, 336, 337, 338, 339, 340, 341, 342, 343, 344, 345, 346, 347, 348, 349, 350, 351, 352, 353, 354, 355, 356, 357, 358, 359, 360, 361, 362, 363, 364, 365, 366, 367, 368, 369, 370, 371, 372, 373, 374, 375, 376, 377, 378, 379, 380, 381, 382, 383, 384, 385, 386, 387, 388, 389, 390, 391, 392, 393, 394, 395, 396, 397, 398, 399, 400, 401, 402, 403, 404, 405, 406, 407, 408, 409, 410, 411, 412, 413, 414, 415, 416, 417, 418, 419, 420, 421, 422, 423, 424, 425, 426, 427, 428, 429, 430, 431, 432, 433, 434, 435, 436, 437, 438, 439, 440, 441, 442, 443, 444, 445, 446, 447, 448, 449, 450, 451, 452, 453, 454, 455, 456, 457, 458, 459, 460, 461, 462, 463, 464, 465],
      "AcquisitionTime": ["135644.967500", "135646.457500", "135647.947500", "135649.437500", "135650.927500", "135652.417500", "135653.907500", "135655.397500", "135656.887500", "135658.377500", "135659.867500", "135701.357500", "135702.847500", "135704.337500", "135705.827500", "135707.317500", "135708.807500", "135710.297500", "135711.787500", "135713.277500", "135714.767500", "135716.257500", "135717.747500", "135719.237500", "135720.727500", "135722.217500", "135723.707500", "135725.197500", "135726.687500", "135728.177500", "135729.667500", "135731.157500", "135732.647500", "135734.137500", "135735.627500", "135737.117500", "135738.607500", "135740.097500", "135741.587500", "135743.077500", "135744.567500", "135746.057500", "135747.547500", "135749.037500", "135750.527500", "135752.017500", "135753.507500", "135754.997500", "135756.487500", "135757.977500", "135759.467500", "135800.957500", "135802.447500", "135803.937500", "135805.427500", "135806.917500", "135808.407500", "135809.897500", "135811.387500", "135812.877500", "135814.367500", "135815.857500", "135817.347500", "135818.837500", "135820.327500", "135821.817500", "135823.307500", "135824.797500", "135826.287500", "135827.777500", "135829.267500", "135830.757500", "135832.247500", "135833.737500", "135835.227500", "135836.717500", "135838.207500", "135839.697500", "135841.187500", "135842.677500", "135844.167500", "135845.657500", "135847.147500", "135848.637500", "135850.127500", "135851.617500", "135853.107500", "135854.597500", "135856.087500", "135857.577500", "135859.067500", "135900.557500", "135902.047500", "135903.537500", "135905.027500", "135906.517500", "135908.007500", "135909.497500", "135910.987500", "135912.477500", "135913.967500", "135915.457500", "135916.947500", "135918.437500", "135919.927500", "135921.417500", "135922.907500", "135924.397500", "135925.887500", "135927.377500", "135928.867500", "135930.357500", "135931.847500", "135933.337500", "135934.827500", "135936.317500", "135937.807500", "135939.297500", "135940.787500", "135942.277500", "135943.767500", "135945.257500", "135946.747500", "135948.237500", "135949.727500", "135951.217500", "135952.707500", "135954.197500", "135955.687500", "135957.177500", "135958.667500", "140000.157500", "140001.647500", "140003.137500", "140004.627500", "140006.117500", "140007.607500", "140009.097500", "140010.587500", "140012.077500", "140013.567500", "140015.057500", "140016.547500", "140018.037500", "140019.527500", "140021.017500", "140022.507500", "140023.997500", "140025.487500", "140026.977500", "140028.467500", "140029.957500", "140031.447500", "140032.937500", "140034.427500", "140035.917500", "140037.407500", "140038.897500", "140040.387500", "140041.877500", "140043.367500", "140044.857500", "140046.347500", "140047.837500", "140049.327500", "140050.817500", "140052.307500", "140053.797500", "140055.287500", "140056.777500", "140058.267500", "140059.757500", "140101.247500", "140102.737500", "140104.227500", "140105.717500", "140107.207500", "140108.697500", "140110.187500", "140111.677500", "140113.167500", "140114.657500", "140116.147500", "140117.637500", "140119.127500", "140120.617500", "140122.107500", "140123.597500", "140125.087500", "140126.577500", "140128.067500", "140129.557500", "140131.047500", "140132.537500", "140134.027500", "140135.517500", "140137.007500", "140138.497500", "140139.987500", "140141.477500", "140142.967500", "140144.457500", "140145.947500", "140147.437500", "140148.927500", "140150.417500", "140151.907500", "140153.397500", "140154.887500", "140156.377500", "140157.867500", "140159.357500", "140200.847500", "140202.337500", "140203.827500", "140205.317500", "140206.807500", "140208.297500", "140209.787500", "140211.277500", "140212.767500", "140214.257500", "140215.747500", "140217.237500", "140218.727500", "140220.217500", "140221.707500", "140223.197500", "140224.687500", "140226.177500", "140227.667500", "140229.157500", "140230.647500", "140232.137500", "140233.627500", "140235.117500", "140236.607500", "140238.097500", "140239.587500", "140241.077500", "140242.567500", "140244.057500", "140245.547500", "140247.037500", "140248.527500", "140250.017500", "140251.507500", "140252.997500", "140254.487500", "140255.977500", "140257.467500", "140258.957500", "140300.447500", "140301.937500", "140303.427500", "140304.917500", "140306.407500", "140307.897500", "140309.387500", "140310.877500", "140312.367500", "140313.857500", "140315.347500", "140316.837500", "140318.327500", "140319.817500", "140321.307500", "140322.797500", "140324.287500", "140325.777500", "140327.267500", "140328.757500", "140330.247500", "140331.737500", "140333.227500", "140334.717500", "140336.207500", "140337.697500", "140339.187500", "140340.677500", "140342.167500", "140343.657500", "140345.147500", "140346.637500", "140348.127500", "140349.617500", "140351.107500", "140352.597500", "140354.087500", "140355.577500", "140357.067500", "140358.557500", "140400.047500", "140401.537500", "140403.027500", "140404.517500", "140406.007500", "140407.497500", "140408.987500", "140410.477500", "140411.967500", "140413.457500", "140414.947500", "140416.437500", "140417.927500", "140419.417500", "140420.907500", "140422.397500", "140423.887500", "140425.377500", "140426.867500", "140428.357500", "140429.847500", "140431.337500", "140432.827500", "140434.317500", "140435.807500", "140437.297500", "140438.787500", "140440.277500", "140441.767500", "140443.257500", "140444.747500", "140446.237500", "140447.727500", "140449.217500", "140450.707500", "140452.197500", "140453.687500", "140455.177500", "140456.667500", "140458.157500", "140459.647500", "140501.137500", "140502.627500", "140504.117500", "140505.607500", "140507.097500", "140508.587500", "140510.077500", "140511.567500", "140513.057500", "140514.547500", "140516.037500", "140517.527500", "140519.017500", "140520.507500", "140521.997500", "140523.487500", "140524.977500", "140526.467500", "140527.957500", "140529.447500", "140530.937500", "140532.427500", "140533.917500", "140535.407500", "140536.897500", "140538.387500", "140539.877500", "140541.367500", "140542.857500", "140544.347500", "140545.837500", "140547.327500", "140548.817500", "140550.307500", "140551.797500", "140553.287500", "140554.777500", "140556.267500", "140557.757500", "140559.247500", "140600.737500", "140602.227500", "140603.717500", "140605.207500", "140606.697500", "140608.187500", "140609.677500", "140611.167500", "140612.657500", "140614.147500", "140615.637500", "140617.127500", "140618.617500", "140620.107500", "140621.597500", "140623.087500", "140624.577500", "140626.067500", "140627.557500", "140629.047500", "140630.537500", "140632.027500", "140633.517500", "140635.007500", "140636.497500", "140637.987500", "140639.477500", "140640.967500", "140642.457500", "140643.947500", "140645.437500", "140646.927500", "140648.417500", "140649.907500", "140651.397500", "140652.887500", "140654.377500", "140655.867500", "140657.357500", "140658.847500", "140700.337500", "140701.827500", "140703.317500", "140704.807500", "140706.297500", "140707.787500", "140709.277500", "140710.767500", "140712.257500", "140713.747500", "140715.237500", "140716.727500", "140718.217500", "140719.707500", "140721.197500", "140722.687500", "140724.177500", "140725.667500", "140727.157500", "140728.647500", "140730.137500", "140731.627500", "140733.117500", "140734.607500", "140736.097500", "140737.587500", "140739.077500", "140740.567500", "140742.057500", "140743.547500", "140745.037500", "140746.527500", "140748.017500", "140749.507500", "140750.997500", "140752.487500", "140753.977500", "140755.467500", "140756.957500", "140758.447500", "140759.937500", "140801.427500", "140802.917500", "140804.407500", "140805.897500", "140807.387500", "140808.877500", "140810.367500", "140811.857500", "140813.347500", "140814.837500", "140816.327500"],
      "ContentTime": ["135755.471000", "135755.475000", "135755.478000", "135755.493000", "135755.496000", "135755.499000", "135755.502000", "135755.505000", "135755.508000", "135755.511000", "135755.514000", "135755.517000", "135755.520000", "135755.523000", "135755.526000", "135755.529000", "135755.531000", "135835.437000", "135835.440000", "135835.443000", "135835.446000", "135835.449000", "135835.452000", "135835.455000", "135835.470000", "135835.473000", "135835.476000", "135835.479000", "135835.482000", "135835.492000", "135835.495000", "135835.498000", "135835.501000", "135835.504000", "135835.507000", "135835.510000", "135835.512000", "135835.515000", "135835.518000", "135835.521000", "135835.524000", "135835.527000", "135835.530000", "135835.533000", "135835.536000", "135835.539000", "135835.542000", "135835.557000", "135835.560000", "135835.563000", "135835.566000", "135835.569000", "135835.572000", "135835.575000", "135835.578000", "135835.581000", "135835.584000", "135855.437000", "135855.440000", "135855.443000", "135855.446000", "135855.449000", "135855.452000", "135855.455000", "135855.458000", "135855.461000", "135855.464000", "135855.467000", "135855.469000", "135855.472000", "135855.475000", "135855.478000", "135855.481000", "135855.484000", "135855.487000", "135855.490000", "135855.493000", "135915.437000", "135915.447000", "135915.450000", "135915.464000", "135915.467000", "135915.470000", "135915.473000", "135915.476000", "135915.478000", "135915.482000", "135915.485000", "135915.488000", "135915.491000", "135915.494000", "135915.497000", "135915.500000", "135915.503000", "135915.505000", "135915.508000", "135915.511000", "135955.436000", "135955.439000", "135955.442000", "135955.445000", "135955.458000", "135955.461000", "135955.464000", "135955.467000", "135955.470000", "135955.473000", "135955.476000", "135955.479000", "135955.482000", "135955.485000", "135955.488000", "135955.491000", "135955.494000", "135955.497000", "135955.500000", "135955.503000", "135955.506000", "135955.509000", "135955.516000", "135955.519000", "135955.522000", "135955.525000", "135955.528000", "135955.531000", "135955.534000", "135955.537000", "140035.437000", "140035.440000", "140035.443000", "140035.446000", "140035.449000", "140035.456000", "140035.460000", "140035.463000", "140035.465000", "140035.468000", "140035.471000", "140035.474000", "140035.477000", "140035.480000", "140035.483000", "140035.486000", "140035.489000", "140035.492000", "140035.495000", "140035.498000", "140035.501000", "140035.504000", "140035.507000", "140035.509000", "140035.512000", "140035.515000", "140035.518000", "140115.437000", "140115.440000", "140115.443000", "140115.446000", "140115.449000", "140115.452000", "140115.455000", "140115.458000", "140115.461000", "140115.464000", "140115.467000", "140115.471000", "140115.474000", "140115.477000", "140115.480000", "140115.484000", "140115.487000", "140115.490000", "140115.493000", "140115.496000", "140115.499000", "140115.502000", "140115.505000", "140115.508000", "140115.511000", "140115.514000", "140155.436000", "140155.439000", "140155.442000", "140155.445000", "140155.448000", "140155.451000", "140155.454000", "140155.457000", "140155.460000", "140155.463000", "140155.466000", "140155.468000", "140155.471000", "140155.474000", "140155.477000", "140155.480000", "140155.483000", "140155.486000", "140155.489000", "140155.492000", "140155.495000", "140155.498000", "140155.501000", "140155.504000", "140155.507000", "140155.509000", "140155.512000", "140235.437000", "140235.440000", "140235.443000", "140235.446000", "140235.449000", "140235.452000", "140235.455000", "140235.458000", "140235.461000", "140235.464000", "140235.467000", "140235.469000", "140235.472000", "140235.475000", "140235.488000", "140235.491000", "140235.494000", "140235.497000", "140235.500000", "140235.503000", "140235.506000", "140235.509000", "140235.512000", "140235.515000", "140235.518000", "140235.521000", "140235.524000", "140315.437000", "140315.440000", "140315.451000", "140315.455000", "140315.458000", "140315.461000", "140315.464000", "140315.467000", "140315.470000", "140315.473000", "140315.476000", "140315.479000", "140315.482000", "140315.485000", "140315.488000", "140315.491000", "140315.494000", "140315.497000", "140315.500000", "140315.502000", "140315.505000", "140315.508000", "140315.511000", "140315.514000", "140315.517000", "140315.520000", "140315.523000", "140355.437000", "140355.440000", "140355.443000", "140355.446000", "140355.449000", "140355.452000", "140355.455000", "140355.458000", "140355.461000", "140355.464000", "140355.467000", "140355.470000", "140355.473000", "140355.476000", "140355.479000", "140355.482000", "140355.490000", "140355.493000", "140355.496000", "140355.499000", "140355.502000", "140355.505000", "140355.508000", "140355.511000", "140355.514000", "140355.517000", "140355.520000", "140435.436000", "140435.439000", "140435.442000", "140435.445000", "140435.448000", "140435.451000", "140435.454000", "140435.457000", "140435.460000", "140435.463000", "140435.466000", "140435.469000", "140435.472000", "140435.475000", "140435.477000", "140435.480000", "140435.483000", "140435.486000", "140435.489000", "140435.492000", "140435.495000", "140435.498000", "140435.501000", "140435.504000", "140435.507000", "140435.510000", "140435.513000", "140515.437000", "140515.440000", "140515.443000", "140515.446000", "140515.449000", "140515.452000", "140515.455000", "140515.458000", "140515.461000", "140515.464000", "140515.467000", "140515.470000", "140515.473000", "140515.476000", "140515.479000", "140515.482000", "140515.485000", "140515.488000", "140515.491000", "140515.493000", "140515.496000", "140515.499000", "140515.502000", "140515.505000", "140515.508000", "140515.511000", "140515.514000", "140555.437000", "140555.440000", "140555.443000", "140555.446000", "140555.449000", "140555.452000", "140555.455000", "140555.459000", "140555.462000", "140555.465000", "140555.468000", "140555.471000", "140555.474000", "140555.477000", "140555.480000", "140555.483000", "140555.486000", "140555.488000", "140555.491000", "140555.494000", "140555.497000", "140555.500000", "140555.503000", "140555.506000", "140555.509000", "140555.512000", "140635.436000", "140635.440000", "140635.444000", "140635.447000", "140635.450000", "140635.454000", "140635.457000", "140635.460000", "140635.464000", "140635.467000", "140635.471000", "140635.474000", "140635.478000", "140635.481000", "140635.484000", "140635.488000", "140635.491000", "140635.494000", "140635.497000", "140635.500000", "140635.503000", "140635.506000", "140635.509000", "140635.512000", "140635.515000", "140635.518000", "140635.521000", "140715.437000", "140715.440000", "140715.443000", "140715.446000", "140715.449000", "140715.452000", "140715.455000", "140715.458000", "140715.461000", "140715.464000", "140715.485000", "140715.488000", "140715.491000", "140715.494000", "140715.497000", "140715.500000", "140715.503000", "140715.506000", "140715.509000", "140715.512000", "140715.526000", "140715.529000", "140715.532000", "140715.535000", "140715.538000", "140715.541000", "140715.544000", "140755.437000", "140755.440000", "140755.443000", "140755.446000", "140755.449000", "140755.452000", "140755.455000", "140755.458000", "140755.461000", "140755.464000", "140755.467000", "140755.470000", "140755.473000", "140755.476000", "140755.479000", "140755.482000", "140755.485000", "140755.487000", "140755.490000", "140755.493000", "140755.496000", "140755.499000", "140755.502000", "140755.505000", "140755.508000", "140755.511000", "140755.514000", "140818.667000", "140818.670000", "140818.673000", "140818.677000", "140818.679000", "140818.682000", "140818.686000", "140818.689000", "140818.692000", "140818.695000", "140818.698000", "140818.701000", "140818.704000", "140818.707000", "140818.710000", "140818.713000"],
