{
  "AcquisitionMatrixPE": 104,
  "AcquisitionNumber": 1,
  "AcquisitionTime": "18:19:9.055000",
  "BandwidthPerPixelPhaseEncode": 17.17,
  "BaseResolution": 104,
  "BodyPartExamined": "BRAIN",
  "CoilCombinationMethod": "Sum of Squares",
  "ConsistencyInfo": "N4_VE11C_LATEST_20160120",
  "ConversionSoftware": "dcm2niix",
  "ConversionSoftwareVersion": "v1.0.20211006",
  "DerivedVendorReportedEchoSpacing": 0.000560011,
  "DeviceSerialNumber": "167006",
  "DwellTime": 2.1e-06,
  "EchoTime": 0.037,
  "EchoTrainLength": 104,
  "EffectiveEchoSpacing": 0.000560011,
  "FlipAngle": 52,
  "HeudiconvVersion": "0.11.3.post9+gc939bf8",
  "ImageComments": "Unaliased MB4/PE3/LB",
  "ImageOrientationPatientDICOM": [0.997207, 0.0742244, -0.00830428, -0.0720055, 0.925908, -0.370823],
  "ImageOrientationText": "Tra>Cor(-21.7)>Sag(1.1)",
  "ImageType": [
    "ORIGINAL",
    "PRIMARY",
    "M",
    "MB",
    "ND",
    "MOSAIC"
],
  "ImagingFrequency": 123.259,
  "InPlanePhaseEncodingDirectionDICOM": "COL",
  "InstitutionAddress": "Chemin Queen-Mary 4565,Montreal,District,CA,H3W 1W5",
  "InstitutionName": "IUGM",
  "InstitutionalDepartmentName": "Department",
  "MRAcquisitionType": "2D",
  "MagneticFieldStrength": 3,
  "Manufacturer": "Siemens",
  "ManufacturersModelName": "Prisma_fit",
  "MatrixCoilMode": "SENSE",
  "Modality": "MR",
  "MultibandAccelerationFactor": 4,
  "PartialFourier": 1,
  "PatientPosition": "HFS",
  "PercentPhaseFOV": 100,
  "PercentSampling": 100,
  "PhaseEncodingDirection": "j",
  "PhaseEncodingSteps": 104,
  "PhaseResolution": 1,
  "PixelBandwidth": 2290,
  "ProcedureStepDescription": "video^friends",
  "ProtocolName": "func_task-friends-s06e10a",
  "PulseSequenceDetails": "%CustomerSeq%\\cmrr_mbep2d_bold",
  "ReceiveCoilActiveElements": "HC1-7;NC1,2",
  "ReceiveCoilName": "HeadNeck_64",
  "ReconMatrixPE": 104,
  "RepetitionTime": 1.49,
  "SAR": 0.0551446,
  "ScanOptions": "FS",
  "ScanningSequence": "EP",
  "SequenceName": "epfid2d1_104",
  "SequenceVariant": "SK\\SS",
  "SeriesDescription": "func_task-friends-s06e10a",
  "SeriesNumber": 18,
  "ShimSetting": [625, -7184, -8818, 677, 89, -7, -82, -8],
  "SliceThickness": 2,
  "SliceTiming": [0, 0.7825, 0.0975, 0.8825, 0.195, 0.98, 0.2925, 1.0775, 0.3925, 1.175, 0.49, 1.2725, 0.5875, 1.37, 0.685, 0, 0.7825, 0.0975, 0.8825, 0.195, 0.98, 0.2925, 1.0775, 0.3925, 1.175, 0.49, 1.2725, 0.5875, 1.37, 0.685, 0, 0.7825, 0.0975, 0.8825, 0.195, 0.98, 0.2925, 1.0775, 0.3925, 1.175, 0.49, 1.2725, 0.5875, 1.37, 0.685, 0, 0.7825, 0.0975, 0.8825, 0.195, 0.98, 0.2925, 1.0775, 0.3925, 1.175, 0.49, 1.2725, 0.5875, 1.37, 0.685],
  "SoftwareVersions": "syngo MR E11",
  "SpacingBetweenSlices": 2,
  "StationName": "MRC35049",
  "TaskName": "s06e10a",
  "TotalReadoutTime": 0.0576811,
  "TxRefAmp": 282.179,
  "WipMemBlock": "b383fec7-0e47-447c-b069-cbbc41026c12||Sequence: R016 ve11c/master r/e634e98; Dec 19 2017 11:00:25 by eja",
  "dcmmeta_affine": [
    [-1.99441397190094, -0.14401093125343323, 0.039670124650001526, 108.9282455444336],
    [-0.14844872057437897, 1.8518162965774536, -0.7407695055007935, -59.96994400024414],
    [-0.01660856232047081, 0.7416450381278992, 1.8573331832885742, -65.08304595947266],
    [0.0, 0.0, 0.0, 1.0]
],
  "dcmmeta_reorient_transform": [
    [0.0, -1.0, 0.0, 103.0],
    [1.0, 0.0, 0.0, 0.0],
    [0.0, 0.0, 1.0, 0.0],
    [0.0, 0.0, 0.0, 1.0]
],
  "dcmmeta_shape": [104, 104, 60, 466],
  "dcmmeta_slice_dim": 2,
  "dcmmeta_version": 0.6,
  "global": {
    "const": {
      "AcquisitionMatrix": [104, 0, 0, 104],
      "AngioFlag": "N",
      "BitsAllocated": 16,
      "BitsStored": 16,
      "BodyPartExamined": "BRAIN",
      "Columns": 832,
      "EchoNumbers": 1,
      "EchoTime": 37.0,
      "EchoTrainLength": 104,
      "FlipAngle": 52.0,
      "HighBit": 15,
      "ImageOrientationPatient": [0.99720699128474, 0.07422435884368, -0.0083042812498, -0.0720054639811, 0.92590813413719, -0.3708225185927],
      "ImagePositionPatient": [-767.6418348211, -858.86358727898, 287.31070045669],
      "ImageType": [
        "ORIGINAL",
        "PRIMARY",
        "M",
        "MB",
        "ND",
        "MOSAIC"
],
      "ImagedNucleus": "1H",
      "ImagingFrequency": 123.258861,
      "InPlanePhaseEncodingDirection": "COL",
      "MRAcquisitionType": "2D",
      "MagneticFieldStrength": 3.0,
      "Manufacturer": "SIEMENS",
      "ManufacturerModelName": "Prisma_fit",
      "Modality": "MR",
      "NumberOfAverages": 1.0,
      "NumberOfPhaseEncodingSteps": 104,
      "PercentPhaseFieldOfView": 100.0,
      "PercentSampling": 100.0,
      "PerformedProcedureStepStartTime": "170231.889000",
      "PhotometricInterpretation": "MONOCHROME2",
      "PixelBandwidth": 2290.0,
      "PixelRepresentation": 0,
      "PixelSpacing": [2.0, 2.0],
      "ProtocolName": "func_task-friends-s06e10a",
      "RepetitionTime": 1490.0,
      "Rows": 832,
      "SAR": 0.05514456767896,
      "SamplesPerPixel": 1,
      "ScanOptions": "FS",
      "ScanningSequence": "EP",
      "SequenceName": "epfid2d1_104",
      "SequenceVariant": [
        "SK",
        "SS"
],
      "SeriesDescription": "func_task-friends-s06e10a",
      "SeriesNumber": 18,
      "SeriesTime": "182036.411000",
      "SliceLocation": -36.067903366619,
      "SliceThickness": 2.0,
      "SmallestImagePixelValue": 0,
      "SoftwareVersions": "syngo MR E11",
      "SpacingBetweenSlices": 1.9999999461849,
      "SpecificCharacterSet": "ISO_IR 100",
      "StudyID": "1",
      "StudyTime": "170231.825000",
      "TransmitCoilName": "Body",
      "VariableFlipAngleFlag": "N",
      "WindowCenterWidthExplanation": "Algo1",
      "dBdt": 0.0},
    "slices": {}
  },
  "time": {
    "samples": {
      "AcquisitionNumber": [1, 2, 3, 4, 5, 6, 7, 8, 9, 10, 11, 12, 13, 14, 15, 16, 17, 18, 19, 20, 21, 22, 23, 24, 25, 26, 27, 28, 29, 30, 31, 32, 33, 34, 35, 36, 37, 38, 39, 40, 41, 42, 43, 44, 45, 46, 47, 48, 49, 50, 51, 52, 53, 54, 55, 56, 57, 58, 59, 60, 61, 62, 63, 64, 65, 66, 67, 68, 69, 70, 71, 72, 73, 74, 75, 76, 77, 78, 79, 80, 81, 82, 83, 84, 85, 86, 87, 88, 89, 90, 91, 92, 93, 94, 95, 96, 97, 98, 99, 100, 101, 102, 103, 104, 105, 106, 107, 108, 109, 110, 111, 112, 113, 114, 115, 116, 117, 118, 119, 120, 121, 122, 123, 124, 125, 126, 127, 128, 129, 130, 131, 132, 133, 134, 135, 136, 137, 138, 139, 140, 141, 142, 143, 144, 145, 146, 147, 148, 149, 150, 151, 152, 153, 154, 155, 156, 157, 158, 159, 160, 161, 162, 163, 164, 165, 166, 167, 168, 169, 170, 171, 172, 173, 174, 175, 176, 177, 178, 179, 180, 181, 182, 183, 184, 185, 186, 187, 188, 189, 190, 191, 192, 193, 194, 195, 196, 197, 198, 199, 200, 201, 202, 203, 204, 205, 206, 207, 208, 209, 210, 211, 212, 213, 214, 215, 216, 217, 218, 219, 220, 221, 222, 223, 224, 225, 226, 227, 228, 229, 230, 231, 232, 233, 234, 235, 236, 237, 238, 239, 240, 241, 242, 243, 244, 245, 246, 247, 248, 249, 250, 251, 252, 253, 254, 255, 256, 257, 258, 259, 260, 261, 262, 263, 264, 265, 266, 267, 268, 269, 270, 271, 272, 273, 274, 275, 276, 277, 278, 279, 280, 281, 282, 283, 284, 285, 286, 287, 288, 289, 290, 291, 292, 293, 294, 295, 296, 297, 298, 299, 300, 301, 302, 303, 304, 305, 306, 307, 308, 309, 310, 311, 312, 313, 314, 315, 316, 317, 318, 319, 320, 321, 322, 323, 324, 325, 326, 327, 328, 329, 330, 331, 332, 333, 334, 335, 336, 337, 338, 339, 340, 341, 342, 343, 344, 345, 346, 347, 348, 349, 350, 351, 352, 353, 354, 355, 356, 357, 358, 359, 360, 361, 362, 363, 364, 365, 366, 367, 368, 369, 370, 371, 372, 373, 374, 375, 376, 377, 378, 379, 380, 381, 382, 383, 384, 385, 386, 387, 388, 389, 390, 391, 392, 393, 394, 395, 396, 397, 398, 399, 400, 401, 402, 403, 404, 405, 406, 407, 408, 409, 410, 411, 412, 413, 414, 415, 416, 417, 418, 419, 420, 421, 422, 423, 424, 425, 426, 427, 428, 429, 430, 431, 432, 433, 434, 435, 436, 437, 438, 439, 440, 441, 442, 443, 444, 445, 446, 447, 448, 449, 450, 451, 452, 453, 454, 455, 456, 457, 458, 459, 460, 461, 462, 463, 464, 465, 466],
      "AcquisitionTime": ["181909.055000", "181910.545000", "181912.035000", "181913.525000", "181915.015000", "181916.505000", "181917.995000", "181919.485000", "181920.975000", "181922.465000", "181923.955000", "181925.445000", "181926.935000", "181928.425000", "181929.915000", "181931.405000", "181932.895000", "181934.385000", "181935.875000", "181937.365000", "181938.855000", "181940.345000", "181941.835000", "181943.325000", "181944.815000", "181946.305000", "181947.795000", "181949.285000", "181950.775000", "181952.265000", "181953.755000", "181955.245000", "181956.735000", "181958.225000", "181959.715000", "182001.205000", "182002.695000", "182004.185000", "182005.675000", "182007.165000", "182008.655000", "182010.145000", "182011.635000", "182013.125000", "182014.615000", "182016.105000", "182017.595000", "182019.085000", "182020.575000", "182022.065000", "182023.555000", "182025.045000", "182026.535000", "182028.025000", "182029.515000", "182031.005000", "182032.495000", "182033.985000", "182035.475000", "182036.965000", "182038.455000", "182039.945000", "182041.435000", "182042.925000", "182044.415000", "182045.905000", "182047.395000", "182048.885000", "182050.375000", "182051.865000", "182053.355000", "182054.845000", "182056.335000", "182057.825000", "182059.315000", "182100.805000", "182102.295000", "182103.785000", "182105.275000", "182106.765000", "182108.255000", "182109.745000", "182111.235000", "182112.725000", "182114.215000", "182115.705000", "182117.195000", "182118.685000", "182120.175000", "182121.665000", "182123.155000", "182124.645000", "182126.135000", "182127.625000", "182129.115000", "182130.605000", "182132.095000", "182133.585000", "182135.075000", "182136.565000", "182138.055000", "182139.545000", "182141.035000", "182142.525000", "182144.015000", "182145.505000", "182146.995000", "182148.485000", "182149.975000", "182151.465000", "182152.955000", "182154.445000", "182155.935000", "182157.425000", "182158.915000", "182200.405000", "182201.895000", "182203.385000", "182204.875000", "182206.365000", "182207.855000", "182209.345000", "182210.835000", "182212.325000", "182213.815000", "182215.305000", "182216.795000", "182218.285000", "182219.775000", "182221.265000", "182222.755000", "182224.245000", "182225.735000", "182227.225000", "182228.715000", "182230.205000", "182231.695000", "182233.185000", "182234.675000", "182236.165000", "182237.655000", "182239.145000", "182240.635000", "182242.125000", "182243.615000", "182245.105000", "182246.595000", "182248.085000", "182249.575000", "182251.065000", "182252.555000", "182254.045000", "182255.535000", "182257.025000", "182258.515000", "182300.005000", "182301.495000", "182302.985000", "182304.475000", "182305.965000", "182307.455000", "182308.945000", "182310.435000", "182311.925000", "182313.415000", "182314.905000", "182316.395000", "182317.885000", "182319.375000", "182320.865000", "182322.355000", "182323.845000", "182325.335000", "182326.825000", "182328.315000", "182329.805000", "182331.295000", "182332.785000", "182334.275000", "182335.765000", "182337.255000", "182338.745000", "182340.235000", "182341.725000", "182343.215000", "182344.705000", "182346.195000", "182347.685000", "182349.175000", "182350.665000", "182352.155000", "182353.645000", "182355.135000", "182356.625000", "182358.115000", "182359.605000", "182401.095000", "182402.585000", "182404.075000", "182405.565000", "182407.055000", "182408.545000", "182410.035000", "182411.525000", "182413.015000", "182414.505000", "182415.995000", "182417.485000", "182418.975000", "182420.465000", "182421.955000", "182423.445000", "182424.935000", "182426.425000", "182427.915000", "182429.405000", "182430.895000", "182432.385000", "182433.875000", "182435.365000", "182436.855000", "182438.345000", "182439.835000", "182441.325000", "182442.815000", "182444.305000", "182445.795000", "182447.285000", "182448.775000", "182450.265000", "182451.755000", "182453.245000", "182454.735000", "182456.225000", "182457.715000", "182459.205000", "182500.695000", "182502.185000", "182503.675000", "182505.165000", "182506.655000", "182508.145000", "182509.635000", "182511.125000", "182512.615000", "182514.105000", "182515.595000", "182517.085000", "182518.575000", "182520.065000", "182521.555000", "182523.045000", "182524.535000", "182526.025000", "182527.515000", "182529.005000", "182530.495000", "182531.985000", "182533.475000", "182534.965000", "182536.455000", "182537.945000", "182539.435000", "182540.925000", "182542.415000", "182543.905000", "182545.395000", "182546.885000", "182548.375000", "182549.865000", "182551.355000", "182552.845000", "182554.335000", "182555.825000", "182557.315000", "182558.805000", "182600.295000", "182601.785000", "182603.275000", "182604.765000", "182606.255000", "182607.745000", "182609.235000", "182610.725000", "182612.215000", "182613.705000", "182615.195000", "182616.685000", "182618.175000", "182619.665000", "182621.155000", "182622.645000", "182624.135000", "182625.625000", "182627.115000", "182628.605000", "182630.095000", "182631.585000", "182633.075000", "182634.565000", "182636.055000", "182637.545000", "182639.035000", "182640.525000", "182642.015000", "182643.505000", "182644.995000", "182646.485000", "182647.975000", "182649.465000", "182650.955000", "182652.445000", "182653.935000", "182655.425000", "182656.915000", "182658.405000", "182659.895000", "182701.385000", "182702.875000", "182704.365000", "182705.855000", "182707.345000", "182708.835000", "182710.325000", "182711.815000", "182713.305000", "182714.795000", "182716.285000", "182717.775000", "182719.265000", "182720.755000", "182722.245000", "182723.735000", "182725.225000", "182726.715000", "182728.205000", "182729.695000", "182731.185000", "182732.675000", "182734.165000", "182735.655000", "182737.145000", "182738.635000", "182740.125000", "182741.615000", "182743.105000", "182744.595000", "182746.085000", "182747.575000", "182749.065000", "182750.555000", "182752.045000", "182753.535000", "182755.025000", "182756.515000", "182758.005000", "182759.495000", "182800.985000", "182802.475000", "182803.965000", "182805.455000", "182806.945000", "182808.435000", "182809.925000", "182811.415000", "182812.905000", "182814.395000", "182815.885000", "182817.375000", "182818.865000", "182820.355000", "182821.845000", "182823.335000", "182824.825000", "182826.315000", "182827.805000", "182829.295000", "182830.785000", "182832.275000", "182833.765000", "182835.255000", "182836.745000", "182838.235000", "182839.725000", "182841.215000", "182842.705000", "182844.195000", "182845.685000", "182847.175000", "182848.665000", "182850.155000", "182851.645000", "182853.135000", "182854.625000", "182856.115000", "182857.605000", "182859.095000", "182900.585000", "182902.075000", "182903.565000", "182905.055000", "182906.545000", "182908.035000", "182909.525000", "182911.015000", "182912.505000", "182913.995000", "182915.485000", "182916.975000", "182918.465000", "182919.955000", "182921.445000", "182922.935000", "182924.425000", "182925.915000", "182927.405000", "182928.895000", "182930.385000", "182931.875000", "182933.365000", "182934.855000", "182936.345000", "182937.835000", "182939.325000", "182940.815000", "182942.305000", "182943.795000", "182945.285000", "182946.775000", "182948.265000", "182949.755000", "182951.245000", "182952.735000", "182954.225000", "182955.715000", "182957.205000", "182958.695000", "183000.185000", "183001.675000", "183003.165000", "183004.655000", "183006.145000", "183007.635000", "183009.125000", "183010.615000", "183012.105000", "183013.595000", "183015.085000", "183016.575000", "183018.065000", "183019.555000", "183021.045000", "183022.535000", "183024.025000", "183025.515000", "183027.005000", "183028.495000", "183029.985000", "183031.475000", "183032.965000", "183034.455000", "183035.945000", "183037.435000", "183038.925000", "183040.415000", "183041.905000"],
      "ContentTime": ["182036.413000", "182036.417000", "182036.420000", "182036.423000", "182036.426000", "182036.429000", "182036.432000", "182036.434000", "182036.443000", "182036.446000", "182036.449000", "182036.452000", "182036.455000", "182036.458000", "182036.460000", "182036.463000", "182036.466000", "182036.469000", "182036.472000", "182036.475000", "182036.478000", "182036.481000", "182036.483000", "182036.486000", "182036.489000", "182036.505000", "182036.508000", "182036.510000", "182036.513000", "182036.516000", "182036.519000", "182036.522000", "182036.525000", "182036.528000", "182056.378000", "182056.381000", "182056.384000", "182056.386000", "182056.389000", "182056.392000", "182056.395000", "182056.398000", "182056.401000", "182056.404000", "182056.406000", "182056.409000", "182056.412000", "182056.415000", "182056.418000", "182056.421000", "182056.424000", "182056.426000", "182056.429000", "182056.432000", "182116.378000", "182116.382000", "182116.385000", "182116.388000", "182116.394000", "182116.397000", "182116.400000", "182116.403000", "182116.406000", "182116.409000", "182116.412000", "182116.415000", "182116.417000", "182116.420000", "182116.423000", "182116.426000", "182116.429000", "182116.432000", "182116.435000", "182116.438000", "182116.441000", "182136.378000", "182136.381000", "182136.384000", "182136.393000", "182136.396000", "182136.399000", "182136.401000", "182136.404000", "182136.407000", "182136.410000", "182136.413000", "182136.416000", "182136.418000", "182136.421000", "182136.424000", "182136.427000", "182136.430000", "182136.433000", "182136.436000", "182136.439000", "182216.379000", "182216.382000", "182216.385000", "182216.388000", "182216.390000", "182216.393000", "182216.396000", "182216.399000", "182216.402000", "182216.405000", "182216.408000", "182216.411000", "182216.414000", "182216.417000", "182216.419000", "182216.422000", "182216.425000", "182216.428000", "182216.431000", "182216.434000", "182216.437000", "182216.440000", "182216.442000", "182216.445000", "182216.448000", "182216.451000", "182216.454000", "182216.457000", "182216.460000", "182216.463000", "182256.379000", "182256.382000", "182256.385000", "182256.387000", "182256.390000", "182256.393000", "182256.396000", "182256.399000", "182256.402000", "182256.405000", "182256.408000", "182256.411000", "182256.414000", "182256.416000", "182256.419000", "182256.422000", "182256.425000", "182256.428000", "182256.431000", "182256.434000", "182256.437000", "182256.440000", "182256.442000", "182256.445000", "182256.448000", "182256.451000", "182256.454000", "182336.378000", "182336.381000", "182336.384000", "182336.387000", "182336.390000", "182336.393000", "182336.395000", "182336.398000", "182336.401000", "182336.404000", "182336.407000", "182336.410000", "182336.413000", "182336.416000", "182336.418000", "182336.429000", "182336.432000", "182336.435000", "182336.439000", "182336.442000", "182336.445000", "182336.448000", "182336.451000", "182336.454000", "182336.457000", "182336.460000", "182416.379000", "182416.382000", "182416.385000", "182416.388000", "182416.391000", "182416.394000", "182416.396000", "182416.399000", "182416.402000", "182416.405000", "182416.408000", "182416.411000", "182416.414000", "182416.417000", "182416.419000", "182416.422000", "182416.425000", "182416.428000", "182416.431000", "182416.434000", "182416.437000", "182416.440000", "182416.443000", "182416.445000", "182416.448000", "182416.451000", "182416.454000", "182456.379000", "182456.382000", "182456.385000", "182456.388000", "182456.391000", "182456.394000", "182456.397000", "182456.399000", "182456.402000", "182456.405000", "182456.408000", "182456.411000", "182456.414000", "182456.417000", "182456.420000", "182456.423000", "182456.426000", "182456.429000", "182456.431000", "182456.434000", "182456.437000", "182456.440000", "182456.452000", "182456.455000", "182456.457000", "182456.460000", "182456.464000", "182536.378000", "182536.381000", "182536.384000", "182536.387000", "182536.390000", "182536.393000", "182536.395000", "182536.398000", "182536.401000", "182536.404000", "182536.407000", "182536.410000", "182536.413000", "182536.416000", "182536.419000", "182536.422000", "182536.425000", "182536.428000", "182536.431000", "182536.434000", "182536.436000", "182536.439000", "182536.442000", "182536.445000", "182536.448000", "182536.451000", "182536.468000", "182616.378000", "182616.381000", "182616.384000", "182616.387000", "182616.390000", "182616.392000", "182616.395000", "182616.398000", "182616.405000", "182616.408000", "182616.411000", "182616.414000", "182616.417000", "182616.420000", "182616.422000", "182616.425000", "182616.428000", "182616.431000", "182616.434000", "182616.437000", "182616.440000", "182616.442000", "182616.445000", "182616.448000", "182616.451000", "182616.454000", "182616.457000", "182656.379000", "182656.382000", "182656.385000", "182656.388000", "182656.391000", "182656.394000", "182656.397000", "182656.399000", "182656.402000", "182656.405000", "182656.408000", "182656.419000", "182656.422000", "182656.425000", "182656.427000", "182656.431000", "182656.433000", "182656.436000", "182656.439000", "182656.442000", "182656.445000", "182656.448000", "182656.451000", "182656.454000", "182656.457000", "182656.460000", "182656.462000", "182736.379000", "182736.382000", "182736.385000", "182736.388000", "182736.391000", "182736.394000", "182736.397000", "182736.400000", "182736.403000", "182736.406000", "182736.408000", "182736.411000", "182736.414000", "182736.417000", "182736.420000", "182736.423000", "182736.426000", "182736.428000", "182736.431000", "182736.441000", "182736.444000", "182736.447000", "182736.450000", "182736.453000", "182736.456000", "182736.459000", "182816.378000", "182816.381000", "182816.384000", "182816.387000", "182816.390000", "182816.393000", "182816.395000", "182816.398000", "182816.401000", "182816.404000", "182816.407000", "182816.410000", "182816.413000", "182816.416000", "182816.418000", "182816.421000", "182816.424000", "182816.427000", "182816.430000", "182816.433000", "182816.436000", "182816.439000", "182816.442000", "182816.444000", "182816.447000", "182816.450000", "182816.453000", "182856.379000", "182856.382000", "182856.385000", "182856.388000", "182856.391000", "182856.394000", "182856.397000", "182856.400000", "182856.403000", "182856.406000", "182856.409000", "182856.412000", "182856.414000", "182856.417000", "182856.420000", "182856.423000", "182856.426000", "182856.429000", "182856.432000", "182856.435000", "182856.438000", "182856.440000", "182856.443000", "182856.446000", "182856.449000", "182856.452000", "182856.455000", "182936.379000", "182936.382000", "182936.385000", "182936.388000", "182936.391000", "182936.394000", "182936.397000", "182936.399000", "182936.402000", "182936.405000", "182936.408000", "182936.411000", "182936.414000", "182936.417000", "182936.420000", "182936.434000", "182936.436000", "182936.439000", "182936.442000", "182936.445000", "182936.448000", "182936.451000", "182936.463000", "182936.466000", "182936.469000", "182936.472000", "182936.475000", "183016.378000", "183016.381000", "183016.384000", "183016.387000", "183016.390000", "183016.393000", "183016.396000", "183016.399000", "183016.402000", "183016.405000", "183016.408000", "183016.411000", "183016.414000", "183016.417000", "183016.420000", "183016.423000", "183016.426000", "183016.429000", "183016.432000", "183016.435000", "183016.437000", "183016.441000", "183016.444000", "183016.446000", "183016.449000", "183016.452000", "183016.455000", "183044.256000", "183044.259000", "183044.262000", "183044.265000", "183044.281000", "183044.284000", "183044.287000", "183044.290000", "183044.293000", "183044.297000", "183044.300000", "183044.303000", "183044.306000", "183044.309000", "183044.312000", "183044.315000", "183044.318000", "183044.321000", "183044.324000"],
