{
  "AcquisitionMatrixPE": 104,
  "AcquisitionNumber": 1,
  "AcquisitionTime": "17:37:19.495000",
  "BandwidthPerPixelPhaseEncode": 17.17,
  "BaseResolution": 104,
  "BodyPartExamined": "BRAIN",
  "CoilCombinationMethod": "Sum of Squares",
  "ConsistencyInfo": "N4_VE11C_LATEST_20160120",
  "ConversionSoftware": "dcm2niix",
  "ConversionSoftwareVersion": "v1.0.20211006",
  "DerivedVendorReportedEchoSpacing": 0.000560011,
  "DeviceSerialNumber": "167006",
  "DwellTime": 2.1e-06,
  "EchoTime": 0.037,
  "EchoTrainLength": 104,
  "EffectiveEchoSpacing": 0.000560011,
  "FlipAngle": 52,
  "HeudiconvVersion": "0.11.3.post9+gc939bf8",
  "ImageComments": "Unaliased MB4/PE3/LB",
  "ImageOrientationPatientDICOM": [0.997207, 0.0742244, -0.00830428, -0.0720055, 0.925908, -0.370823],
  "ImageOrientationText": "Tra>Cor(-21.7)>Sag(1.1)",
  "ImageType": [
    "ORIGINAL",
    "PRIMARY",
    "M",
    "MB",
    "ND",
    "MOSAIC"
],
  "ImagingFrequency": 123.259,
  "InPlanePhaseEncodingDirectionDICOM": "COL",
  "InstitutionAddress": "Chemin Queen-Mary 4565,Montreal,District,CA,H3W 1W5",
  "InstitutionName": "IUGM",
  "InstitutionalDepartmentName": "Department",
  "MRAcquisitionType": "2D",
  "MagneticFieldStrength": 3,
  "Manufacturer": "Siemens",
  "ManufacturersModelName": "Prisma_fit",
  "MatrixCoilMode": "SENSE",
  "Modality": "MR",
  "MultibandAccelerationFactor": 4,
  "PartialFourier": 1,
  "PatientPosition": "HFS",
  "PercentPhaseFOV": 100,
  "PercentSampling": 100,
  "PhaseEncodingDirection": "j",
  "PhaseEncodingSteps": 104,
  "PhaseResolution": 1,
  "PixelBandwidth": 2290,
  "ProcedureStepDescription": "video^friends",
  "ProtocolName": "func_task-friends-s06e08b",
  "PulseSequenceDetails": "%CustomerSeq%\\cmrr_mbep2d_bold",
  "ReceiveCoilActiveElements": "HC1-7;NC1,2",
  "ReceiveCoilName": "HeadNeck_64",
  "ReconMatrixPE": 104,
  "RepetitionTime": 1.49,
  "SAR": 0.0551475,
  "ScanOptions": "FS",
  "ScanningSequence": "EP",
  "SequenceName": "epfid2d1_104",
  "SequenceVariant": "SK\\SS",
  "SeriesDescription": "func_task-friends-s06e08b",
  "SeriesNumber": 12,
  "ShimSetting": [625, -7184, -8818, 677, 89, -7, -82, -8],
  "SliceThickness": 2,
  "SliceTiming": [0, 0.7825, 0.0975, 0.88, 0.195, 0.98, 0.2925, 1.0775, 0.39, 1.175, 0.49, 1.2725, 0.5875, 1.37, 0.685, 0, 0.7825, 0.0975, 0.88, 0.195, 0.98, 0.2925, 1.0775, 0.39, 1.175, 0.49, 1.2725, 0.5875, 1.37, 0.685, 0, 0.7825, 0.0975, 0.88, 0.195, 0.98, 0.2925, 1.0775, 0.39, 1.175, 0.49, 1.2725, 0.5875, 1.37, 0.685, 0, 0.7825, 0.0975, 0.88, 0.195, 0.98, 0.2925, 1.0775, 0.39, 1.175, 0.49, 1.2725, 0.5875, 1.37, 0.685],
  "SoftwareVersions": "syngo MR E11",
  "SpacingBetweenSlices": 2,
  "StationName": "MRC35049",
  "TaskName": "s06e08b",
  "TotalReadoutTime": 0.0576811,
  "TxRefAmp": 282.179,
  "WipMemBlock": "6516cfec-9292-45e7-ba29-0a4d0120dbbe||Sequence: R016 ve11c/master r/e634e98; Dec 19 2017 11:00:25 by eja",
  "dcmmeta_affine": [
    [-1.99441397190094, -0.14401093125343323, 0.039670124650001526, 108.9282455444336],
    [-0.14844872057437897, 1.8518162965774536, -0.7407695055007935, -59.96994400024414],
    [-0.01660856232047081, 0.7416450381278992, 1.8573331832885742, -65.08304595947266],
    [0.0, 0.0, 0.0, 1.0]
],
  "dcmmeta_reorient_transform": [
    [0.0, -1.0, 0.0, 103.0],
    [1.0, 0.0, 0.0, 0.0],
    [0.0, 0.0, 1.0, 0.0],
    [0.0, 0.0, 0.0, 1.0]
],
  "dcmmeta_shape": [104, 104, 60, 472],
  "dcmmeta_slice_dim": 2,
  "dcmmeta_version": 0.6,
  "global": {
    "const": {
      "AcquisitionMatrix": [104, 0, 0, 104],
      "AngioFlag": "N",
      "BitsAllocated": 16,
      "BitsStored": 16,
      "BodyPartExamined": "BRAIN",
      "Columns": 832,
      "EchoNumbers": 1,
      "EchoTime": 37.0,
      "EchoTrainLength": 104,
      "FlipAngle": 52.0,
      "HighBit": 15,
      "ImageOrientationPatient": [0.99720699128474, 0.07422435884368, -0.0083042812498, -0.0720054639811, 0.92590813413719, -0.3708225185927],
      "ImagePositionPatient": [-767.6418348211, -858.86358727898, 287.31070045669],
      "ImageType": [
        "ORIGINAL",
        "PRIMARY",
        "M",
        "MB",
        "ND",
        "MOSAIC"
],
      "ImagedNucleus": "1H",
      "ImagingFrequency": 123.258851,
      "InPlanePhaseEncodingDirection": "COL",
      "MRAcquisitionType": "2D",
      "MagneticFieldStrength": 3.0,
      "Manufacturer": "SIEMENS",
      "ManufacturerModelName": "Prisma_fit",
      "Modality": "MR",
      "NumberOfAverages": 1.0,
      "NumberOfPhaseEncodingSteps": 104,
      "PercentPhaseFieldOfView": 100.0,
      "PercentSampling": 100.0,
      "PerformedProcedureStepStartTime": "170231.889000",
      "PhotometricInterpretation": "MONOCHROME2",
      "PixelBandwidth": 2290.0,
      "PixelRepresentation": 0,
      "PixelSpacing": [2.0, 2.0],
      "ProtocolName": "func_task-friends-s06e08b",
      "RepetitionTime": 1490.0,
      "Rows": 832,
      "SAR": 0.05514753400429,
      "SamplesPerPixel": 1,
      "ScanOptions": "FS",
      "ScanningSequence": "EP",
      "SequenceName": "epfid2d1_104",
      "SequenceVariant": [
        "SK",
        "SS"
],
      "SeriesDescription": "func_task-friends-s06e08b",
      "SeriesNumber": 12,
      "SeriesTime": "173836.411000",
      "SliceLocation": -36.067903366619,
      "SliceThickness": 2.0,
      "SmallestImagePixelValue": 0,
      "SoftwareVersions": "syngo MR E11",
      "SpacingBetweenSlices": 1.9999999461849,
      "SpecificCharacterSet": "ISO_IR 100",
      "StudyID": "1",
      "StudyTime": "170231.825000",
      "TransmitCoilName": "Body",
      "VariableFlipAngleFlag": "N",
      "WindowCenterWidthExplanation": "Algo1",
      "dBdt": 0.0},
    "slices": {}
  },
  "time": {
    "samples": {
      "AcquisitionNumber": [1, 2, 3, 4, 5, 6, 7, 8, 9, 10, 11, 12, 13, 14, 15, 16, 17, 18, 19, 20, 21, 22, 23, 24, 25, 26, 27, 28, 29, 30, 31, 32, 33, 34, 35, 36, 37, 38, 39, 40, 41, 42, 43, 44, 45, 46, 47, 48, 49, 50, 51, 52, 53, 54, 55, 56, 57, 58, 59, 60, 61, 62, 63, 64, 65, 66, 67, 68, 69, 70, 71, 72, 73, 74, 75, 76, 77, 78, 79, 80, 81, 82, 83, 84, 85, 86, 87, 88, 89, 90, 91, 92, 93, 94, 95, 96, 97, 98, 99, 100, 101, 102, 103, 104, 105, 106, 107, 108, 109, 110, 111, 112, 113, 114, 115, 116, 117, 118, 119, 120, 121, 122, 123, 124, 125, 126, 127, 128, 129, 130, 131, 132, 133, 134, 135, 136, 137, 138, 139, 140, 141, 142, 143, 144, 145, 146, 147, 148, 149, 150, 151, 152, 153, 154, 155, 156, 157, 158, 159, 160, 161, 162, 163, 164, 165, 166, 167, 168, 169, 170, 171, 172, 173, 174, 175, 176, 177, 178, 179, 180, 181, 182, 183, 184, 185, 186, 187, 188, 189, 190, 191, 192, 193, 194, 195, 196, 197, 198, 199, 200, 201, 202, 203, 204, 205, 206, 207, 208, 209, 210, 211, 212, 213, 214, 215, 216, 217, 218, 219, 220, 221, 222, 223, 224, 225, 226, 227, 228, 229, 230, 231, 232, 233, 234, 235, 236, 237, 238, 239, 240, 241, 242, 243, 244, 245, 246, 247, 248, 249, 250, 251, 252, 253, 254, 255, 256, 257, 258, 259, 260, 261, 262, 263, 264, 265, 266, 267, 268, 269, 270, 271, 272, 273, 274, 275, 276, 277, 278, 279, 280, 281, 282, 283, 284, 285, 286, 287, 288, 289, 290, 291, 292, 293, 294, 295, 296, 297, 298, 299, 300, 301, 302, 303, 304, 305, 306, 307, 308, 309, 310, 311, 312, 313, 314, 315, 316, 317, 318, 319, 320, 321, 322, 323, 324, 325, 326, 327, 328, 329, 330, 331, 332, 333, 334, 335, 336, 337, 338, 339, 340, 341, 342, 343, 344, 345, 346, 347, 348, 349, 350, 351, 352, 353, 354, 355, 356, 357, 358, 359, 360, 361, 362, 363, 364, 365, 366, 367, 368, 369, 370, 371, 372, 373, 374, 375, 376, 377, 378, 379, 380, 381, 382, 383, 384, 385, 386, 387, 388, 389, 390, 391, 392, 393, 394, 395, 396, 397, 398, 399, 400, 401, 402, 403, 404, 405, 406, 407, 408, 409, 410, 411, 412, 413, 414, 415, 416, 417, 418, 419, 420, 421, 422, 423, 424, 425, 426, 427, 428, 429, 430, 431, 432, 433, 434, 435, 436, 437, 438, 439, 440, 441, 442, 443, 444, 445, 446, 447, 448, 449, 450, 451, 452, 453, 454, 455, 456, 457, 458, 459, 460, 461, 462, 463, 464, 465, 466, 467, 468, 469, 470, 471, 472],
      "AcquisitionTime": ["173719.495000", "173720.985000", "173722.475000", "173723.965000", "173725.455000", "173726.945000", "173728.435000", "173729.925000", "173731.415000", "173732.905000", "173734.395000", "173735.885000", "173737.375000", "173738.865000", "173740.355000", "173741.845000", "173743.335000", "173744.825000", "173746.315000", "173747.805000", "173749.295000", "173750.785000", "173752.275000", "173753.765000", "173755.255000", "173756.745000", "173758.235000", "173759.725000", "173801.215000", "173802.705000", "173804.195000", "173805.685000", "173807.175000", "173808.665000", "173810.155000", "173811.645000", "173813.135000", "173814.625000", "173816.115000", "173817.605000", "173819.095000", "173820.585000", "173822.075000", "173823.565000", "173825.055000", "173826.545000", "173828.035000", "173829.525000", "173831.015000", "173832.505000", "173833.995000", "173835.485000", "173836.975000", "173838.465000", "173839.955000", "173841.445000", "173842.935000", "173844.425000", "173845.915000", "173847.405000", "173848.895000", "173850.385000", "173851.875000", "173853.365000", "173854.855000", "173856.345000", "173857.835000", "173859.325000", "173900.815000", "173902.305000", "173903.795000", "173905.285000", "173906.775000", "173908.265000", "173909.755000", "173911.245000", "173912.735000", "173914.225000", "173915.715000", "173917.205000", "173918.695000", "173920.185000", "173921.675000", "173923.165000", "173924.655000", "173926.145000", "173927.635000", "173929.125000", "173930.615000", "173932.105000", "173933.595000", "173935.085000", "173936.575000", "173938.065000", "173939.555000", "173941.045000", "173942.535000", "173944.025000", "173945.515000", "173947.005000", "173948.495000", "173949.985000", "173951.475000", "173952.965000", "173954.455000", "173955.945000", "173957.435000", "173958.925000", "174000.415000", "174001.905000", "174003.395000", "174004.885000", "174006.375000", "174007.865000", "174009.355000", "174010.845000", "174012.335000", "174013.825000", "174015.315000", "174016.805000", "174018.295000", "174019.785000", "174021.275000", "174022.765000", "174024.255000", "174025.745000", "174027.235000", "174028.725000", "174030.215000", "174031.705000", "174033.195000", "174034.685000", "174036.175000", "174037.665000", "174039.155000", "174040.645000", "174042.135000", "174043.625000", "174045.115000", "174046.605000", "174048.095000", "174049.585000", "174051.075000", "174052.565000", "174054.055000", "174055.545000", "174057.035000", "174058.525000", "174100.015000", "174101.505000", "174102.995000", "174104.485000", "174105.975000", "174107.465000", "174108.955000", "174110.445000", "174111.935000", "174113.425000", "174114.915000", "174116.405000", "174117.895000", "174119.385000", "174120.875000", "174122.365000", "174123.855000", "174125.345000", "174126.835000", "174128.325000", "174129.815000", "174131.305000", "174132.795000", "174134.285000", "174135.775000", "174137.265000", "174138.755000", "174140.245000", "174141.735000", "174143.225000", "174144.715000", "174146.205000", "174147.695000", "174149.185000", "174150.675000", "174152.165000", "174153.655000", "174155.145000", "174156.635000", "174158.125000", "174159.615000", "174201.105000", "174202.595000", "174204.085000", "174205.575000", "174207.065000", "174208.555000", "174210.045000", "174211.535000", "174213.025000", "174214.515000", "174216.005000", "174217.495000", "174218.985000", "174220.475000", "174221.965000", "174223.455000", "174224.945000", "174226.435000", "174227.925000", "174229.415000", "174230.905000", "174232.395000", "174233.885000", "174235.375000", "174236.865000", "174238.355000", "174239.845000", "174241.335000", "174242.825000", "174244.315000", "174245.805000", "174247.295000", "174248.785000", "174250.275000", "174251.765000", "174253.255000", "174254.745000", "174256.235000", "174257.725000", "174259.215000", "174300.705000", "174302.195000", "174303.685000", "174305.175000", "174306.665000", "174308.155000", "174309.645000", "174311.135000", "174312.625000", "174314.115000", "174315.605000", "174317.095000", "174318.585000", "174320.075000", "174321.565000", "174323.055000", "174324.545000", "174326.035000", "174327.525000", "174329.015000", "174330.505000", "174331.995000", "174333.485000", "174334.975000", "174336.465000", "174337.955000", "174339.445000", "174340.935000", "174342.425000", "174343.915000", "174345.405000", "174346.895000", "174348.385000", "174349.875000", "174351.365000", "174352.855000", "174354.345000", "174355.835000", "174357.325000", "174358.815000", "174400.305000", "174401.795000", "174403.285000", "174404.775000", "174406.265000", "174407.755000", "174409.245000", "174410.735000", "174412.225000", "174413.715000", "174415.205000", "174416.695000", "174418.185000", "174419.675000", "174421.165000", "174422.655000", "174424.145000", "174425.635000", "174427.125000", "174428.615000", "174430.105000", "174431.595000", "174433.085000", "174434.575000", "174436.065000", "174437.555000", "174439.045000", "174440.535000", "174442.025000", "174443.515000", "174445.005000", "174446.495000", "174447.985000", "174449.475000", "174450.965000", "174452.455000", "174453.945000", "174455.435000", "174456.925000", "174458.415000", "174459.905000", "174501.395000", "174502.885000", "174504.375000", "174505.865000", "174507.355000", "174508.845000", "174510.335000", "174511.825000", "174513.315000", "174514.805000", "174516.295000", "174517.785000", "174519.275000", "174520.765000", "174522.255000", "174523.745000", "174525.235000", "174526.725000", "174528.215000", "174529.705000", "174531.195000", "174532.685000", "174534.175000", "174535.665000", "174537.155000", "174538.645000", "174540.135000", "174541.625000", "174543.115000", "174544.605000", "174546.095000", "174547.585000", "174549.075000", "174550.565000", "174552.055000", "174553.545000", "174555.035000", "174556.525000", "174558.015000", "174559.505000", "174600.995000", "174602.485000", "174603.975000", "174605.465000", "174606.955000", "174608.445000", "174609.935000", "174611.425000", "174612.915000", "174614.405000", "174615.895000", "174617.385000", "174618.875000", "174620.365000", "174621.855000", "174623.345000", "174624.835000", "174626.325000", "174627.815000", "174629.305000", "174630.795000", "174632.285000", "174633.775000", "174635.265000", "174636.755000", "174638.245000", "174639.735000", "174641.225000", "174642.715000", "174644.205000", "174645.695000", "174647.185000", "174648.675000", "174650.165000", "174651.655000", "174653.145000", "174654.635000", "174656.125000", "174657.615000", "174659.105000", "174700.595000", "174702.085000", "174703.575000", "174705.065000", "174706.555000", "174708.045000", "174709.535000", "174711.025000", "174712.515000", "174714.005000", "174715.495000", "174716.985000", "174718.475000", "174719.965000", "174721.455000", "174722.945000", "174724.435000", "174725.925000", "174727.415000", "174728.905000", "174730.395000", "174731.885000", "174733.375000", "174734.865000", "174736.355000", "174737.845000", "174739.335000", "174740.825000", "174742.315000", "174743.805000", "174745.295000", "174746.785000", "174748.275000", "174749.765000", "174751.255000", "174752.745000", "174754.235000", "174755.725000", "174757.215000", "174758.705000", "174800.195000", "174801.685000", "174803.175000", "174804.665000", "174806.155000", "174807.645000", "174809.135000", "174810.625000", "174812.115000", "174813.605000", "174815.095000", "174816.585000", "174818.075000", "174819.565000", "174821.055000", "174822.545000", "174824.035000", "174825.525000", "174827.015000", "174828.505000", "174829.995000", "174831.485000", "174832.975000", "174834.465000", "174835.955000", "174837.445000", "174838.935000", "174840.425000", "174841.915000", "174843.405000", "174844.895000", "174846.385000", "174847.875000", "174849.365000", "174850.855000", "174852.345000", "174853.835000", "174855.325000", "174856.815000", "174858.305000", "174859.795000", "174901.285000"],
      "ContentTime": ["173836.414000", "173836.417000", "173836.420000", "173836.423000", "173836.426000", "173836.429000", "173836.432000", "173836.434000", "173836.437000", "173836.440000", "173836.443000", "173836.446000", "173836.458000", "173836.461000", "173836.464000", "173836.473000", "173836.476000", "173836.479000", "173836.482000", "173836.485000", "173836.488000", "173836.491000", "173836.493000", "173836.496000", "173856.379000", "173856.382000", "173856.385000", "173856.388000", "173856.391000", "173856.393000", "173856.396000", "173856.399000", "173856.402000", "173856.405000", "173856.408000", "173856.410000", "173856.413000", "173856.416000", "173856.419000", "173856.422000", "173856.425000", "173856.428000", "173856.430000", "173856.433000", "173916.378000", "173916.381000", "173916.384000", "173916.386000", "173916.389000", "173916.392000", "173916.395000", "173916.398000", "173916.401000", "173916.404000", "173916.407000", "173916.409000", "173916.412000", "173916.415000", "173916.418000", "173916.421000", "173916.424000", "173916.427000", "173916.430000", "173916.433000", "173936.378000", "173936.394000", "173936.397000", "173936.400000", "173936.403000", "173936.406000", "173936.409000", "173936.411000", "173936.414000", "173936.417000", "173936.420000", "173936.423000", "173936.426000", "173936.428000", "173936.431000", "173936.434000", "173936.437000", "173936.440000", "173936.443000", "173936.446000", "173956.379000", "173956.382000", "173956.385000", "173956.388000", "173956.391000", "173956.394000", "173956.397000", "173956.399000", "173956.402000", "173956.405000", "173956.408000", "173956.411000", "173956.414000", "173956.417000", "173956.420000", "173956.422000", "173956.425000", "173956.428000", "173956.431000", "173956.434000", "174036.379000", "174036.382000", "174036.385000", "174036.388000", "174036.391000", "174036.393000", "174036.396000", "174036.399000", "174036.402000", "174036.405000", "174036.408000", "174036.410000", "174036.413000", "174036.416000", "174036.419000", "174036.422000", "174036.425000", "174036.428000", "174036.431000", "174036.433000", "174036.436000", "174036.439000", "174036.442000", "174036.445000", "174036.448000", "174036.451000", "174036.454000", "174116.379000", "174116.382000", "174116.385000", "174116.388000", "174116.391000", "174116.394000", "174116.396000", "174116.399000", "174116.402000", "174116.405000", "174116.408000", "174116.411000", "174116.422000", "174116.425000", "174116.428000", "174116.430000", "174116.433000", "174116.436000", "174116.439000", "174116.442000", "174116.445000", "174116.448000", "174116.450000", "174116.453000", "174116.461000", "174116.465000", "174116.468000", "174136.378000", "174136.381000", "174136.384000", "174136.387000", "174136.390000", "174136.393000", "174136.396000", "174136.398000", "174136.401000", "174136.404000", "174136.416000", "174136.419000", "174136.421000", "174136.424000", "174216.378000", "174216.381000", "174216.384000", "174216.387000", "174216.390000", "174216.393000", "174216.396000", "174216.398000", "174216.401000", "174216.404000", "174216.407000", "174216.410000", "174216.413000", "174216.416000", "174216.419000", "174216.422000", "174216.424000", "174216.427000", "174216.430000", "174216.434000", "174216.437000", "174216.440000", "174216.442000", "174216.445000", "174216.448000", "174216.451000", "174256.379000", "174256.382000", "174256.385000", "174256.388000", "174256.391000", "174256.394000", "174256.396000", "174256.399000", "174256.402000", "174256.405000", "174256.408000", "174256.411000", "174256.414000", "174256.417000", "174256.420000", "174256.422000", "174256.425000", "174256.428000", "174256.431000", "174256.434000", "174256.437000", "174256.451000", "174256.454000", "174256.457000", "174256.459000", "174256.462000", "174256.465000", "174336.379000", "174336.382000", "174336.385000", "174336.388000", "174336.391000", "174336.394000", "174336.396000", "174336.399000", "174336.402000", "174336.405000", "174336.408000", "174336.411000", "174336.414000", "174336.417000", "174336.419000", "174336.422000", "174336.425000", "174336.428000", "174336.431000", "174336.434000", "174336.437000", "174336.440000", "174336.443000", "174336.446000", "174336.448000", "174336.451000", "174336.454000", "174416.378000", "174416.381000", "174416.384000", "174416.387000", "174416.390000", "174416.393000", "174416.396000", "174416.398000", "174416.401000", "174416.404000", "174416.407000", "174416.410000", "174416.413000", "174416.416000", "174416.419000", "174416.433000", "174416.436000", "174416.439000", "174416.442000", "174416.445000", "174416.448000", "174416.451000", "174416.454000", "174416.457000", "174416.459000", "174416.462000", "174416.465000", "174456.379000", "174456.382000", "174456.385000", "174456.388000", "174456.391000", "174456.394000", "174456.397000", "174456.400000", "174456.403000", "174456.406000", "174456.409000", "174456.411000", "174456.414000", "174456.417000", "174456.420000", "174456.423000", "174456.426000", "174456.429000", "174456.432000", "174456.435000", "174456.438000", "174456.441000", "174456.444000", "174456.447000", "174456.450000", "174456.452000", "174456.455000", "174536.379000", "174536.382000", "174536.385000", "174536.388000", "174536.391000", "174536.394000", "174536.396000", "174536.399000", "174536.402000", "174536.405000", "174536.408000", "174536.411000", "174536.414000", "174536.417000", "174536.420000", "174536.423000", "174536.426000", "174536.429000", "174536.431000", "174536.434000", "174536.448000", "174536.451000", "174536.454000", "174536.457000", "174536.460000", "174536.463000", "174536.466000", "174616.378000", "174616.381000", "174616.384000", "174616.387000", "174616.390000", "174616.393000", "174616.396000", "174616.398000", "174616.401000", "174616.404000", "174616.407000", "174616.410000", "174616.413000", "174616.416000", "174616.419000", "174616.422000", "174616.425000", "174616.427000", "174616.430000", "174616.433000", "174616.436000", "174616.439000", "174616.442000", "174616.445000", "174616.448000", "174616.451000", "174616.453000", "174656.378000", "174656.381000", "174656.384000", "174656.387000", "174656.390000", "174656.393000", "174656.396000", "174656.399000", "174656.401000", "174656.404000", "174656.407000", "174656.410000", "174656.413000", "174656.416000", "174656.419000", "174656.422000", "174656.425000", "174656.429000", "174656.432000", "174656.435000", "174656.438000", "174656.440000", "174656.443000", "174656.446000", "174656.449000", "174656.452000", "174736.379000", "174736.382000", "174736.385000", "174736.388000", "174736.391000", "174736.394000", "174736.396000", "174736.399000", "174736.402000", "174736.405000", "174736.408000", "174736.411000", "174736.414000", "174736.417000", "174736.419000", "174736.422000", "174736.425000", "174736.428000", "174736.431000", "174736.434000", "174736.437000", "174736.440000", "174736.443000", "174736.446000", "174736.449000", "174736.452000", "174736.454000", "174816.379000", "174816.382000", "174816.385000", "174816.388000", "174816.391000", "174816.394000", "174816.397000", "174816.400000", "174816.402000", "174816.405000", "174816.408000", "174816.411000", "174816.414000", "174816.417000", "174816.420000", "174816.423000", "174816.426000", "174816.428000", "174816.431000", "174816.434000", "174816.437000", "174816.440000", "174816.443000", "174816.446000", "174816.449000", "174816.452000", "174816.455000", "174856.378000", "174856.381000", "174856.399000", "174856.402000", "174856.405000", "174856.407000", "174856.410000", "174856.413000", "174856.416000", "174856.419000", "174856.422000", "174856.425000", "174856.428000", "174856.431000", "174856.434000", "174856.436000", "174856.439000", "174856.442000", "174856.445000", "174856.454000", "174856.457000", "174856.459000", "174856.462000", "174856.465000", "174856.468000", "174856.471000", "174856.474000", "174903.254000", "174903.258000", "174903.267000", "174903.270000", "174903.273000"],
