{
  "AcquisitionMatrixPE": 104,
  "AcquisitionNumber": 1,
  "AcquisitionTime": "18:04:28.022500",
  "BandwidthPerPixelPhaseEncode": 17.17,
  "BaseResolution": 104,
  "BodyPartExamined": "BRAIN",
  "CoilCombinationMethod": "Sum of Squares",
  "ConsistencyInfo": "N4_VE11C_LATEST_20160120",
  "ConversionSoftware": "dcm2niix",
  "ConversionSoftwareVersion": "v1.0.20211006",
  "DerivedVendorReportedEchoSpacing": 0.000560011,
  "DeviceSerialNumber": "167006",
  "DwellTime": 2.1e-06,
  "EchoTime": 0.037,
  "EchoTrainLength": 104,
  "EffectiveEchoSpacing": 0.000560011,
  "FlipAngle": 52,
  "HeudiconvVersion": "0.11.3.post9+gc939bf8",
  "ImageComments": "Unaliased MB4/PE3/LB",
  "ImageOrientationPatientDICOM": [0.997207, 0.0742244, -0.00830428, -0.0720055, 0.925908, -0.370823],
  "ImageOrientationText": "Tra>Cor(-21.7)>Sag(1.1)",
  "ImageType": [
    "ORIGINAL",
    "PRIMARY",
    "M",
    "MB",
    "ND",
    "MOSAIC"
],
  "ImagingFrequency": 123.259,
  "InPlanePhaseEncodingDirectionDICOM": "COL",
  "InstitutionAddress": "Chemin Queen-Mary 4565,Montreal,District,CA,H3W 1W5",
  "InstitutionName": "IUGM",
  "InstitutionalDepartmentName": "Department",
  "MRAcquisitionType": "2D",
  "MagneticFieldStrength": 3,
  "Manufacturer": "Siemens",
  "ManufacturersModelName": "Prisma_fit",
  "MatrixCoilMode": "SENSE",
  "Modality": "MR",
  "MultibandAccelerationFactor": 4,
  "PartialFourier": 1,
  "PatientPosition": "HFS",
  "PercentPhaseFOV": 100,
  "PercentSampling": 100,
  "PhaseEncodingDirection": "j",
  "PhaseEncodingSteps": 104,
  "PhaseResolution": 1,
  "PixelBandwidth": 2290,
  "ProcedureStepDescription": "video^friends",
  "ProtocolName": "func_task-friends-s06e09b",
  "PulseSequenceDetails": "%CustomerSeq%\\cmrr_mbep2d_bold",
  "ReceiveCoilActiveElements": "HC1-7;NC1,2",
  "ReceiveCoilName": "HeadNeck_64",
  "ReconMatrixPE": 104,
  "RepetitionTime": 1.49,
  "SAR": 0.0551755,
  "ScanOptions": "FS",
  "ScanningSequence": "EP",
  "SequenceName": "epfid2d1_104",
  "SequenceVariant": "SK\\SS",
  "SeriesDescription": "func_task-friends-s06e09b",
  "SeriesNumber": 16,
  "ShimSetting": [625, -7184, -8818, 677, 89, -7, -82, -8],
  "SliceThickness": 2,
  "SliceTiming": [0, 0.7825, 0.0975, 0.88, 0.195, 0.98, 0.2925, 1.0775, 0.39, 1.175, 0.49, 1.2725, 0.5875, 1.37, 0.685, 0, 0.7825, 0.0975, 0.88, 0.195, 0.98, 0.2925, 1.0775, 0.39, 1.175, 0.49, 1.2725, 0.5875, 1.37, 0.685, 0, 0.7825, 0.0975, 0.88, 0.195, 0.98, 0.2925, 1.0775, 0.39, 1.175, 0.49, 1.2725, 0.5875, 1.37, 0.685, 0, 0.7825, 0.0975, 0.88, 0.195, 0.98, 0.2925, 1.0775, 0.39, 1.175, 0.49, 1.2725, 0.5875, 1.37, 0.685],
  "SoftwareVersions": "syngo MR E11",
  "SpacingBetweenSlices": 2,
  "StationName": "MRC35049",
  "TaskName": "s06e09b",
  "TotalReadoutTime": 0.0576811,
  "TxRefAmp": 282.179,
  "WipMemBlock": "05cc01b0-000c-411e-9c52-b6bb71009718||Sequence: R016 ve11c/master r/e634e98; Dec 19 2017 11:00:25 by eja",
  "dcmmeta_affine": [
    [-1.99441397190094, -0.14401093125343323, 0.039670124650001526, 108.9282455444336],
    [-0.14844872057437897, 1.8518162965774536, -0.7407695055007935, -59.96994400024414],
    [-0.01660856232047081, 0.7416450381278992, 1.8573331832885742, -65.08304595947266],
    [0.0, 0.0, 0.0, 1.0]
],
  "dcmmeta_reorient_transform": [
    [0.0, -1.0, 0.0, 103.0],
    [1.0, 0.0, 0.0, 0.0],
    [0.0, 0.0, 1.0, 0.0],
    [0.0, 0.0, 0.0, 1.0]
],
  "dcmmeta_shape": [104, 104, 60, 537],
  "dcmmeta_slice_dim": 2,
  "dcmmeta_version": 0.6,
  "global": {
    "const": {
      "AcquisitionMatrix": [104, 0, 0, 104],
      "AngioFlag": "N",
      "BitsAllocated": 16,
      "BitsStored": 16,
      "BodyPartExamined": "BRAIN",
      "Columns": 832,
      "EchoNumbers": 1,
      "EchoTime": 37.0,
      "EchoTrainLength": 104,
      "FlipAngle": 52.0,
      "HighBit": 15,
      "ImageOrientationPatient": [0.99720699128474, 0.07422435884368, -0.0083042812498, -0.0720054639811, 0.92590813413719, -0.3708225185927],
      "ImagePositionPatient": [-767.6418348211, -858.86358727898, 287.31070045669],
      "ImageType": [
        "ORIGINAL",
        "PRIMARY",
        "M",
        "MB",
        "ND",
        "MOSAIC"
],
      "ImagedNucleus": "1H",
      "ImagingFrequency": 123.258861,
      "InPlanePhaseEncodingDirection": "COL",
      "MRAcquisitionType": "2D",
      "MagneticFieldStrength": 3.0,
      "Manufacturer": "SIEMENS",
      "ManufacturerModelName": "Prisma_fit",
      "Modality": "MR",
      "NumberOfAverages": 1.0,
      "NumberOfPhaseEncodingSteps": 104,
      "PercentPhaseFieldOfView": 100.0,
      "PercentSampling": 100.0,
      "PerformedProcedureStepStartTime": "170231.889000",
      "PhotometricInterpretation": "MONOCHROME2",
      "PixelBandwidth": 2290.0,
      "PixelRepresentation": 0,
      "PixelSpacing": [2.0, 2.0],
      "ProtocolName": "func_task-friends-s06e09b",
      "RepetitionTime": 1490.0,
      "Rows": 832,
      "SAR": 0.05517552977435,
      "SamplesPerPixel": 1,
      "ScanOptions": "FS",
      "ScanningSequence": "EP",
      "SequenceName": "epfid2d1_104",
      "SequenceVariant": [
        "SK",
        "SS"
],
      "SeriesDescription": "func_task-friends-s06e09b",
      "SeriesNumber": 16,
      "SeriesTime": "180552.155000",
      "SliceLocation": -36.067903366619,
      "SliceThickness": 2.0,
      "SmallestImagePixelValue": 0,
      "SoftwareVersions": "syngo MR E11",
      "SpacingBetweenSlices": 1.9999999461849,
      "SpecificCharacterSet": "ISO_IR 100",
      "StudyID": "1",
      "StudyTime": "170231.825000",
      "TransmitCoilName": "Body",
      "VariableFlipAngleFlag": "N",
      "WindowCenterWidthExplanation": "Algo1",
      "dBdt": 0.0},
    "slices": {}
  },
  "time": {
    "samples": {
      "AcquisitionNumber": [1, 2, 3, 4, 5, 6, 7, 8, 9, 10, 11, 12, 13, 14, 15, 16, 17, 18, 19, 20, 21, 22, 23, 24, 25, 26, 27, 28, 29, 30, 31, 32, 33, 34, 35, 36, 37, 38, 39, 40, 41, 42, 43, 44, 45, 46, 47, 48, 49, 50, 51, 52, 53, 54, 55, 56, 57, 58, 59, 60, 61, 62, 63, 64, 65, 66, 67, 68, 69, 70, 71, 72, 73, 74, 75, 76, 77, 78, 79, 80, 81, 82, 83, 84, 85, 86, 87, 88, 89, 90, 91, 92, 93, 94, 95, 96, 97, 98, 99, 100, 101, 102, 103, 104, 105, 106, 107, 108, 109, 110, 111, 112, 113, 114, 115, 116, 117, 118, 119, 120, 121, 122, 123, 124, 125, 126, 127, 128, 129, 130, 131, 132, 133, 134, 135, 136, 137, 138, 139, 140, 141, 142, 143, 144, 145, 146, 147, 148, 149, 150, 151, 152, 153, 154, 155, 156, 157, 158, 159, 160, 161, 162, 163, 164, 165, 166, 167, 168, 169, 170, 171, 172, 173, 174, 175, 176, 177, 178, 179, 180, 181, 182, 183, 184, 185, 186, 187, 188, 189, 190, 191, 192, 193, 194, 195, 196, 197, 198, 199, 200, 201, 202, 203, 204, 205, 206, 207, 208, 209, 210, 211, 212, 213, 214, 215, 216, 217, 218, 219, 220, 221, 222, 223, 224, 225, 226, 227, 228, 229, 230, 231, 232, 233, 234, 235, 236, 237, 238, 239, 240, 241, 242, 243, 244, 245, 246, 247, 248, 249, 250, 251, 252, 253, 254, 255, 256, 257, 258, 259, 260, 261, 262, 263, 264, 265, 266, 267, 268, 269, 270, 271, 272, 273, 274, 275, 276, 277, 278, 279, 280, 281, 282, 283, 284, 285, 286, 287, 288, 289, 290, 291, 292, 293, 294, 295, 296, 297, 298, 299, 300, 301, 302, 303, 304, 305, 306, 307, 308, 309, 310, 311, 312, 313, 314, 315, 316, 317, 318, 319, 320, 321, 322, 323, 324, 325, 326, 327, 328, 329, 330, 331, 332, 333, 334, 335, 336, 337, 338, 339, 340, 341, 342, 343, 344, 345, 346, 347, 348, 349, 350, 351, 352, 353, 354, 355, 356, 357, 358, 359, 360, 361, 362, 363, 364, 365, 366, 367, 368, 369, 370, 371, 372, 373, 374, 375, 376, 377, 378, 379, 380, 381, 382, 383, 384, 385, 386, 387, 388, 389, 390, 391, 392, 393, 394, 395, 396, 397, 398, 399, 400, 401, 402, 403, 404, 405, 406, 407, 408, 409, 410, 411, 412, 413, 414, 415, 416, 417, 418, 419, 420, 421, 422, 423, 424, 425, 426, 427, 428, 429, 430, 431, 432, 433, 434, 435, 436, 437, 438, 439, 440, 441, 442, 443, 444, 445, 446, 447, 448, 449, 450, 451, 452, 453, 454, 455, 456, 457, 458, 459, 460, 461, 462, 463, 464, 465, 466, 467, 468, 469, 470, 471, 472, 473, 474, 475, 476, 477, 478, 479, 480, 481, 482, 483, 484, 485, 486, 487, 488, 489, 490, 491, 492, 493, 494, 495, 496, 497, 498, 499, 500, 501, 502, 503, 504, 505, 506, 507, 508, 509, 510, 511, 512, 513, 514, 515, 516, 517, 518, 519, 520, 521, 522, 523, 524, 525, 526, 527, 528, 529, 530, 531, 532, 533, 534, 535, 536, 537],
      "AcquisitionTime": ["180428.022500", "180429.512500", "180431.002500", "180432.492500", "180433.982500", "180435.472500", "180436.962500", "180438.452500", "180439.942500", "180441.432500", "180442.922500", "180444.412500", "180445.902500", "180447.392500", "180448.882500", "180450.372500", "180451.862500", "180453.352500", "180454.842500", "180456.332500", "180457.822500", "180459.312500", "180500.802500", "180502.292500", "180503.782500", "180505.272500", "180506.762500", "180508.252500", "180509.742500", "180511.232500", "180512.722500", "180514.212500", "180515.702500", "180517.192500", "180518.682500", "180520.172500", "180521.662500", "180523.152500", "180524.642500", "180526.132500", "180527.622500", "180529.112500", "180530.602500", "180532.092500", "180533.582500", "180535.072500", "180536.562500", "180538.052500", "180539.542500", "180541.032500", "180542.522500", "180544.012500", "180545.502500", "180546.992500", "180548.482500", "180549.972500", "180551.462500", "180552.952500", "180554.442500", "180555.932500", "180557.422500", "180558.912500", "180600.402500", "180601.892500", "180603.382500", "180604.872500", "180606.362500", "180607.852500", "180609.342500", "180610.832500", "180612.322500", "180613.812500", "180615.302500", "180616.792500", "180618.282500", "180619.772500", "180621.262500", "180622.752500", "180624.242500", "180625.732500", "180627.222500", "180628.712500", "180630.202500", "180631.692500", "180633.182500", "180634.672500", "180636.162500", "180637.652500", "180639.142500", "180640.632500", "180642.122500", "180643.612500", "180645.102500", "180646.592500", "180648.082500", "180649.572500", "180651.062500", "180652.552500", "180654.042500", "180655.532500", "180657.022500", "180658.512500", "180700.002500", "180701.492500", "180702.982500", "180704.472500", "180705.962500", "180707.452500", "180708.942500", "180710.432500", "180711.922500", "180713.412500", "180714.902500", "180716.392500", "180717.882500", "180719.372500", "180720.862500", "180722.352500", "180723.842500", "180725.332500", "180726.822500", "180728.312500", "180729.802500", "180731.292500", "180732.782500", "180734.272500", "180735.762500", "180737.252500", "180738.742500", "180740.232500", "180741.722500", "180743.212500", "180744.702500", "180746.192500", "180747.682500", "180749.172500", "180750.662500", "180752.152500", "180753.642500", "180755.132500", "180756.622500", "180758.112500", "180759.602500", "180801.092500", "180802.582500", "180804.072500", "180805.562500", "180807.052500", "180808.542500", "180810.032500", "180811.522500", "180813.012500", "180814.502500", "180815.992500", "180817.482500", "180818.972500", "180820.462500", "180821.952500", "180823.442500", "180824.932500", "180826.422500", "180827.912500", "180829.402500", "180830.892500", "180832.382500", "180833.872500", "180835.362500", "180836.852500", "180838.342500", "180839.832500", "180841.322500", "180842.812500", "180844.302500", "180845.792500", "180847.282500", "180848.772500", "180850.262500", "180851.752500", "180853.242500", "180854.732500", "180856.222500", "180857.712500", "180859.202500", "180900.692500", "180902.182500", "180903.672500", "180905.162500", "180906.652500", "180908.142500", "180909.632500", "180911.122500", "180912.612500", "180914.102500", "180915.592500", "180917.082500", "180918.572500", "180920.062500", "180921.552500", "180923.042500", "180924.532500", "180926.022500", "180927.512500", "180929.002500", "180930.492500", "180931.982500", "180933.472500", "180934.962500", "180936.452500", "180937.942500", "180939.432500", "180940.922500", "180942.412500", "180943.902500", "180945.392500", "180946.882500", "180948.372500", "180949.862500", "180951.352500", "180952.842500", "180954.332500", "180955.822500", "180957.312500", "180958.802500", "181000.292500", "181001.782500", "181003.272500", "181004.762500", "181006.252500", "181007.742500", "181009.232500", "181010.722500", "181012.212500", "181013.702500", "181015.192500", "181016.682500", "181018.172500", "181019.662500", "181021.152500", "181022.642500", "181024.132500", "181025.622500", "181027.112500", "181028.602500", "181030.092500", "181031.582500", "181033.072500", "181034.562500", "181036.052500", "181037.542500", "181039.032500", "181040.522500", "181042.012500", "181043.502500", "181044.992500", "181046.482500", "181047.972500", "181049.462500", "181050.952500", "181052.442500", "181053.932500", "181055.422500", "181056.912500", "181058.402500", "181059.892500", "181101.382500", "181102.872500", "181104.362500", "181105.852500", "181107.342500", "181108.832500", "181110.322500", "181111.812500", "181113.302500", "181114.792500", "181116.282500", "181117.772500", "181119.262500", "181120.752500", "181122.242500", "181123.732500", "181125.222500", "181126.712500", "181128.202500", "181129.692500", "181131.182500", "181132.672500", "181134.162500", "181135.652500", "181137.142500", "181138.632500", "181140.122500", "181141.612500", "181143.102500", "181144.592500", "181146.082500", "181147.572500", "181149.062500", "181150.552500", "181152.042500", "181153.532500", "181155.022500", "181156.512500", "181158.002500", "181159.492500", "181200.982500", "181202.472500", "181203.962500", "181205.452500", "181206.942500", "181208.432500", "181209.922500", "181211.412500", "181212.902500", "181214.392500", "181215.882500", "181217.372500", "181218.862500", "181220.352500", "181221.842500", "181223.332500", "181224.822500", "181226.312500", "181227.802500", "181229.292500", "181230.782500", "181232.272500", "181233.762500", "181235.252500", "181236.742500", "181238.232500", "181239.722500", "181241.212500", "181242.702500", "181244.192500", "181245.682500", "181247.172500", "181248.662500", "181250.152500", "181251.642500", "181253.132500", "181254.622500", "181256.112500", "181257.602500", "181259.092500", "181300.582500", "181302.072500", "181303.562500", "181305.052500", "181306.542500", "181308.032500", "181309.522500", "181311.012500", "181312.502500", "181313.992500", "181315.482500", "181316.972500", "181318.462500", "181319.952500", "181321.442500", "181322.932500", "181324.422500", "181325.912500", "181327.402500", "181328.892500", "181330.382500", "181331.872500", "181333.362500", "181334.852500", "181336.342500", "181337.832500", "181339.322500", "181340.812500", "181342.302500", "181343.792500", "181345.282500", "181346.772500", "181348.262500", "181349.752500", "181351.242500", "181352.732500", "181354.222500", "181355.712500", "181357.202500", "181358.692500", "181400.182500", "181401.672500", "181403.162500", "181404.652500", "181406.142500", "181407.632500", "181409.122500", "181410.612500", "181412.102500", "181413.592500", "181415.082500", "181416.572500", "181418.062500", "181419.552500", "181421.042500", "181422.532500", "181424.022500", "181425.512500", "181427.002500", "181428.492500", "181429.982500", "181431.472500", "181432.962500", "181434.452500", "181435.942500", "181437.432500", "181438.922500", "181440.412500", "181441.902500", "181443.392500", "181444.882500", "181446.372500", "181447.862500", "181449.352500", "181450.842500", "181452.332500", "181453.822500", "181455.312500", "181456.802500", "181458.292500", "181459.782500", "181501.272500", "181502.762500", "181504.252500", "181505.742500", "181507.232500", "181508.722500", "181510.212500", "181511.702500", "181513.192500", "181514.682500", "181516.172500", "181517.662500", "181519.152500", "181520.642500", "181522.132500", "181523.622500", "181525.112500", "181526.602500", "181528.092500", "181529.582500", "181531.072500", "181532.562500", "181534.052500", "181535.542500", "181537.032500", "181538.522500", "181540.012500", "181541.502500", "181542.992500", "181544.482500", "181545.972500", "181547.462500", "181548.952500", "181550.442500", "181551.932500", "181553.422500", "181554.912500", "181556.402500", "181557.892500", "181559.382500", "181600.872500", "181602.362500", "181603.852500", "181605.342500", "181606.832500", "181608.322500", "181609.812500", "181611.302500", "181612.792500", "181614.282500", "181615.772500", "181617.262500", "181618.752500", "181620.242500", "181621.732500", "181623.222500", "181624.712500", "181626.202500", "181627.692500", "181629.182500", "181630.672500", "181632.162500", "181633.652500", "181635.142500", "181636.632500", "181638.122500", "181639.612500", "181641.102500", "181642.592500", "181644.082500", "181645.572500", "181647.062500", "181648.552500", "181650.042500", "181651.532500", "181653.022500", "181654.512500", "181656.002500", "181657.492500", "181658.982500", "181700.472500", "181701.962500", "181703.452500", "181704.942500", "181706.432500", "181707.922500", "181709.412500", "181710.902500", "181712.392500", "181713.882500", "181715.372500", "181716.862500", "181718.352500", "181719.842500", "181721.332500", "181722.822500", "181724.312500", "181725.802500", "181727.292500", "181728.782500", "181730.272500", "181731.762500", "181733.252500", "181734.742500", "181736.232500", "181737.722500", "181739.212500", "181740.702500", "181742.192500", "181743.682500", "181745.172500", "181746.662500"],
      "ContentTime": ["180552.158000", "180552.161000", "180552.164000", "180552.167000", "180552.170000", "180552.180000", "180552.183000", "180552.186000", "180552.189000", "180552.192000", "180552.195000", "180552.197000", "180552.209000", "180552.212000", "180552.218000", "180552.221000", "180552.224000", "180552.227000", "180552.230000", "180552.233000", "180552.235000", "180552.238000", "180552.241000", "180552.244000", "180552.247000", "180552.250000", "180552.253000", "180552.256000", "180552.259000", "180552.262000", "180552.265000", "180552.267000", "180612.128000", "180612.131000", "180612.134000", "180612.137000", "180612.140000", "180612.142000", "180612.145000", "180612.148000", "180612.151000", "180612.154000", "180612.157000", "180612.160000", "180612.163000", "180612.165000", "180612.168000", "180612.171000", "180612.174000", "180612.177000", "180612.180000", "180612.183000", "180632.128000", "180632.131000", "180632.134000", "180632.137000", "180632.140000", "180632.143000", "180632.145000", "180632.148000", "180632.151000", "180632.154000", "180632.157000", "180632.160000", "180632.162000", "180632.165000", "180632.168000", "180632.171000", "180632.174000", "180632.177000", "180632.180000", "180632.183000", "180652.127000", "180652.130000", "180652.134000", "180652.137000", "180652.140000", "180652.143000", "180652.145000", "180652.149000", "180652.151000", "180652.163000", "180652.166000", "180652.169000", "180652.172000", "180652.175000", "180652.178000", "180652.181000", "180652.184000", "180652.187000", "180652.190000", "180652.193000", "180732.127000", "180732.130000", "180732.133000", "180732.136000", "180732.139000", "180732.142000", "180732.145000", "180732.147000", "180732.150000", "180732.153000", "180732.156000", "180732.159000", "180732.162000", "180732.165000", "180732.168000", "180732.176000", "180732.179000", "180732.182000", "180732.184000", "180732.187000", "180732.190000", "180732.193000", "180732.196000", "180732.199000", "180732.202000", "180732.205000", "180732.207000", "180732.210000", "180732.213000", "180732.216000", "180732.219000", "180812.127000", "180812.130000", "180812.133000", "180812.141000", "180812.144000", "180812.147000", "180812.150000", "180812.153000", "180812.156000", "180812.159000", "180812.162000", "180812.165000", "180812.168000", "180812.171000", "180812.173000", "180812.176000", "180812.179000", "180812.182000", "180812.185000", "180812.188000", "180812.191000", "180812.194000", "180812.196000", "180812.199000", "180812.202000", "180812.205000", "180812.208000", "180852.128000", "180852.131000", "180852.134000", "180852.137000", "180852.140000", "180852.143000", "180852.146000", "180852.149000", "180852.153000", "180852.156000", "180852.158000", "180852.161000", "180852.164000", "180852.167000", "180852.170000", "180852.173000", "180852.176000", "180852.179000", "180852.182000", "180852.185000", "180852.187000", "180852.190000", "180852.193000", "180852.196000", "180852.199000", "180852.209000", "180932.127000", "180932.130000", "180932.133000", "180932.136000", "180932.139000", "180932.142000", "180932.144000", "180932.147000", "180932.150000", "180932.153000", "180932.156000", "180932.159000", "180932.162000", "180932.165000", "180932.168000", "180932.171000", "180932.173000", "180932.176000", "180932.179000", "180932.182000", "180932.185000", "180932.188000", "180932.191000", "180932.194000", "180932.197000", "180932.199000", "180932.202000", "181012.127000", "181012.130000", "181012.133000", "181012.136000", "181012.139000", "181012.142000", "181012.145000", "181012.148000", "181012.151000", "181012.153000", "181012.156000", "181012.159000", "181012.162000", "181012.165000", "181012.168000", "181012.171000", "181012.174000", "181012.177000", "181012.180000", "181012.182000", "181012.185000", "181012.188000", "181012.191000", "181012.194000", "181012.206000", "181012.209000", "181012.212000", "181052.128000", "181052.131000", "181052.134000", "181052.137000", "181052.140000", "181052.143000", "181052.146000", "181052.148000", "181052.151000", "181052.154000", "181052.157000", "181052.160000", "181052.163000", "181052.166000", "181052.169000", "181052.172000", "181052.174000", "181052.177000", "181052.180000", "181052.183000", "181052.186000", "181052.189000", "181052.192000", "181052.195000", "181052.198000", "181052.201000", "181052.204000", "181132.127000", "181132.130000", "181132.133000", "181132.136000", "181132.139000", "181132.142000", "181132.145000", "181132.148000", "181132.150000", "181132.153000", "181132.156000", "181132.159000", "181132.162000", "181132.165000", "181132.168000", "181132.171000", "181132.174000", "181132.176000", "181132.179000", "181132.182000", "181132.185000", "181132.188000", "181132.191000", "181132.194000", "181132.197000", "181132.200000", "181132.202000", "181212.127000", "181212.130000", "181212.133000", "181212.136000", "181212.139000", "181212.142000", "181212.145000", "181212.147000", "181212.150000", "181212.153000", "181212.156000", "181212.159000", "181212.162000", "181212.165000", "181212.168000", "181212.171000", "181212.174000", "181212.177000", "181212.179000", "181212.182000", "181212.185000", "181212.188000", "181212.191000", "181212.194000", "181212.197000", "181212.200000", "181212.202000", "181252.127000", "181252.130000", "181252.133000", "181252.136000", "181252.139000", "181252.142000", "181252.144000", "181252.147000", "181252.150000", "181252.153000", "181252.156000", "181252.159000", "181252.162000", "181252.165000", "181252.168000", "181252.171000", "181252.173000", "181252.176000", "181252.179000", "181252.182000", "181252.185000", "181252.188000", "181252.191000", "181252.194000", "181252.197000", "181252.199000", "181252.202000", "181332.128000", "181332.131000", "181332.134000", "181332.137000", "181332.140000", "181332.143000", "181332.146000", "181332.148000", "181332.151000", "181332.154000", "181332.157000", "181332.160000", "181332.163000", "181332.166000", "181332.169000", "181332.172000", "181332.175000", "181332.177000", "181332.180000", "181332.183000", "181332.186000", "181332.189000", "181332.192000", "181332.195000", "181332.198000", "181332.200000", "181412.127000", "181412.130000", "181412.133000", "181412.136000", "181412.139000", "181412.142000", "181412.145000", "181412.148000", "181412.151000", "181412.153000", "181412.156000", "181412.159000", "181412.162000", "181412.165000", "181412.168000", "181412.171000", "181412.174000", "181412.177000", "181412.180000", "181412.182000", "181412.185000", "181412.188000", "181412.191000", "181412.194000", "181412.197000", "181412.200000", "181412.203000", "181452.127000", "181452.130000", "181452.133000", "181452.136000", "181452.139000", "181452.142000", "181452.145000", "181452.147000", "181452.150000", "181452.153000", "181452.156000", "181452.172000", "181452.175000", "181452.178000", "181452.181000", "181452.184000", "181452.186000", "181452.189000", "181452.192000", "181452.195000", "181452.198000", "181452.201000", "181452.204000", "181452.207000", "181452.210000", "181452.212000", "181452.215000", "181532.128000", "181532.131000", "181532.134000", "181532.137000", "181532.147000", "181532.150000", "181532.153000", "181532.156000", "181532.159000", "181532.162000", "181532.165000", "181532.168000", "181532.171000", "181532.174000", "181532.177000", "181532.179000", "181532.182000", "181532.185000", "181532.188000", "181532.191000", "181532.194000", "181532.197000", "181532.200000", "181532.202000", "181532.205000", "181532.208000", "181532.211000", "181612.127000", "181612.130000", "181612.133000", "181612.136000", "181612.139000", "181612.142000", "181612.145000", "181612.148000", "181612.150000", "181612.153000", "181612.156000", "181612.159000", "181612.162000", "181612.165000", "181612.168000", "181612.171000", "181612.174000", "181612.177000", "181612.180000", "181612.183000", "181612.186000", "181612.189000", "181612.191000", "181612.194000", "181612.197000", "181612.200000", "181612.207000", "181652.127000", "181652.130000", "181652.133000", "181652.136000", "181652.139000", "181652.142000", "181652.145000", "181652.147000", "181652.150000", "181652.153000", "181652.156000", "181652.159000", "181652.162000", "181652.165000", "181652.168000", "181652.171000", "181652.174000", "181652.176000", "181652.179000", "181652.182000", "181652.185000", "181652.188000", "181652.191000", "181652.194000", "181652.197000", "181652.200000", "181652.203000", "181732.127000", "181732.130000", "181732.133000", "181732.136000", "181732.139000", "181732.142000", "181732.145000", "181732.148000", "181732.151000", "181732.154000", "181732.157000", "181732.159000", "181732.162000", "181732.165000", "181732.168000", "181732.171000", "181732.174000", "181732.177000", "181732.180000", "181732.183000", "181732.186000", "181732.188000", "181732.191000", "181732.194000", "181732.197000", "181732.200000", "181748.684000", "181748.687000", "181748.690000", "181748.693000", "181748.696000", "181748.699000", "181748.702000", "181748.705000", "181748.708000", "181748.711000", "181748.714000", "181748.718000"],
