{
  "AcquisitionMatrixPE": 104,
  "AcquisitionNumber": 1,
  "AcquisitionTime": "11:26:45.087500",
  "BandwidthPerPixelPhaseEncode": 17.17,
  "BaseResolution": 104,
  "BodyPartExamined": "BRAIN",
  "CoilString": "HC1-7;NC1_2",
  "ConsistencyInfo": "N4_VE11C_LATEST_20160120",
  "ConversionSoftware": "dcm2niix",
  "ConversionSoftwareVersion": "v1.0.20190720  (JP2:OpenJPEG) GCC7.3.0",
  "DerivedVendorReportedEchoSpacing": 0.000560011,
  "DeviceSerialNumber": "167006",
  "DwellTime": 2.1e-06,
  "EchoTime": 0.037,
  "EchoTrainLength": 104,
  "EffectiveEchoSpacing": 0.000560011,
  "FlipAngle": 52,
  "ImageComments": "Unaliased_MB4_PE3_LB",
  "ImageOrientationPatientDICOM": [0.998958, -0.0456076, 0.00168447, 0.0401222, 0.860023, -0.508676],
  "ImageType": [
    "ORIGINAL",
    "PRIMARY",
    "M",
    "MB",
    "ND",
    "MOSAIC"
],
  "ImagingFrequency": 123.259,
  "InPlanePhaseEncodingDirectionDICOM": "COL",
  "InstitutionAddress": "Chemin_Queen-Mary_4565_Montreal_District_CA_H3W_1W5",
  "InstitutionName": "IUGM",
  "InstitutionalDepartmentName": "Department",
  "MRAcquisitionType": "2D",
  "MagneticFieldStrength": 3,
  "Manufacturer": "Siemens",
  "ManufacturersModelName": "Prisma_fit",
  "Modality": "MR",
  "MultibandAccelerationFactor": 4,
  "PartialFourier": 1,
  "PatientPosition": "HFS",
  "PercentPhaseFOV": 100,
  "PhaseEncodingDirection": "j",
  "PhaseEncodingSteps": 104,
  "PhaseResolution": 1,
  "PixelBandwidth": 2290,
  "ProcedureStepDescription": "video_friends",
  "ProtocolName": "func_task-s01e06a",
  "PulseSequenceDetails": "%CustomerSeq%_cmrr_mbep2d_bold",
  "ReceiveCoilActiveElements": "HC1-7;NC1,2",
  "ReceiveCoilName": "HeadNeck_64",
  "ReconMatrixPE": 104,
  "RepetitionTime": 1.49,
  "SAR": 0.0363104,
  "ScanOptions": "FS",
  "ScanningSequence": "EP",
  "SequenceName": "epfid2d1_104",
  "SequenceVariant": "SK_SS",
  "SeriesDescription": "func_task-s01e06a",
  "SeriesNumber": 16,
  "ShimSetting": [622, -7196, -8884, 411, -26, -126, 36, -22],
  "SliceThickness": 2,
  "SliceTiming": [0, 0.7825, 0.0975, 0.88, 0.195, 0.9775, 0.2925, 1.0775, 0.39, 1.175, 0.4875, 1.2725, 0.5875, 1.37, 0.685, 0, 0.7825, 0.0975, 0.88, 0.195, 0.9775, 0.2925, 1.0775, 0.39, 1.175, 0.4875, 1.2725, 0.5875, 1.37, 0.685, 0, 0.7825, 0.0975, 0.88, 0.195, 0.9775, 0.2925, 1.0775, 0.39, 1.175, 0.4875, 1.2725, 0.5875, 1.37, 0.685, 0, 0.7825, 0.0975, 0.88, 0.195, 0.9775, 0.2925, 1.0775, 0.39, 1.175, 0.4875, 1.2725, 0.5875, 1.37, 0.685],
  "SoftwareVersions": "syngo_MR_E11",
  "SpacingBetweenSlices": 2,
  "StationName": "MRC35049",
  "TaskName": "friends",
  "TotalReadoutTime": 0.0576811,
  "TxRefAmp": 250.712,
  "WipMemBlock": "151edc54-e386-4c2e-9a72-1dc722dbfdb3||Sequence: R016 ve11c/master r/e634e98; Dec 19 2017 11:00:25 by eja",
  "dcmmeta_affine": [
    [-1.9979159832000732, 0.08024448901414871, -0.04350166395306587, 99.63345336914062],
    [0.09121526032686234, 1.7200450897216797, -1.0164273977279663, -63.13176345825195],
    [0.0033689371775835752, 1.0173522233963013, 1.7219126224517822, -105.20540618896484],
    [0.0, 0.0, 0.0, 1.0]
],
  "dcmmeta_reorient_transform": [
    [0.0, -1.0, 0.0, 103.0],
    [1.0, 0.0, 0.0, 0.0],
    [0.0, 0.0, 1.0, 0.0],
    [0.0, 0.0, 0.0, 1.0]
],
  "dcmmeta_shape": [104, 104, 60, 592],
  "dcmmeta_slice_dim": 2,
  "dcmmeta_version": 0.6,
  "global": {
    "const": {
      "AcquisitionMatrix": [104, 0, 0, 104],
      "AngioFlag": "N",
      "BitsAllocated": 16,
      "BitsStored": 16,
      "BodyPartExamined": "BRAIN",
      "Columns": 832,
      "EchoNumbers": 1,
      "EchoTime": 37.0,
      "EchoTrainLength": 104,
      "FlipAngle": 52.0,
      "HighBit": 15,
      "ImageOrientationPatient": [0.99895801051243, -0.0456076287337, 0.00168446856247, 0.04012224533256, 0.86002255560179, -0.5086761339847],
      "ImagePositionPatient": [-864.34906454468, -706.9269479445, 368.67180958883],
      "ImageType": [
        "ORIGINAL",
        "PRIMARY",
        "M",
        "MB",
        "ND",
        "MOSAIC"
],
      "ImagedNucleus": "1H",
      "ImagingFrequency": 123.259203,
      "InPlanePhaseEncodingDirection": "COL",
      "MRAcquisitionType": "2D",
      "MagneticFieldStrength": 3.0,
      "Manufacturer": "SIEMENS",
      "ManufacturerModelName": "Prisma_fit",
      "Modality": "MR",
      "NumberOfAverages": 1.0,
      "NumberOfPhaseEncodingSteps": 104,
      "PercentPhaseFieldOfView": 100.0,
      "PercentSampling": 100.0,
      "PerformedProcedureStepStartTime": "102317.910000",
      "PhotometricInterpretation": "MONOCHROME2",
      "PixelBandwidth": 2290.0,
      "PixelRepresentation": 0,
      "PixelSpacing": [2.0, 2.0],
      "ProtocolName": "func_task-s01e06a",
      "RepetitionTime": 1490.0,
      "Rows": 832,
      "SAR": 0.03631044793912,
      "SamplesPerPixel": 1,
      "ScanOptions": "FS",
      "ScanningSequence": "EP",
      "SequenceName": "epfid2d1_104",
      "SequenceVariant": [
        "SK",
        "SS"
],
      "SeriesDescription": "func_task-s01e06a",
      "SeriesNumber": 16,
      "SeriesTime": "112808.029000",
      "SliceLocation": -60.659941154881,
      "SliceThickness": 2.0,
      "SmallestImagePixelValue": 0,
      "SoftwareVersions": "syngo MR E11",
      "SpacingBetweenSlices": 1.9999999850799,
      "SpecificCharacterSet": "ISO_IR 100",
      "StudyID": "1",
      "StudyTime": "102317.838000",
      "TransmitCoilName": "Body",
      "VariableFlipAngleFlag": "N",
      "WindowCenterWidthExplanation": "Algo1",
      "dBdt": 0.0},
    "slices": {}
  },
  "time": {
    "samples": {
      "AcquisitionNumber": [1, 2, 3, 4, 5, 6, 7, 8, 9, 10, 11, 12, 13, 14, 15, 16, 17, 18, 19, 20, 21, 22, 23, 24, 25, 26, 27, 28, 29, 30, 31, 32, 33, 34, 35, 36, 37, 38, 39, 40, 41, 42, 43, 44, 45, 46, 47, 48, 49, 50, 51, 52, 53, 54, 55, 56, 57, 58, 59, 60, 61, 62, 63, 64, 65, 66, 67, 68, 69, 70, 71, 72, 73, 74, 75, 76, 77, 78, 79, 80, 81, 82, 83, 84, 85, 86, 87, 88, 89, 90, 91, 92, 93, 94, 95, 96, 97, 98, 99, 100, 101, 102, 103, 104, 105, 106, 107, 108, 109, 110, 111, 112, 113, 114, 115, 116, 117, 118, 119, 120, 121, 122, 123, 124, 125, 126, 127, 128, 129, 130, 131, 132, 133, 134, 135, 136, 137, 138, 139, 140, 141, 142, 143, 144, 145, 146, 147, 148, 149, 150, 151, 152, 153, 154, 155, 156, 157, 158, 159, 160, 161, 162, 163, 164, 165, 166, 167, 168, 169, 170, 171, 172, 173, 174, 175, 176, 177, 178, 179, 180, 181, 182, 183, 184, 185, 186, 187, 188, 189, 190, 191, 192, 193, 194, 195, 196, 197, 198, 199, 200, 201, 202, 203, 204, 205, 206, 207, 208, 209, 210, 211, 212, 213, 214, 215, 216, 217, 218, 219, 220, 221, 222, 223, 224, 225, 226, 227, 228, 229, 230, 231, 232, 233, 234, 235, 236, 237, 238, 239, 240, 241, 242, 243, 244, 245, 246, 247, 248, 249, 250, 251, 252, 253, 254, 255, 256, 257, 258, 259, 260, 261, 262, 263, 264, 265, 266, 267, 268, 269, 270, 271, 272, 273, 274, 275, 276, 277, 278, 279, 280, 281, 282, 283, 284, 285, 286, 287, 288, 289, 290, 291, 292, 293, 294, 295, 296, 297, 298, 299, 300, 301, 302, 303, 304, 305, 306, 307, 308, 309, 310, 311, 312, 313, 314, 315, 316, 317, 318, 319, 320, 321, 322, 323, 324, 325, 326, 327, 328, 329, 330, 331, 332, 333, 334, 335, 336, 337, 338, 339, 340, 341, 342, 343, 344, 345, 346, 347, 348, 349, 350, 351, 352, 353, 354, 355, 356, 357, 358, 359, 360, 361, 362, 363, 364, 365, 366, 367, 368, 369, 370, 371, 372, 373, 374, 375, 376, 377, 378, 379, 380, 381, 382, 383, 384, 385, 386, 387, 388, 389, 390, 391, 392, 393, 394, 395, 396, 397, 398, 399, 400, 401, 402, 403, 404, 405, 406, 407, 408, 409, 410, 411, 412, 413, 414, 415, 416, 417, 418, 419, 420, 421, 422, 423, 424, 425, 426, 427, 428, 429, 430, 431, 432, 433, 434, 435, 436, 437, 438, 439, 440, 441, 442, 443, 444, 445, 446, 447, 448, 449, 450, 451, 452, 453, 454, 455, 456, 457, 458, 459, 460, 461, 462, 463, 464, 465, 466, 467, 468, 469, 470, 471, 472, 473, 474, 475, 476, 477, 478, 479, 480, 481, 482, 483, 484, 485, 486, 487, 488, 489, 490, 491, 492, 493, 494, 495, 496, 497, 498, 499, 500, 501, 502, 503, 504, 505, 506, 507, 508, 509, 510, 511, 512, 513, 514, 515, 516, 517, 518, 519, 520, 521, 522, 523, 524, 525, 526, 527, 528, 529, 530, 531, 532, 533, 534, 535, 536, 537, 538, 539, 540, 541, 542, 543, 544, 545, 546, 547, 548, 549, 550, 551, 552, 553, 554, 555, 556, 557, 558, 559, 560, 561, 562, 563, 564, 565, 566, 567, 568, 569, 570, 571, 572, 573, 574, 575, 576, 577, 578, 579, 580, 581, 582, 583, 584, 585, 586, 587, 588, 589, 590, 591, 592],
      "AcquisitionTime": ["112645.087500", "112646.577500", "112648.067500", "112649.557500", "112651.047500", "112652.537500", "112654.027500", "112655.517500", "112657.007500", "112658.497500", "112659.987500", "112701.477500", "112702.967500", "112704.457500", "112705.947500", "112707.437500", "112708.927500", "112710.417500", "112711.907500", "112713.397500", "112714.887500", "112716.377500", "112717.867500", "112719.357500", "112720.847500", "112722.337500", "112723.827500", "112725.317500", "112726.807500", "112728.297500", "112729.787500", "112731.277500", "112732.767500", "112734.257500", "112735.747500", "112737.237500", "112738.727500", "112740.217500", "112741.707500", "112743.197500", "112744.687500", "112746.177500", "112747.667500", "112749.157500", "112750.647500", "112752.137500", "112753.627500", "112755.117500", "112756.607500", "112758.097500", "112759.587500", "112801.077500", "112802.567500", "112804.057500", "112805.547500", "112807.037500", "112808.527500", "112810.017500", "112811.507500", "112812.997500", "112814.487500", "112815.977500", "112817.467500", "112818.957500", "112820.447500", "112821.937500", "112823.427500", "112824.917500", "112826.407500", "112827.897500", "112829.387500", "112830.877500", "112832.367500", "112833.857500", "112835.347500", "112836.837500", "112838.327500", "112839.817500", "112841.307500", "112842.797500", "112844.287500", "112845.777500", "112847.267500", "112848.757500", "112850.247500", "112851.737500", "112853.227500", "112854.717500", "112856.207500", "112857.697500", "112859.187500", "112900.677500", "112902.167500", "112903.657500", "112905.147500", "112906.637500", "112908.127500", "112909.617500", "112911.107500", "112912.597500", "112914.087500", "112915.577500", "112917.067500", "112918.557500", "112920.047500", "112921.537500", "112923.027500", "112924.517500", "112926.007500", "112927.497500", "112928.987500", "112930.477500", "112931.967500", "112933.457500", "112934.947500", "112936.437500", "112937.927500", "112939.417500", "112940.907500", "112942.397500", "112943.887500", "112945.377500", "112946.867500", "112948.357500", "112949.847500", "112951.337500", "112952.827500", "112954.317500", "112955.807500", "112957.297500", "112958.787500", "113000.277500", "113001.767500", "113003.257500", "113004.747500", "113006.237500", "113007.727500", "113009.217500", "113010.707500", "113012.197500", "113013.687500", "113015.177500", "113016.667500", "113018.157500", "113019.647500", "113021.137500", "113022.627500", "113024.117500", "113025.607500", "113027.097500", "113028.587500", "113030.077500", "113031.567500", "113033.057500", "113034.547500", "113036.037500", "113037.527500", "113039.017500", "113040.507500", "113041.997500", "113043.487500", "113044.977500", "113046.467500", "113047.957500", "113049.447500", "113050.937500", "113052.427500", "113053.917500", "113055.407500", "113056.897500", "113058.387500", "113059.877500", "113101.367500", "113102.857500", "113104.347500", "113105.837500", "113107.327500", "113108.817500", "113110.307500", "113111.797500", "113113.287500", "113114.777500", "113116.267500", "113117.757500", "113119.247500", "113120.737500", "113122.227500", "113123.717500", "113125.207500", "113126.697500", "113128.187500", "113129.677500", "113131.167500", "113132.657500", "113134.147500", "113135.637500", "113137.127500", "113138.617500", "113140.107500", "113141.597500", "113143.087500", "113144.577500", "113146.067500", "113147.557500", "113149.047500", "113150.537500", "113152.027500", "113153.517500", "113155.007500", "113156.497500", "113157.987500", "113159.477500", "113200.967500", "113202.457500", "113203.947500", "113205.437500", "113206.927500", "113208.417500", "113209.907500", "113211.397500", "113212.887500", "113214.377500", "113215.867500", "113217.357500", "113218.847500", "113220.337500", "113221.827500", "113223.317500", "113224.807500", "113226.297500", "113227.787500", "113229.277500", "113230.767500", "113232.257500", "113233.747500", "113235.237500", "113236.727500", "113238.217500", "113239.707500", "113241.197500", "113242.687500", "113244.177500", "113245.667500", "113247.157500", "113248.647500", "113250.137500", "113251.627500", "113253.117500", "113254.607500", "113256.097500", "113257.587500", "113259.077500", "113300.567500", "113302.057500", "113303.547500", "113305.037500", "113306.527500", "113308.017500", "113309.507500", "113310.997500", "113312.487500", "113313.977500", "113315.467500", "113316.957500", "113318.447500", "113319.937500", "113321.427500", "113322.917500", "113324.407500", "113325.897500", "113327.387500", "113328.877500", "113330.367500", "113331.857500", "113333.347500", "113334.837500", "113336.327500", "113337.817500", "113339.307500", "113340.797500", "113342.287500", "113343.777500", "113345.267500", "113346.757500", "113348.247500", "113349.737500", "113351.227500", "113352.717500", "113354.207500", "113355.697500", "113357.187500", "113358.677500", "113400.167500", "113401.657500", "113403.147500", "113404.637500", "113406.127500", "113407.617500", "113409.107500", "113410.597500", "113412.087500", "113413.577500", "113415.067500", "113416.557500", "113418.047500", "113419.537500", "113421.027500", "113422.517500", "113424.007500", "113425.497500", "113426.987500", "113428.477500", "113429.967500", "113431.457500", "113432.947500", "113434.437500", "113435.927500", "113437.417500", "113438.907500", "113440.397500", "113441.887500", "113443.377500", "113444.867500", "113446.357500", "113447.847500", "113449.337500", "113450.827500", "113452.317500", "113453.807500", "113455.297500", "113456.787500", "113458.277500", "113459.767500", "113501.257500", "113502.747500", "113504.237500", "113505.727500", "113507.217500", "113508.707500", "113510.197500", "113511.687500", "113513.177500", "113514.667500", "113516.157500", "113517.647500", "113519.137500", "113520.627500", "113522.117500", "113523.607500", "113525.097500", "113526.587500", "113528.077500", "113529.567500", "113531.057500", "113532.547500", "113534.037500", "113535.527500", "113537.017500", "113538.507500", "113539.997500", "113541.487500", "113542.977500", "113544.467500", "113545.957500", "113547.447500", "113548.937500", "113550.427500", "113551.917500", "113553.407500", "113554.897500", "113556.387500", "113557.877500", "113559.367500", "113600.857500", "113602.347500", "113603.837500", "113605.327500", "113606.817500", "113608.307500", "113609.797500", "113611.287500", "113612.777500", "113614.267500", "113615.757500", "113617.247500", "113618.737500", "113620.227500", "113621.717500", "113623.207500", "113624.697500", "113626.187500", "113627.677500", "113629.167500", "113630.657500", "113632.147500", "113633.637500", "113635.127500", "113636.617500", "113638.107500", "113639.597500", "113641.087500", "113642.577500", "113644.067500", "113645.557500", "113647.047500", "113648.537500", "113650.027500", "113651.517500", "113653.007500", "113654.497500", "113655.987500", "113657.477500", "113658.967500", "113700.457500", "113701.947500", "113703.437500", "113704.927500", "113706.417500", "113707.907500", "113709.397500", "113710.887500", "113712.377500", "113713.867500", "113715.357500", "113716.847500", "113718.337500", "113719.827500", "113721.317500", "113722.807500", "113724.297500", "113725.787500", "113727.277500", "113728.767500", "113730.257500", "113731.747500", "113733.237500", "113734.727500", "113736.217500", "113737.707500", "113739.197500", "113740.687500", "113742.177500", "113743.667500", "113745.157500", "113746.647500", "113748.137500", "113749.627500", "113751.117500", "113752.607500", "113754.097500", "113755.587500", "113757.077500", "113758.567500", "113800.057500", "113801.547500", "113803.037500", "113804.527500", "113806.017500", "113807.507500", "113808.997500", "113810.487500", "113811.977500", "113813.467500", "113814.957500", "113816.447500", "113817.937500", "113819.427500", "113820.917500", "113822.407500", "113823.897500", "113825.387500", "113826.877500", "113828.367500", "113829.857500", "113831.347500", "113832.837500", "113834.327500", "113835.817500", "113837.307500", "113838.797500", "113840.287500", "113841.777500", "113843.267500", "113844.757500", "113846.247500", "113847.737500", "113849.227500", "113850.717500", "113852.207500", "113853.697500", "113855.187500", "113856.677500", "113858.167500", "113859.657500", "113901.147500", "113902.637500", "113904.127500", "113905.617500", "113907.107500", "113908.597500", "113910.087500", "113911.577500", "113913.067500", "113914.557500", "113916.047500", "113917.537500", "113919.027500", "113920.517500", "113922.007500", "113923.497500", "113924.987500", "113926.477500", "113927.967500", "113929.457500", "113930.947500", "113932.437500", "113933.927500", "113935.417500", "113936.907500", "113938.397500", "113939.887500", "113941.377500", "113942.867500", "113944.357500", "113945.847500", "113947.337500", "113948.827500", "113950.317500", "113951.807500", "113953.297500", "113954.787500", "113956.277500", "113957.767500", "113959.257500", "114000.747500", "114002.237500", "114003.727500", "114005.217500", "114006.707500", "114008.197500", "114009.687500", "114011.177500", "114012.667500", "114014.157500", "114015.647500", "114017.137500", "114018.627500", "114020.117500", "114021.607500", "114023.097500", "114024.587500", "114026.077500", "114027.567500", "114029.057500", "114030.547500", "114032.037500", "114033.527500", "114035.017500", "114036.507500", "114037.997500", "114039.487500", "114040.977500", "114042.467500", "114043.957500", "114045.447500", "114046.937500", "114048.427500", "114049.917500", "114051.407500", "114052.897500", "114054.387500", "114055.877500", "114057.367500", "114058.857500", "114100.347500", "114101.837500", "114103.327500", "114104.817500", "114106.307500", "114107.797500", "114109.287500", "114110.777500", "114112.267500", "114113.757500", "114115.247500", "114116.737500", "114118.227500", "114119.717500", "114121.207500", "114122.697500", "114124.187500", "114125.677500"],
      "ContentTime": ["112808.032000", "112808.043000", "112808.045000", "112808.048000", "112808.051000", "112808.054000", "112808.057000", "112808.059000", "112808.062000", "112808.065000", "112808.068000", "112808.071000", "112808.074000", "112808.076000", "112808.079000", "112808.082000", "112808.085000", "112808.088000", "112808.090000", "112808.093000", "112808.096000", "112808.099000", "112808.102000", "112808.105000", "112808.107000", "112808.110000", "112808.113000", "112808.116000", "112827.997000", "112828.001000", "112828.004000", "112828.007000", "112828.009000", "112828.012000", "112828.015000", "112828.027000", "112828.029000", "112828.032000", "112828.035000", "112828.038000", "112828.041000", "112828.043000", "112828.046000", "112828.049000", "112828.052000", "112828.055000", "112828.057000", "112828.060000", "112828.063000", "112847.996000", "112848.000000", "112848.011000", "112848.014000", "112848.016000", "112848.019000", "112848.022000", "112848.025000", "112848.028000", "112848.030000", "112848.033000", "112848.036000", "112848.039000", "112848.042000", "112848.044000", "112848.047000", "112848.050000", "112848.053000", "112848.056000", "112848.058000", "112907.996000", "112908.000000", "112908.003000", "112908.005000", "112908.008000", "112908.011000", "112908.014000", "112908.017000", "112908.020000", "112908.022000", "112908.025000", "112908.028000", "112908.031000", "112908.034000", "112908.036000", "112908.045000", "112908.048000", "112908.051000", "112908.053000", "112908.056000", "112927.996000", "112928.000000", "112928.003000", "112928.006000", "112928.008000", "112928.011000", "112928.014000", "112928.017000", "112928.019000", "112928.022000", "112928.025000", "112928.028000", "112928.031000", "112928.034000", "112928.036000", "112928.039000", "112928.042000", "112928.045000", "112928.048000", "112928.050000", "113007.997000", "113008.001000", "113008.004000", "113008.006000", "113008.009000", "113008.012000", "113008.015000", "113008.018000", "113008.021000", "113008.023000", "113008.027000", "113008.031000", "113008.034000", "113008.037000", "113008.040000", "113008.043000", "113008.046000", "113008.049000", "113008.052000", "113008.055000", "113008.058000", "113008.060000", "113008.063000", "113008.066000", "113008.069000", "113008.072000", "113047.996000", "113048.000000", "113048.003000", "113048.005000", "113048.008000", "113048.011000", "113048.014000", "113048.017000", "113048.019000", "113048.022000", "113048.025000", "113048.028000", "113048.031000", "113048.034000", "113048.036000", "113048.039000", "113048.042000", "113048.045000", "113048.048000", "113048.050000", "113048.053000", "113048.056000", "113048.059000", "113048.062000", "113048.064000", "113048.067000", "113048.070000", "113127.996000", "113128.000000", "113128.003000", "113128.005000", "113128.008000", "113128.011000", "113128.014000", "113128.017000", "113128.020000", "113128.023000", "113128.026000", "113128.028000", "113128.031000", "113128.034000", "113128.037000", "113128.039000", "113128.042000", "113128.045000", "113128.048000", "113128.051000", "113128.054000", "113128.056000", "113128.059000", "113128.062000", "113128.065000", "113128.068000", "113128.070000", "113207.996000", "113208.000000", "113208.003000", "113208.005000", "113208.008000", "113208.011000", "113208.014000", "113208.017000", "113208.020000", "113208.022000", "113208.025000", "113208.028000", "113208.031000", "113208.034000", "113208.037000", "113208.039000", "113208.042000", "113208.045000", "113208.048000", "113208.051000", "113208.053000", "113208.056000", "113208.059000", "113208.062000", "113208.065000", "113208.067000", "113208.070000", "113247.997000", "113248.001000", "113248.004000", "113248.006000", "113248.009000", "113248.012000", "113248.015000", "113248.018000", "113248.021000", "113248.023000", "113248.026000", "113248.029000", "113248.032000", "113248.035000", "113248.038000", "113248.040000", "113248.043000", "113248.046000", "113248.049000", "113248.052000", "113248.055000", "113248.057000", "113248.060000", "113248.063000", "113248.066000", "113248.069000", "113248.071000", "113327.996000", "113328.000000", "113328.003000", "113328.006000", "113328.008000", "113328.011000", "113328.014000", "113328.017000", "113328.020000", "113328.022000", "113328.025000", "113328.028000", "113328.031000", "113328.034000", "113328.036000", "113328.039000", "113328.042000", "113328.045000", "113328.048000", "113328.051000", "113328.053000", "113328.056000", "113328.059000", "113328.062000", "113328.065000", "113328.067000", "113328.070000", "113407.996000", "113408.000000", "113408.003000", "113408.006000", "113408.009000", "113408.011000", "113408.014000", "113408.017000", "113408.020000", "113408.022000", "113408.025000", "113408.028000", "113408.031000", "113408.034000", "113408.037000", "113408.039000", "113408.042000", "113408.045000", "113408.048000", "113408.051000", "113408.054000", "113408.056000", "113408.059000", "113408.062000", "113408.065000", "113408.068000", "113408.071000", "113447.997000", "113448.001000", "113448.004000", "113448.007000", "113448.009000", "113448.012000", "113448.015000", "113448.018000", "113448.021000", "113448.024000", "113448.027000", "113448.030000", "113448.033000", "113448.036000", "113448.039000", "113448.042000", "113448.044000", "113448.047000", "113448.050000", "113448.053000", "113448.056000", "113448.059000", "113448.061000", "113448.064000", "113448.067000", "113448.070000", "113527.996000", "113528.000000", "113528.003000", "113528.006000", "113528.008000", "113528.011000", "113528.014000", "113528.017000", "113528.020000", "113528.023000", "113528.025000", "113528.028000", "113528.031000", "113528.034000", "113528.037000", "113528.039000", "113528.042000", "113528.045000", "113528.048000", "113528.051000", "113528.054000", "113528.056000", "113528.059000", "113528.062000", "113528.065000", "113528.068000", "113528.070000", "113607.996000", "113608.000000", "113608.003000", "113608.006000", "113608.008000", "113608.011000", "113608.014000", "113608.017000", "113608.020000", "113608.023000", "113608.025000", "113608.028000", "113608.031000", "113608.034000", "113608.037000", "113608.040000", "113608.043000", "113608.045000", "113608.048000", "113608.051000", "113608.054000", "113608.057000", "113608.060000", "113608.063000", "113608.065000", "113608.068000", "113608.071000", "113647.996000", "113648.000000", "113648.003000", "113648.006000", "113648.008000", "113648.011000", "113648.014000", "113648.017000", "113648.020000", "113648.023000", "113648.026000", "113648.028000", "113648.031000", "113648.034000", "113648.037000", "113648.040000", "113648.043000", "113648.045000", "113648.048000", "113648.051000", "113648.054000", "113648.064000", "113648.067000", "113648.070000", "113648.073000", "113648.076000", "113648.078000", "113727.997000", "113728.001000", "113728.004000", "113728.007000", "113728.009000", "113728.012000", "113728.015000", "113728.018000", "113728.021000", "113728.024000", "113728.026000", "113728.029000", "113728.032000", "113728.035000", "113728.038000", "113728.041000", "113728.043000", "113728.046000", "113728.049000", "113728.052000", "113728.055000", "113728.058000", "113728.060000", "113728.063000", "113728.066000", "113728.069000", "113728.072000", "113807.996000", "113808.000000", "113808.003000", "113808.006000", "113808.008000", "113808.011000", "113808.014000", "113808.017000", "113808.020000", "113808.023000", "113808.025000", "113808.028000", "113808.031000", "113808.034000", "113808.037000", "113808.040000", "113808.043000", "113808.045000", "113808.048000", "113808.051000", "113808.054000", "113808.057000", "113808.059000", "113808.062000", "113808.065000", "113808.068000", "113808.071000", "113827.996000", "113828.000000", "113828.009000", "113828.012000", "113828.014000", "113828.017000", "113828.020000", "113828.023000", "113828.026000", "113828.029000", "113828.031000", "113828.034000", "113828.037000", "113907.996000", "113908.000000", "113908.003000", "113908.006000", "113908.008000", "113908.011000", "113908.014000", "113908.017000", "113908.020000", "113908.023000", "113908.025000", "113908.028000", "113908.031000", "113908.034000", "113908.037000", "113908.040000", "113908.043000", "113908.045000", "113908.048000", "113908.051000", "113908.054000", "113908.057000", "113908.060000", "113908.063000", "113908.065000", "113908.068000", "113908.071000", "113947.997000", "113948.001000", "113948.004000", "113948.007000", "113948.009000", "113948.012000", "113948.015000", "113948.018000", "113948.021000", "113948.024000", "113948.026000", "113948.029000", "113948.032000", "113948.035000", "113948.038000", "113948.041000", "113948.044000", "113948.046000", "113948.049000", "113948.052000", "113948.055000", "113948.058000", "113948.061000", "113948.063000", "113948.066000", "113948.069000", "113948.072000", "114027.996000", "114028.000000", "114028.003000", "114028.006000", "114028.009000", "114028.011000", "114028.014000", "114028.017000", "114028.020000", "114028.023000", "114028.026000", "114028.029000", "114028.031000", "114028.034000", "114028.037000", "114028.040000", "114028.043000", "114028.045000", "114028.048000", "114028.051000", "114028.054000", "114028.057000", "114028.060000", "114028.063000", "114028.065000", "114028.068000", "114028.071000", "114107.996000", "114108.000000", "114108.003000", "114108.006000", "114108.009000", "114108.011000", "114108.014000", "114108.017000", "114108.020000", "114108.023000", "114108.026000", "114108.029000", "114108.032000", "114108.035000", "114108.038000", "114108.040000", "114108.043000", "114108.046000", "114108.049000", "114108.052000", "114108.054000", "114108.057000", "114108.060000", "114108.063000", "114108.066000", "114108.069000", "114127.525000", "114127.529000", "114127.531000", "114127.534000", "114127.537000", "114127.540000", "114127.543000", "114127.546000", "114127.548000", "114127.551000", "114127.562000", "114127.566000", "114127.569000", "114127.572000"],
