{
  "AcquisitionMatrixPE": 104,
  "AcquisitionNumber": 1,
  "AcquisitionTime": "11:13:56.907500",
  "BandwidthPerPixelPhaseEncode": 17.17,
  "BaseResolution": 104,
  "BodyPartExamined": "BRAIN",
  "CoilString": "HC1-7;NC1_2",
  "ConsistencyInfo": "N4_VE11C_LATEST_20160120",
  "ConversionSoftware": "dcm2niix",
  "ConversionSoftwareVersion": "v1.0.20190720  (JP2:OpenJPEG) GCC7.3.0",
  "DerivedVendorReportedEchoSpacing": 0.000560011,
  "DeviceSerialNumber": "167006",
  "DwellTime": 2.1e-06,
  "EchoTime": 0.037,
  "EchoTrainLength": 104,
  "EffectiveEchoSpacing": 0.000560011,
  "FlipAngle": 52,
  "ImageComments": "Unaliased_MB4_PE3_LB",
  "ImageOrientationPatientDICOM": [0.998958, -0.0456076, 0.00168447, 0.0401222, 0.860023, -0.508676],
  "ImageType": [
    "ORIGINAL",
    "PRIMARY",
    "M",
    "MB",
    "ND",
    "MOSAIC"
],
  "ImagingFrequency": 123.259,
  "InPlanePhaseEncodingDirectionDICOM": "COL",
  "InstitutionAddress": "Chemin_Queen-Mary_4565_Montreal_District_CA_H3W_1W5",
  "InstitutionName": "IUGM",
  "InstitutionalDepartmentName": "Department",
  "MRAcquisitionType": "2D",
  "MagneticFieldStrength": 3,
  "Manufacturer": "Siemens",
  "ManufacturersModelName": "Prisma_fit",
  "Modality": "MR",
  "MultibandAccelerationFactor": 4,
  "PartialFourier": 1,
  "PatientPosition": "HFS",
  "PercentPhaseFOV": 100,
  "PhaseEncodingDirection": "j",
  "PhaseEncodingSteps": 104,
  "PhaseResolution": 1,
  "PixelBandwidth": 2290,
  "ProcedureStepDescription": "video_friends",
  "ProtocolName": "func_task-s01e05b",
  "PulseSequenceDetails": "%CustomerSeq%_cmrr_mbep2d_bold",
  "ReceiveCoilActiveElements": "HC1-7;NC1,2",
  "ReceiveCoilName": "HeadNeck_64",
  "ReconMatrixPE": 104,
  "RepetitionTime": 1.49,
  "SAR": 0.0362846,
  "ScanOptions": "FS",
  "ScanningSequence": "EP",
  "SequenceName": "epfid2d1_104",
  "SequenceVariant": "SK_SS",
  "SeriesDescription": "func_task-s01e05b",
  "SeriesNumber": 14,
  "ShimSetting": [622, -7196, -8884, 411, -26, -126, 36, -22],
  "SliceThickness": 2,
  "SliceTiming": [0, 0.785, 0.0975, 0.8825, 0.195, 0.98, 0.295, 1.0775, 0.3925, 1.175, 0.49, 1.275, 0.5875, 1.3725, 0.685, 0, 0.785, 0.0975, 0.8825, 0.195, 0.98, 0.295, 1.0775, 0.3925, 1.175, 0.49, 1.275, 0.5875, 1.3725, 0.685, 0, 0.785, 0.0975, 0.8825, 0.195, 0.98, 0.295, 1.0775, 0.3925, 1.175, 0.49, 1.275, 0.5875, 1.3725, 0.685, 0, 0.785, 0.0975, 0.8825, 0.195, 0.98, 0.295, 1.0775, 0.3925, 1.175, 0.49, 1.275, 0.5875, 1.3725, 0.685],
  "SoftwareVersions": "syngo_MR_E11",
  "SpacingBetweenSlices": 2,
  "StationName": "MRC35049",
  "TaskName": "friends",
  "TotalReadoutTime": 0.0576811,
  "TxRefAmp": 250.712,
  "WipMemBlock": "ba90d0a2-84cf-4748-987f-8bca5f4da0fa||Sequence: R016 ve11c/master r/e634e98; Dec 19 2017 11:00:25 by eja",
  "dcmmeta_affine": [
    [-1.9979159832000732, 0.08024448901414871, -0.04350166395306587, 99.63345336914062],
    [0.09121526032686234, 1.7200450897216797, -1.0164273977279663, -63.13176345825195],
    [0.0033689371775835752, 1.0173522233963013, 1.7219126224517822, -105.20540618896484],
    [0.0, 0.0, 0.0, 1.0]
],
  "dcmmeta_reorient_transform": [
    [0.0, -1.0, 0.0, 103.0],
    [1.0, 0.0, 0.0, 0.0],
    [0.0, 0.0, 1.0, 0.0],
    [0.0, 0.0, 0.0, 1.0]
],
  "dcmmeta_shape": [104, 104, 60, 488],
  "dcmmeta_slice_dim": 2,
  "dcmmeta_version": 0.6,
  "global": {
    "const": {
      "AcquisitionMatrix": [104, 0, 0, 104],
      "AngioFlag": "N",
      "BitsAllocated": 16,
      "BitsStored": 16,
      "BodyPartExamined": "BRAIN",
      "Columns": 832,
      "EchoNumbers": 1,
      "EchoTime": 37.0,
      "EchoTrainLength": 104,
      "FlipAngle": 52.0,
      "HighBit": 15,
      "ImageOrientationPatient": [0.99895801051243, -0.0456076287337, 0.00168446856247, 0.04012224533256, 0.86002255560179, -0.5086761339847],
      "ImagePositionPatient": [-864.34906454468, -706.9269479445, 368.67180958883],
      "ImageType": [
        "ORIGINAL",
        "PRIMARY",
        "M",
        "MB",
        "ND",
        "MOSAIC"
],
      "ImagedNucleus": "1H",
      "ImagingFrequency": 123.259197,
      "InPlanePhaseEncodingDirection": "COL",
      "MRAcquisitionType": "2D",
      "MagneticFieldStrength": 3.0,
      "Manufacturer": "SIEMENS",
      "ManufacturerModelName": "Prisma_fit",
      "Modality": "MR",
      "NumberOfAverages": 1.0,
      "NumberOfPhaseEncodingSteps": 104,
      "PercentPhaseFieldOfView": 100.0,
      "PercentSampling": 100.0,
      "PerformedProcedureStepStartTime": "102317.910000",
      "PhotometricInterpretation": "MONOCHROME2",
      "PixelBandwidth": 2290.0,
      "PixelRepresentation": 0,
      "PixelSpacing": [2.0, 2.0],
      "ProtocolName": "func_task-s01e05b",
      "RepetitionTime": 1490.0,
      "Rows": 832,
      "SAR": 0.03628455596771,
      "SamplesPerPixel": 1,
      "ScanOptions": "FS",
      "ScanningSequence": "EP",
      "SequenceName": "epfid2d1_104",
      "SequenceVariant": [
        "SK",
        "SS"
],
      "SeriesDescription": "func_task-s01e05b",
      "SeriesNumber": 14,
      "SeriesTime": "111513.922000",
      "SliceLocation": -60.659941154881,
      "SliceThickness": 2.0,
      "SmallestImagePixelValue": 0,
      "SoftwareVersions": "syngo MR E11",
      "SpacingBetweenSlices": 1.9999999850799,
      "SpecificCharacterSet": "ISO_IR 100",
      "StudyID": "1",
      "StudyTime": "102317.838000",
      "TransmitCoilName": "Body",
      "VariableFlipAngleFlag": "N",
      "WindowCenterWidthExplanation": "Algo1",
      "dBdt": 0.0},
    "slices": {}
  },
  "time": {
    "samples": {
      "AcquisitionNumber": [1, 2, 3, 4, 5, 6, 7, 8, 9, 10, 11, 12, 13, 14, 15, 16, 17, 18, 19, 20, 21, 22, 23, 24, 25, 26, 27, 28, 29, 30, 31, 32, 33, 34, 35, 36, 37, 38, 39, 40, 41, 42, 43, 44, 45, 46, 47, 48, 49, 50, 51, 52, 53, 54, 55, 56, 57, 58, 59, 60, 61, 62, 63, 64, 65, 66, 67, 68, 69, 70, 71, 72, 73, 74, 75, 76, 77, 78, 79, 80, 81, 82, 83, 84, 85, 86, 87, 88, 89, 90, 91, 92, 93, 94, 95, 96, 97, 98, 99, 100, 101, 102, 103, 104, 105, 106, 107, 108, 109, 110, 111, 112, 113, 114, 115, 116, 117, 118, 119, 120, 121, 122, 123, 124, 125, 126, 127, 128, 129, 130, 131, 132, 133, 134, 135, 136, 137, 138, 139, 140, 141, 142, 143, 144, 145, 146, 147, 148, 149, 150, 151, 152, 153, 154, 155, 156, 157, 158, 159, 160, 161, 162, 163, 164, 165, 166, 167, 168, 169, 170, 171, 172, 173, 174, 175, 176, 177, 178, 179, 180, 181, 182, 183, 184, 185, 186, 187, 188, 189, 190, 191, 192, 193, 194, 195, 196, 197, 198, 199, 200, 201, 202, 203, 204, 205, 206, 207, 208, 209, 210, 211, 212, 213, 214, 215, 216, 217, 218, 219, 220, 221, 222, 223, 224, 225, 226, 227, 228, 229, 230, 231, 232, 233, 234, 235, 236, 237, 238, 239, 240, 241, 242, 243, 244, 245, 246, 247, 248, 249, 250, 251, 252, 253, 254, 255, 256, 257, 258, 259, 260, 261, 262, 263, 264, 265, 266, 267, 268, 269, 270, 271, 272, 273, 274, 275, 276, 277, 278, 279, 280, 281, 282, 283, 284, 285, 286, 287, 288, 289, 290, 291, 292, 293, 294, 295, 296, 297, 298, 299, 300, 301, 302, 303, 304, 305, 306, 307, 308, 309, 310, 311, 312, 313, 314, 315, 316, 317, 318, 319, 320, 321, 322, 323, 324, 325, 326, 327, 328, 329, 330, 331, 332, 333, 334, 335, 336, 337, 338, 339, 340, 341, 342, 343, 344, 345, 346, 347, 348, 349, 350, 351, 352, 353, 354, 355, 356, 357, 358, 359, 360, 361, 362, 363, 364, 365, 366, 367, 368, 369, 370, 371, 372, 373, 374, 375, 376, 377, 378, 379, 380, 381, 382, 383, 384, 385, 386, 387, 388, 389, 390, 391, 392, 393, 394, 395, 396, 397, 398, 399, 400, 401, 402, 403, 404, 405, 406, 407, 408, 409, 410, 411, 412, 413, 414, 415, 416, 417, 418, 419, 420, 421, 422, 423, 424, 425, 426, 427, 428, 429, 430, 431, 432, 433, 434, 435, 436, 437, 438, 439, 440, 441, 442, 443, 444, 445, 446, 447, 448, 449, 450, 451, 452, 453, 454, 455, 456, 457, 458, 459, 460, 461, 462, 463, 464, 465, 466, 467, 468, 469, 470, 471, 472, 473, 474, 475, 476, 477, 478, 479, 480, 481, 482, 483, 484, 485, 486, 487, 488],
      "AcquisitionTime": ["111356.907500", "111358.397500", "111359.887500", "111401.377500", "111402.867500", "111404.357500", "111405.847500", "111407.337500", "111408.827500", "111410.317500", "111411.807500", "111413.297500", "111414.787500", "111416.277500", "111417.767500", "111419.257500", "111420.747500", "111422.237500", "111423.727500", "111425.217500", "111426.707500", "111428.197500", "111429.687500", "111431.177500", "111432.667500", "111434.157500", "111435.647500", "111437.137500", "111438.627500", "111440.117500", "111441.607500", "111443.097500", "111444.587500", "111446.077500", "111447.567500", "111449.057500", "111450.547500", "111452.037500", "111453.527500", "111455.017500", "111456.507500", "111457.997500", "111459.487500", "111500.977500", "111502.467500", "111503.957500", "111505.447500", "111506.937500", "111508.427500", "111509.917500", "111511.407500", "111512.897500", "111514.387500", "111515.877500", "111517.367500", "111518.857500", "111520.347500", "111521.837500", "111523.327500", "111524.817500", "111526.307500", "111527.797500", "111529.287500", "111530.777500", "111532.267500", "111533.757500", "111535.247500", "111536.737500", "111538.227500", "111539.717500", "111541.207500", "111542.697500", "111544.187500", "111545.677500", "111547.167500", "111548.657500", "111550.147500", "111551.637500", "111553.127500", "111554.617500", "111556.107500", "111557.597500", "111559.087500", "111600.577500", "111602.067500", "111603.557500", "111605.047500", "111606.537500", "111608.027500", "111609.517500", "111611.007500", "111612.497500", "111613.987500", "111615.477500", "111616.967500", "111618.457500", "111619.947500", "111621.437500", "111622.927500", "111624.417500", "111625.907500", "111627.397500", "111628.887500", "111630.377500", "111631.867500", "111633.357500", "111634.847500", "111636.337500", "111637.827500", "111639.317500", "111640.807500", "111642.297500", "111643.787500", "111645.277500", "111646.767500", "111648.257500", "111649.747500", "111651.237500", "111652.727500", "111654.217500", "111655.707500", "111657.197500", "111658.687500", "111700.177500", "111701.667500", "111703.157500", "111704.647500", "111706.137500", "111707.627500", "111709.117500", "111710.607500", "111712.097500", "111713.587500", "111715.077500", "111716.567500", "111718.057500", "111719.547500", "111721.037500", "111722.527500", "111724.017500", "111725.507500", "111726.997500", "111728.487500", "111729.977500", "111731.467500", "111732.957500", "111734.447500", "111735.937500", "111737.427500", "111738.917500", "111740.407500", "111741.897500", "111743.387500", "111744.877500", "111746.367500", "111747.857500", "111749.347500", "111750.837500", "111752.327500", "111753.817500", "111755.307500", "111756.797500", "111758.287500", "111759.777500", "111801.267500", "111802.757500", "111804.247500", "111805.737500", "111807.227500", "111808.717500", "111810.207500", "111811.697500", "111813.187500", "111814.677500", "111816.167500", "111817.657500", "111819.147500", "111820.637500", "111822.127500", "111823.617500", "111825.107500", "111826.597500", "111828.087500", "111829.577500", "111831.067500", "111832.557500", "111834.047500", "111835.537500", "111837.027500", "111838.517500", "111840.007500", "111841.497500", "111842.987500", "111844.477500", "111845.967500", "111847.457500", "111848.947500", "111850.437500", "111851.927500", "111853.417500", "111854.907500", "111856.397500", "111857.887500", "111859.377500", "111900.867500", "111902.357500", "111903.847500", "111905.337500", "111906.827500", "111908.317500", "111909.807500", "111911.297500", "111912.787500", "111914.277500", "111915.767500", "111917.257500", "111918.747500", "111920.237500", "111921.727500", "111923.217500", "111924.707500", "111926.197500", "111927.687500", "111929.177500", "111930.667500", "111932.157500", "111933.647500", "111935.137500", "111936.627500", "111938.117500", "111939.607500", "111941.097500", "111942.587500", "111944.077500", "111945.567500", "111947.057500", "111948.547500", "111950.037500", "111951.527500", "111953.017500", "111954.507500", "111955.997500", "111957.487500", "111958.977500", "112000.467500", "112001.957500", "112003.447500", "112004.937500", "112006.427500", "112007.917500", "112009.407500", "112010.897500", "112012.387500", "112013.877500", "112015.367500", "112016.857500", "112018.347500", "112019.837500", "112021.327500", "112022.817500", "112024.307500", "112025.797500", "112027.287500", "112028.777500", "112030.267500", "112031.757500", "112033.247500", "112034.737500", "112036.227500", "112037.717500", "112039.207500", "112040.697500", "112042.187500", "112043.677500", "112045.167500", "112046.657500", "112048.147500", "112049.637500", "112051.127500", "112052.617500", "112054.107500", "112055.597500", "112057.087500", "112058.577500", "112100.067500", "112101.557500", "112103.047500", "112104.537500", "112106.027500", "112107.517500", "112109.007500", "112110.497500", "112111.987500", "112113.477500", "112114.967500", "112116.457500", "112117.947500", "112119.437500", "112120.927500", "112122.417500", "112123.907500", "112125.397500", "112126.887500", "112128.377500", "112129.867500", "112131.357500", "112132.847500", "112134.337500", "112135.827500", "112137.317500", "112138.807500", "112140.297500", "112141.787500", "112143.277500", "112144.767500", "112146.257500", "112147.747500", "112149.237500", "112150.727500", "112152.217500", "112153.707500", "112155.197500", "112156.687500", "112158.177500", "112159.667500", "112201.157500", "112202.647500", "112204.137500", "112205.627500", "112207.117500", "112208.607500", "112210.097500", "112211.587500", "112213.077500", "112214.567500", "112216.057500", "112217.547500", "112219.037500", "112220.527500", "112222.017500", "112223.507500", "112224.997500", "112226.487500", "112227.977500", "112229.467500", "112230.957500", "112232.447500", "112233.937500", "112235.427500", "112236.917500", "112238.407500", "112239.897500", "112241.387500", "112242.877500", "112244.367500", "112245.857500", "112247.347500", "112248.837500", "112250.327500", "112251.817500", "112253.307500", "112254.797500", "112256.287500", "112257.777500", "112259.267500", "112300.757500", "112302.247500", "112303.737500", "112305.227500", "112306.717500", "112308.207500", "112309.697500", "112311.187500", "112312.677500", "112314.167500", "112315.657500", "112317.147500", "112318.637500", "112320.127500", "112321.617500", "112323.107500", "112324.597500", "112326.087500", "112327.577500", "112329.067500", "112330.557500", "112332.047500", "112333.537500", "112335.027500", "112336.517500", "112338.007500", "112339.497500", "112340.987500", "112342.477500", "112343.967500", "112345.457500", "112346.947500", "112348.437500", "112349.927500", "112351.417500", "112352.907500", "112354.397500", "112355.887500", "112357.377500", "112358.867500", "112400.357500", "112401.847500", "112403.337500", "112404.827500", "112406.317500", "112407.807500", "112409.297500", "112410.787500", "112412.277500", "112413.767500", "112415.257500", "112416.747500", "112418.237500", "112419.727500", "112421.217500", "112422.707500", "112424.197500", "112425.687500", "112427.177500", "112428.667500", "112430.157500", "112431.647500", "112433.137500", "112434.627500", "112436.117500", "112437.607500", "112439.097500", "112440.587500", "112442.077500", "112443.567500", "112445.057500", "112446.547500", "112448.037500", "112449.527500", "112451.017500", "112452.507500", "112453.997500", "112455.487500", "112456.977500", "112458.467500", "112459.957500", "112501.447500", "112502.937500", "112504.427500", "112505.917500", "112507.407500", "112508.897500", "112510.387500", "112511.877500", "112513.367500", "112514.857500", "112516.347500", "112517.837500", "112519.327500", "112520.817500", "112522.307500", "112523.797500", "112525.287500", "112526.777500", "112528.267500", "112529.757500", "112531.247500", "112532.737500", "112534.227500", "112535.717500", "112537.207500", "112538.697500", "112540.187500", "112541.677500", "112543.167500", "112544.657500", "112546.147500", "112547.637500", "112549.127500", "112550.617500", "112552.107500", "112553.597500", "112555.087500", "112556.577500", "112558.067500", "112559.557500", "112601.047500", "112602.537500"],
      "ContentTime": ["111513.925000", "111513.928000", "111513.931000", "111513.934000", "111513.937000", "111513.944000", "111513.946000", "111513.949000", "111513.952000", "111513.955000", "111513.958000", "111513.961000", "111513.964000", "111513.966000", "111513.969000", "111513.972000", "111513.979000", "111513.982000", "111513.985000", "111513.988000", "111513.991000", "111513.993000", "111513.996000", "111514.000000", "111514.003000", "111533.890000", "111533.893000", "111533.896000", "111533.899000", "111533.902000", "111533.905000", "111533.916000", "111533.919000", "111533.922000", "111533.925000", "111533.927000", "111533.930000", "111533.933000", "111533.936000", "111533.939000", "111533.942000", "111533.944000", "111533.947000", "111533.950000", "111533.953000", "111553.890000", "111553.893000", "111553.896000", "111553.898000", "111553.901000", "111553.904000", "111553.907000", "111553.910000", "111553.913000", "111553.915000", "111553.918000", "111553.921000", "111553.924000", "111553.927000", "111553.929000", "111553.932000", "111553.935000", "111553.938000", "111553.941000", "111553.943000", "111613.890000", "111613.893000", "111613.896000", "111613.898000", "111613.901000", "111613.904000", "111613.907000", "111613.910000", "111613.913000", "111613.915000", "111613.918000", "111613.921000", "111613.924000", "111613.927000", "111613.930000", "111613.932000", "111613.935000", "111613.938000", "111613.942000", "111613.945000", "111633.889000", "111633.892000", "111633.895000", "111633.898000", "111633.900000", "111633.903000", "111633.906000", "111633.909000", "111633.912000", "111633.915000", "111633.917000", "111633.920000", "111633.923000", "111633.926000", "111633.929000", "111633.931000", "111633.934000", "111633.937000", "111633.940000", "111633.943000", "111713.889000", "111713.892000", "111713.895000", "111713.898000", "111713.900000", "111713.903000", "111713.906000", "111713.909000", "111713.912000", "111713.914000", "111713.917000", "111713.920000", "111713.923000", "111713.926000", "111713.937000", "111713.940000", "111713.942000", "111713.945000", "111713.948000", "111713.951000", "111713.954000", "111713.956000", "111713.959000", "111713.962000", "111713.965000", "111713.968000", "111713.971000", "111753.890000", "111753.893000", "111753.896000", "111753.899000", "111753.901000", "111753.904000", "111753.907000", "111753.910000", "111753.913000", "111753.916000", "111753.918000", "111753.921000", "111753.924000", "111753.927000", "111753.930000", "111753.933000", "111753.935000", "111753.938000", "111753.941000", "111753.944000", "111753.947000", "111753.949000", "111753.952000", "111753.956000", "111753.959000", "111753.962000", "111833.890000", "111833.893000", "111833.896000", "111833.899000", "111833.902000", "111833.904000", "111833.907000", "111833.910000", "111833.913000", "111833.916000", "111833.918000", "111833.921000", "111833.924000", "111833.927000", "111833.930000", "111833.933000", "111833.935000", "111833.938000", "111833.941000", "111833.944000", "111833.947000", "111833.949000", "111833.952000", "111833.955000", "111833.972000", "111833.975000", "111833.977000", "111913.889000", "111913.892000", "111913.895000", "111913.898000", "111913.900000", "111913.903000", "111913.906000", "111913.909000", "111913.912000", "111913.915000", "111913.917000", "111913.920000", "111913.923000", "111913.926000", "111913.929000", "111913.932000", "111913.934000", "111913.937000", "111913.940000", "111913.943000", "111913.946000", "111913.948000", "111913.951000", "111913.954000", "111913.957000", "111913.960000", "111913.963000", "111953.889000", "111953.892000", "111953.895000", "111953.898000", "111953.900000", "111953.903000", "111953.906000", "111953.909000", "111953.912000", "111953.915000", "111953.917000", "111953.920000", "111953.923000", "111953.926000", "111953.929000", "111953.932000", "111953.934000", "111953.937000", "111953.940000", "111953.943000", "111953.946000", "111953.948000", "111953.951000", "111953.954000", "111953.957000", "111953.960000", "111953.963000", "112033.890000", "112033.896000", "112033.899000", "112033.902000", "112033.905000", "112033.908000", "112033.910000", "112033.913000", "112033.916000", "112033.919000", "112033.922000", "112033.925000", "112033.927000", "112033.930000", "112033.933000", "112033.936000", "112033.939000", "112033.942000", "112033.944000", "112033.947000", "112033.950000", "112033.953000", "112033.956000", "112033.958000", "112033.961000", "112033.964000", "112033.967000", "112113.889000", "112113.892000", "112113.895000", "112113.898000", "112113.900000", "112113.903000", "112113.906000", "112113.909000", "112113.912000", "112113.915000", "112113.918000", "112113.920000", "112113.923000", "112113.926000", "112113.929000", "112113.932000", "112113.935000", "112113.937000", "112113.940000", "112113.943000", "112113.946000", "112113.949000", "112113.951000", "112113.954000", "112113.957000", "112113.960000", "112113.963000", "112153.889000", "112153.892000", "112153.895000", "112153.898000", "112153.901000", "112153.904000", "112153.906000", "112153.909000", "112153.912000", "112153.915000", "112153.918000", "112153.921000", "112153.924000", "112153.926000", "112153.929000", "112153.932000", "112153.935000", "112153.938000", "112153.941000", "112153.943000", "112153.946000", "112153.949000", "112153.952000", "112153.955000", "112153.958000", "112153.961000", "112233.890000", "112233.893000", "112233.896000", "112233.899000", "112233.901000", "112233.904000", "112233.907000", "112233.910000", "112233.913000", "112233.916000", "112233.918000", "112233.921000", "112233.924000", "112233.927000", "112233.930000", "112233.932000", "112233.935000", "112233.938000", "112233.941000", "112233.944000", "112233.947000", "112233.949000", "112233.952000", "112233.955000", "112233.958000", "112233.961000", "112233.963000", "112313.889000", "112313.892000", "112313.895000", "112313.898000", "112313.901000", "112313.903000", "112313.906000", "112313.909000", "112313.912000", "112313.915000", "112313.918000", "112313.920000", "112313.923000", "112313.926000", "112313.929000", "112313.932000", "112313.934000", "112313.937000", "112313.940000", "112313.953000", "112313.956000", "112313.959000", "112313.961000", "112313.964000", "112313.967000", "112313.970000", "112313.973000", "112353.889000", "112353.892000", "112353.895000", "112353.898000", "112353.901000", "112353.903000", "112353.906000", "112353.909000", "112353.912000", "112353.915000", "112353.918000", "112353.921000", "112353.923000", "112353.926000", "112353.929000", "112353.932000", "112353.935000", "112353.937000", "112353.940000", "112353.943000", "112353.946000", "112353.949000", "112353.951000", "112353.954000", "112353.957000", "112353.960000", "112353.963000", "112433.889000", "112433.892000", "112433.895000", "112433.898000", "112433.900000", "112433.903000", "112433.906000", "112433.909000", "112433.912000", "112433.915000", "112433.917000", "112433.921000", "112433.924000", "112433.927000", "112433.930000", "112433.933000", "112433.935000", "112433.938000", "112433.941000", "112433.944000", "112433.947000", "112433.950000", "112433.952000", "112433.955000", "112433.958000", "112433.961000", "112433.964000", "112513.890000", "112513.893000", "112513.896000", "112513.899000", "112513.902000", "112513.904000", "112513.907000", "112513.910000", "112513.913000", "112513.916000", "112513.918000", "112513.921000", "112513.924000", "112513.927000", "112513.930000", "112513.933000", "112513.935000", "112513.938000", "112513.941000", "112513.944000", "112513.947000", "112513.950000", "112513.953000", "112513.955000", "112513.958000", "112513.961000", "112513.964000", "112553.889000", "112553.892000", "112553.895000", "112553.898000", "112553.901000", "112553.904000", "112553.906000", "112553.909000", "112553.912000", "112553.915000", "112553.918000", "112553.921000", "112553.923000", "112553.926000", "112553.929000", "112553.932000", "112553.935000", "112553.938000", "112553.941000", "112553.944000", "112553.946000", "112553.949000", "112553.952000", "112553.955000", "112553.958000", "112553.961000", "112553.963000", "112604.351000", "112604.354000", "112604.357000", "112604.360000", "112604.363000", "112604.365000", "112604.368000"],
