{
  "AcquisitionMatrixPE": 104,
  "AcquisitionNumber": 1,
  "AcquisitionTime": "11:00:49.820000",
  "BandwidthPerPixelPhaseEncode": 17.17,
  "BaseResolution": 104,
  "BodyPartExamined": "BRAIN",
  "CoilString": "HC1-7;NC1_2",
  "ConsistencyInfo": "N4_VE11C_LATEST_20160120",
  "ConversionSoftware": "dcm2niix",
  "ConversionSoftwareVersion": "v1.0.20190720  (JP2:OpenJPEG) GCC7.3.0",
  "DerivedVendorReportedEchoSpacing": 0.000560011,
  "DeviceSerialNumber": "167006",
  "DwellTime": 2.1e-06,
  "EchoTime": 0.037,
  "EchoTrainLength": 104,
  "EffectiveEchoSpacing": 0.000560011,
  "FlipAngle": 52,
  "ImageComments": "Unaliased_MB4_PE3_LB",
  "ImageOrientationPatientDICOM": [0.998958, -0.0456076, 0.00168447, 0.0401222, 0.860023, -0.508676],
  "ImageType": [
    "ORIGINAL",
    "PRIMARY",
    "M",
    "MB",
    "ND",
    "MOSAIC"
],
  "ImagingFrequency": 123.259,
  "InPlanePhaseEncodingDirectionDICOM": "COL",
  "InstitutionAddress": "Chemin_Queen-Mary_4565_Montreal_District_CA_H3W_1W5",
  "InstitutionName": "IUGM",
  "InstitutionalDepartmentName": "Department",
  "MRAcquisitionType": "2D",
  "MagneticFieldStrength": 3,
  "Manufacturer": "Siemens",
  "ManufacturersModelName": "Prisma_fit",
  "Modality": "MR",
  "MultibandAccelerationFactor": 4,
  "PartialFourier": 1,
  "PatientPosition": "HFS",
  "PercentPhaseFOV": 100,
  "PhaseEncodingDirection": "j",
  "PhaseEncodingSteps": 104,
  "PhaseResolution": 1,
  "PixelBandwidth": 2290,
  "ProcedureStepDescription": "video_friends",
  "ProtocolName": "func_task-s01e05a",
  "PulseSequenceDetails": "%CustomerSeq%_cmrr_mbep2d_bold",
  "ReceiveCoilActiveElements": "HC1-7;NC1,2",
  "ReceiveCoilName": "HeadNeck_64",
  "ReconMatrixPE": 104,
  "RepetitionTime": 1.49,
  "SAR": 0.0362846,
  "ScanOptions": "FS",
  "ScanningSequence": "EP",
  "SequenceName": "epfid2d1_104",
  "SequenceVariant": "SK_SS",
  "SeriesDescription": "func_task-s01e05a",
  "SeriesNumber": 12,
  "ShimSetting": [622, -7196, -8884, 411, -26, -126, 36, -22],
  "SliceThickness": 2,
  "SliceTiming": [0, 0.785, 0.0975, 0.8825, 0.195, 0.98, 0.295, 1.0775, 0.3925, 1.175, 0.49, 1.2725, 0.5875, 1.3725, 0.685, 0, 0.785, 0.0975, 0.8825, 0.195, 0.98, 0.295, 1.0775, 0.3925, 1.175, 0.49, 1.2725, 0.5875, 1.3725, 0.685, 0, 0.785, 0.0975, 0.8825, 0.195, 0.98, 0.295, 1.0775, 0.3925, 1.175, 0.49, 1.2725, 0.5875, 1.3725, 0.685, 0, 0.785, 0.0975, 0.8825, 0.195, 0.98, 0.295, 1.0775, 0.3925, 1.175, 0.49, 1.2725, 0.5875, 1.3725, 0.685],
  "SoftwareVersions": "syngo_MR_E11",
  "SpacingBetweenSlices": 2,
  "StationName": "MRC35049",
  "TaskName": "friends",
  "TotalReadoutTime": 0.0576811,
  "TxRefAmp": 250.712,
  "WipMemBlock": "86ebab73-6500-49b6-8d3b-be44101a40c5||Sequence: R016 ve11c/master r/e634e98; Dec 19 2017 11:00:25 by eja",
  "dcmmeta_affine": [
    [-1.9979159832000732, 0.08024448901414871, -0.04350166395306587, 99.63345336914062],
    [0.09121526032686234, 1.7200450897216797, -1.0164273977279663, -63.13176345825195],
    [0.0033689371775835752, 1.0173522233963013, 1.7219126224517822, -105.20540618896484],
    [0.0, 0.0, 0.0, 1.0]
],
  "dcmmeta_reorient_transform": [
    [0.0, -1.0, 0.0, 103.0],
    [1.0, 0.0, 0.0, 0.0],
    [0.0, 0.0, 1.0, 0.0],
    [0.0, 0.0, 0.0, 1.0]
],
  "dcmmeta_shape": [104, 104, 60, 488],
  "dcmmeta_slice_dim": 2,
  "dcmmeta_version": 0.6,
  "global": {
    "const": {
      "AcquisitionMatrix": [104, 0, 0, 104],
      "AngioFlag": "N",
      "BitsAllocated": 16,
      "BitsStored": 16,
      "BodyPartExamined": "BRAIN",
      "Columns": 832,
      "EchoNumbers": 1,
      "EchoTime": 37.0,
      "EchoTrainLength": 104,
      "FlipAngle": 52.0,
      "HighBit": 15,
      "ImageOrientationPatient": [0.99895801051243, -0.0456076287337, 0.00168446856247, 0.04012224533256, 0.86002255560179, -0.5086761339847],
      "ImagePositionPatient": [-864.34906454468, -706.9269479445, 368.67180958883],
      "ImageType": [
        "ORIGINAL",
        "PRIMARY",
        "M",
        "MB",
        "ND",
        "MOSAIC"
],
      "ImagedNucleus": "1H",
      "ImagingFrequency": 123.259194,
      "InPlanePhaseEncodingDirection": "COL",
      "MRAcquisitionType": "2D",
      "MagneticFieldStrength": 3.0,
      "Manufacturer": "SIEMENS",
      "ManufacturerModelName": "Prisma_fit",
      "Modality": "MR",
      "NumberOfAverages": 1.0,
      "NumberOfPhaseEncodingSteps": 104,
      "PercentPhaseFieldOfView": 100.0,
      "PercentSampling": 100.0,
      "PerformedProcedureStepStartTime": "102317.910000",
      "PhotometricInterpretation": "MONOCHROME2",
      "PixelBandwidth": 2290.0,
      "PixelRepresentation": 0,
      "PixelSpacing": [2.0, 2.0],
      "ProtocolName": "func_task-s01e05a",
      "RepetitionTime": 1490.0,
      "Rows": 832,
      "SAR": 0.03628455596771,
      "SamplesPerPixel": 1,
      "ScanOptions": "FS",
      "ScanningSequence": "EP",
      "SequenceName": "epfid2d1_104",
      "SequenceVariant": [
        "SK",
        "SS"
],
      "SeriesDescription": "func_task-s01e05a",
      "SeriesNumber": 12,
      "SeriesTime": "110207.889000",
      "SliceLocation": -60.659941154881,
      "SliceThickness": 2.0,
      "SmallestImagePixelValue": 0,
      "SoftwareVersions": "syngo MR E11",
      "SpacingBetweenSlices": 1.9999999850799,
      "SpecificCharacterSet": "ISO_IR 100",
      "StudyID": "1",
      "StudyTime": "102317.838000",
      "TransmitCoilName": "Body",
      "VariableFlipAngleFlag": "N",
      "WindowCenterWidthExplanation": "Algo1",
      "dBdt": 0.0},
    "slices": {}
  },
  "time": {
    "samples": {
      "AcquisitionNumber": [1, 2, 3, 4, 5, 6, 7, 8, 9, 10, 11, 12, 13, 14, 15, 16, 17, 18, 19, 20, 21, 22, 23, 24, 25, 26, 27, 28, 29, 30, 31, 32, 33, 34, 35, 36, 37, 38, 39, 40, 41, 42, 43, 44, 45, 46, 47, 48, 49, 50, 51, 52, 53, 54, 55, 56, 57, 58, 59, 60, 61, 62, 63, 64, 65, 66, 67, 68, 69, 70, 71, 72, 73, 74, 75, 76, 77, 78, 79, 80, 81, 82, 83, 84, 85, 86, 87, 88, 89, 90, 91, 92, 93, 94, 95, 96, 97, 98, 99, 100, 101, 102, 103, 104, 105, 106, 107, 108, 109, 110, 111, 112, 113, 114, 115, 116, 117, 118, 119, 120, 121, 122, 123, 124, 125, 126, 127, 128, 129, 130, 131, 132, 133, 134, 135, 136, 137, 138, 139, 140, 141, 142, 143, 144, 145, 146, 147, 148, 149, 150, 151, 152, 153, 154, 155, 156, 157, 158, 159, 160, 161, 162, 163, 164, 165, 166, 167, 168, 169, 170, 171, 172, 173, 174, 175, 176, 177, 178, 179, 180, 181, 182, 183, 184, 185, 186, 187, 188, 189, 190, 191, 192, 193, 194, 195, 196, 197, 198, 199, 200, 201, 202, 203, 204, 205, 206, 207, 208, 209, 210, 211, 212, 213, 214, 215, 216, 217, 218, 219, 220, 221, 222, 223, 224, 225, 226, 227, 228, 229, 230, 231, 232, 233, 234, 235, 236, 237, 238, 239, 240, 241, 242, 243, 244, 245, 246, 247, 248, 249, 250, 251, 252, 253, 254, 255, 256, 257, 258, 259, 260, 261, 262, 263, 264, 265, 266, 267, 268, 269, 270, 271, 272, 273, 274, 275, 276, 277, 278, 279, 280, 281, 282, 283, 284, 285, 286, 287, 288, 289, 290, 291, 292, 293, 294, 295, 296, 297, 298, 299, 300, 301, 302, 303, 304, 305, 306, 307, 308, 309, 310, 311, 312, 313, 314, 315, 316, 317, 318, 319, 320, 321, 322, 323, 324, 325, 326, 327, 328, 329, 330, 331, 332, 333, 334, 335, 336, 337, 338, 339, 340, 341, 342, 343, 344, 345, 346, 347, 348, 349, 350, 351, 352, 353, 354, 355, 356, 357, 358, 359, 360, 361, 362, 363, 364, 365, 366, 367, 368, 369, 370, 371, 372, 373, 374, 375, 376, 377, 378, 379, 380, 381, 382, 383, 384, 385, 386, 387, 388, 389, 390, 391, 392, 393, 394, 395, 396, 397, 398, 399, 400, 401, 402, 403, 404, 405, 406, 407, 408, 409, 410, 411, 412, 413, 414, 415, 416, 417, 418, 419, 420, 421, 422, 423, 424, 425, 426, 427, 428, 429, 430, 431, 432, 433, 434, 435, 436, 437, 438, 439, 440, 441, 442, 443, 444, 445, 446, 447, 448, 449, 450, 451, 452, 453, 454, 455, 456, 457, 458, 459, 460, 461, 462, 463, 464, 465, 466, 467, 468, 469, 470, 471, 472, 473, 474, 475, 476, 477, 478, 479, 480, 481, 482, 483, 484, 485, 486, 487, 488],
      "AcquisitionTime": ["110049.820000", "110051.310000", "110052.800000", "110054.290000", "110055.780000", "110057.270000", "110058.760000", "110100.250000", "110101.740000", "110103.230000", "110104.720000", "110106.210000", "110107.700000", "110109.190000", "110110.680000", "110112.170000", "110113.660000", "110115.150000", "110116.640000", "110118.130000", "110119.620000", "110121.110000", "110122.600000", "110124.090000", "110125.580000", "110127.070000", "110128.560000", "110130.050000", "110131.540000", "110133.030000", "110134.520000", "110136.010000", "110137.500000", "110138.990000", "110140.480000", "110141.970000", "110143.460000", "110144.950000", "110146.440000", "110147.930000", "110149.420000", "110150.910000", "110152.400000", "110153.890000", "110155.380000", "110156.870000", "110158.360000", "110159.850000", "110201.340000", "110202.830000", "110204.320000", "110205.810000", "110207.300000", "110208.790000", "110210.280000", "110211.770000", "110213.260000", "110214.750000", "110216.240000", "110217.730000", "110219.220000", "110220.710000", "110222.200000", "110223.690000", "110225.180000", "110226.670000", "110228.160000", "110229.650000", "110231.140000", "110232.630000", "110234.120000", "110235.610000", "110237.100000", "110238.590000", "110240.080000", "110241.570000", "110243.060000", "110244.550000", "110246.040000", "110247.530000", "110249.020000", "110250.510000", "110252.000000", "110253.490000", "110254.980000", "110256.470000", "110257.960000", "110259.450000", "110300.940000", "110302.430000", "110303.920000", "110305.410000", "110306.900000", "110308.390000", "110309.880000", "110311.370000", "110312.860000", "110314.350000", "110315.840000", "110317.330000", "110318.820000", "110320.310000", "110321.800000", "110323.290000", "110324.780000", "110326.270000", "110327.760000", "110329.250000", "110330.740000", "110332.230000", "110333.720000", "110335.210000", "110336.700000", "110338.190000", "110339.680000", "110341.170000", "110342.660000", "110344.150000", "110345.640000", "110347.130000", "110348.620000", "110350.110000", "110351.600000", "110353.090000", "110354.580000", "110356.070000", "110357.560000", "110359.050000", "110400.540000", "110402.030000", "110403.520000", "110405.010000", "110406.500000", "110407.990000", "110409.480000", "110410.970000", "110412.460000", "110413.950000", "110415.440000", "110416.930000", "110418.420000", "110419.910000", "110421.400000", "110422.890000", "110424.380000", "110425.870000", "110427.360000", "110428.850000", "110430.340000", "110431.830000", "110433.320000", "110434.810000", "110436.300000", "110437.790000", "110439.280000", "110440.770000", "110442.260000", "110443.750000", "110445.240000", "110446.730000", "110448.220000", "110449.710000", "110451.200000", "110452.690000", "110454.180000", "110455.670000", "110457.160000", "110458.650000", "110500.140000", "110501.630000", "110503.120000", "110504.610000", "110506.100000", "110507.590000", "110509.080000", "110510.570000", "110512.060000", "110513.550000", "110515.040000", "110516.530000", "110518.020000", "110519.510000", "110521.000000", "110522.490000", "110523.980000", "110525.470000", "110526.960000", "110528.450000", "110529.940000", "110531.430000", "110532.920000", "110534.410000", "110535.900000", "110537.390000", "110538.880000", "110540.370000", "110541.860000", "110543.350000", "110544.840000", "110546.330000", "110547.820000", "110549.310000", "110550.800000", "110552.290000", "110553.780000", "110555.270000", "110556.760000", "110558.250000", "110559.740000", "110601.230000", "110602.720000", "110604.210000", "110605.700000", "110607.190000", "110608.680000", "110610.170000", "110611.660000", "110613.150000", "110614.640000", "110616.130000", "110617.620000", "110619.110000", "110620.600000", "110622.090000", "110623.580000", "110625.070000", "110626.560000", "110628.050000", "110629.540000", "110631.030000", "110632.520000", "110634.010000", "110635.500000", "110636.990000", "110638.480000", "110639.970000", "110641.460000", "110642.950000", "110644.440000", "110645.930000", "110647.420000", "110648.910000", "110650.400000", "110651.890000", "110653.380000", "110654.870000", "110656.360000", "110657.850000", "110659.340000", "110700.830000", "110702.320000", "110703.810000", "110705.300000", "110706.790000", "110708.280000", "110709.770000", "110711.260000", "110712.750000", "110714.240000", "110715.730000", "110717.220000", "110718.710000", "110720.200000", "110721.690000", "110723.180000", "110724.670000", "110726.160000", "110727.650000", "110729.140000", "110730.630000", "110732.120000", "110733.610000", "110735.100000", "110736.590000", "110738.080000", "110739.570000", "110741.060000", "110742.550000", "110744.040000", "110745.530000", "110747.020000", "110748.510000", "110750.000000", "110751.490000", "110752.980000", "110754.470000", "110755.960000", "110757.450000", "110758.940000", "110800.430000", "110801.920000", "110803.410000", "110804.900000", "110806.390000", "110807.880000", "110809.370000", "110810.860000", "110812.350000", "110813.840000", "110815.330000", "110816.820000", "110818.310000", "110819.800000", "110821.290000", "110822.780000", "110824.270000", "110825.760000", "110827.250000", "110828.740000", "110830.230000", "110831.720000", "110833.210000", "110834.700000", "110836.190000", "110837.680000", "110839.170000", "110840.660000", "110842.150000", "110843.640000", "110845.130000", "110846.620000", "110848.110000", "110849.600000", "110851.090000", "110852.580000", "110854.070000", "110855.560000", "110857.050000", "110858.540000", "110900.030000", "110901.520000", "110903.010000", "110904.500000", "110905.990000", "110907.480000", "110908.970000", "110910.460000", "110911.950000", "110913.440000", "110914.930000", "110916.420000", "110917.910000", "110919.400000", "110920.890000", "110922.380000", "110923.870000", "110925.360000", "110926.850000", "110928.340000", "110929.830000", "110931.320000", "110932.810000", "110934.300000", "110935.790000", "110937.280000", "110938.770000", "110940.260000", "110941.750000", "110943.240000", "110944.730000", "110946.220000", "110947.710000", "110949.200000", "110950.690000", "110952.180000", "110953.670000", "110955.160000", "110956.650000", "110958.140000", "110959.630000", "111001.120000", "111002.610000", "111004.100000", "111005.590000", "111007.080000", "111008.570000", "111010.060000", "111011.550000", "111013.040000", "111014.530000", "111016.020000", "111017.510000", "111019.000000", "111020.490000", "111021.980000", "111023.470000", "111024.960000", "111026.450000", "111027.940000", "111029.430000", "111030.920000", "111032.410000", "111033.900000", "111035.390000", "111036.880000", "111038.370000", "111039.860000", "111041.350000", "111042.840000", "111044.330000", "111045.820000", "111047.310000", "111048.800000", "111050.290000", "111051.780000", "111053.270000", "111054.760000", "111056.250000", "111057.740000", "111059.230000", "111100.720000", "111102.210000", "111103.700000", "111105.190000", "111106.680000", "111108.170000", "111109.660000", "111111.150000", "111112.640000", "111114.130000", "111115.620000", "111117.110000", "111118.600000", "111120.090000", "111121.580000", "111123.070000", "111124.560000", "111126.050000", "111127.540000", "111129.030000", "111130.520000", "111132.010000", "111133.500000", "111134.990000", "111136.480000", "111137.970000", "111139.460000", "111140.950000", "111142.440000", "111143.930000", "111145.420000", "111146.910000", "111148.400000", "111149.890000", "111151.380000", "111152.870000", "111154.360000", "111155.850000", "111157.340000", "111158.830000", "111200.320000", "111201.810000", "111203.300000", "111204.790000", "111206.280000", "111207.770000", "111209.260000", "111210.750000", "111212.240000", "111213.730000", "111215.220000", "111216.710000", "111218.200000", "111219.690000", "111221.180000", "111222.670000", "111224.160000", "111225.650000", "111227.140000", "111228.630000", "111230.120000", "111231.610000", "111233.100000", "111234.590000", "111236.080000", "111237.570000", "111239.060000", "111240.550000", "111242.040000", "111243.530000", "111245.020000", "111246.510000", "111248.000000", "111249.490000", "111250.980000", "111252.470000", "111253.960000", "111255.450000"],
      "ContentTime": ["110207.892000", "110207.895000", "110207.898000", "110207.901000", "110207.904000", "110207.907000", "110207.909000", "110207.912000", "110207.915000", "110207.918000", "110207.921000", "110207.927000", "110207.930000", "110207.933000", "110207.936000", "110207.939000", "110207.941000", "110207.944000", "110207.947000", "110207.950000", "110207.953000", "110207.955000", "110207.958000", "110207.961000", "110207.964000", "110227.859000", "110227.862000", "110227.865000", "110227.867000", "110227.870000", "110227.873000", "110227.876000", "110227.879000", "110227.881000", "110227.884000", "110227.887000", "110227.890000", "110227.893000", "110227.896000", "110227.898000", "110227.901000", "110227.904000", "110227.907000", "110227.909000", "110227.912000", "110247.859000", "110247.862000", "110247.865000", "110247.867000", "110247.870000", "110247.873000", "110247.876000", "110247.879000", "110247.881000", "110247.884000", "110247.887000", "110247.890000", "110247.893000", "110247.895000", "110247.898000", "110247.901000", "110247.904000", "110247.907000", "110247.909000", "110247.912000", "110307.858000", "110307.862000", "110307.865000", "110307.867000", "110307.870000", "110307.873000", "110307.876000", "110307.879000", "110307.881000", "110307.884000", "110307.887000", "110307.890000", "110307.893000", "110307.895000", "110307.898000", "110307.901000", "110307.904000", "110307.907000", "110307.909000", "110307.912000", "110327.858000", "110327.861000", "110327.864000", "110327.867000", "110327.869000", "110327.872000", "110327.875000", "110327.878000", "110327.881000", "110327.883000", "110327.886000", "110327.889000", "110327.892000", "110327.895000", "110327.897000", "110327.900000", "110327.903000", "110327.906000", "110327.909000", "110327.911000", "110407.858000", "110407.861000", "110407.864000", "110407.866000", "110407.869000", "110407.872000", "110407.875000", "110407.878000", "110407.880000", "110407.883000", "110407.886000", "110407.889000", "110407.892000", "110407.894000", "110407.897000", "110407.900000", "110407.903000", "110407.906000", "110407.908000", "110407.911000", "110407.914000", "110407.917000", "110407.923000", "110407.926000", "110407.938000", "110407.940000", "110407.943000", "110447.859000", "110447.862000", "110447.865000", "110447.868000", "110447.870000", "110447.873000", "110447.876000", "110447.879000", "110447.882000", "110447.884000", "110447.887000", "110447.890000", "110447.893000", "110447.896000", "110447.899000", "110447.901000", "110447.904000", "110447.907000", "110447.910000", "110447.913000", "110447.915000", "110447.918000", "110447.921000", "110447.924000", "110447.927000", "110447.930000", "110447.932000", "110527.858000", "110527.861000", "110527.864000", "110527.866000", "110527.869000", "110527.872000", "110527.875000", "110527.878000", "110527.880000", "110527.883000", "110527.886000", "110527.889000", "110527.892000", "110527.895000", "110527.898000", "110527.900000", "110527.903000", "110527.906000", "110527.909000", "110527.911000", "110527.914000", "110527.917000", "110527.920000", "110527.923000", "110527.926000", "110527.928000", "110527.931000", "110607.858000", "110607.861000", "110607.864000", "110607.866000", "110607.869000", "110607.872000", "110607.875000", "110607.878000", "110607.881000", "110607.883000", "110607.886000", "110607.889000", "110607.892000", "110607.895000", "110607.898000", "110607.900000", "110607.903000", "110607.906000", "110607.909000", "110607.912000", "110607.914000", "110607.917000", "110607.920000", "110607.923000", "110607.926000", "110607.929000", "110607.931000", "110647.859000", "110647.862000", "110647.865000", "110647.868000", "110647.870000", "110647.873000", "110647.876000", "110647.879000", "110647.882000", "110647.885000", "110647.888000", "110647.890000", "110647.893000", "110647.896000", "110647.899000", "110647.902000", "110647.904000", "110647.907000", "110647.910000", "110647.913000", "110647.916000", "110647.919000", "110647.921000", "110647.924000", "110647.927000", "110647.930000", "110647.933000", "110727.859000", "110727.862000", "110727.865000", "110727.868000", "110727.870000", "110727.873000", "110727.884000", "110727.887000", "110727.890000", "110727.893000", "110727.895000", "110727.898000", "110727.901000", "110727.905000", "110727.908000", "110727.911000", "110727.914000", "110727.916000", "110727.919000", "110727.922000", "110727.925000", "110727.928000", "110727.931000", "110727.933000", "110727.936000", "110727.939000", "110807.858000", "110807.861000", "110807.864000", "110807.867000", "110807.869000", "110807.872000", "110807.875000", "110807.878000", "110807.881000", "110807.883000", "110807.886000", "110807.889000", "110807.892000", "110807.895000", "110807.898000", "110807.900000", "110807.903000", "110807.906000", "110807.909000", "110807.912000", "110807.914000", "110807.917000", "110807.920000", "110807.923000", "110807.926000", "110807.929000", "110807.931000", "110827.858000", "110827.861000", "110827.864000", "110827.867000", "110827.869000", "110827.872000", "110827.875000", "110827.878000", "110827.881000", "110827.884000", "110827.886000", "110827.889000", "110827.892000", "110827.895000", "110907.859000", "110907.862000", "110907.865000", "110907.869000", "110907.872000", "110907.875000", "110907.890000", "110907.893000", "110907.896000", "110907.898000", "110907.901000", "110907.904000", "110907.907000", "110907.910000", "110907.913000", "110907.915000", "110907.918000", "110907.921000", "110907.924000", "110907.927000", "110907.929000", "110907.932000", "110907.935000", "110907.938000", "110907.941000", "110907.944000", "110947.859000", "110947.862000", "110947.865000", "110947.868000", "110947.870000", "110947.873000", "110947.876000", "110947.879000", "110947.882000", "110947.885000", "110947.887000", "110947.890000", "110947.893000", "110947.896000", "110947.898000", "110947.901000", "110947.904000", "110947.907000", "110947.910000", "110947.912000", "110947.915000", "110947.918000", "110947.921000", "110947.924000", "110947.926000", "110947.929000", "110947.932000", "111027.858000", "111027.861000", "111027.864000", "111027.866000", "111027.869000", "111027.872000", "111027.875000", "111027.878000", "111027.881000", "111027.884000", "111027.886000", "111027.889000", "111027.892000", "111027.895000", "111027.898000", "111027.901000", "111027.903000", "111027.906000", "111027.909000", "111027.912000", "111027.915000", "111027.918000", "111027.920000", "111027.923000", "111027.926000", "111027.929000", "111027.932000", "111107.858000", "111107.861000", "111107.864000", "111107.867000", "111107.869000", "111107.872000", "111107.875000", "111107.878000", "111107.881000", "111107.884000", "111107.886000", "111107.889000", "111107.892000", "111107.895000", "111107.898000", "111107.900000", "111107.903000", "111107.906000", "111107.909000", "111107.912000", "111107.915000", "111107.917000", "111107.920000", "111107.923000", "111107.926000", "111107.929000", "111107.931000", "111147.859000", "111147.863000", "111147.866000", "111147.869000", "111147.872000", "111147.874000", "111147.877000", "111147.880000", "111147.883000", "111147.886000", "111147.888000", "111147.891000", "111147.894000", "111147.897000", "111147.900000", "111147.903000", "111147.905000", "111147.908000", "111147.911000", "111147.914000", "111147.917000", "111147.919000", "111147.922000", "111147.925000", "111147.928000", "111147.931000", "111147.933000", "111227.858000", "111227.861000", "111227.864000", "111227.867000", "111227.869000", "111227.872000", "111227.875000", "111227.878000", "111227.881000", "111227.884000", "111227.886000", "111227.889000", "111227.892000", "111227.895000", "111227.898000", "111227.901000", "111227.903000", "111227.906000", "111227.909000", "111227.912000", "111227.915000", "111227.918000", "111227.920000", "111227.923000", "111227.926000", "111227.929000", "111227.931000", "111257.377000", "111257.380000", "111257.383000", "111257.386000", "111257.389000", "111257.392000", "111257.395000", "111257.397000", "111257.400000", "111257.403000", "111257.406000", "111257.410000", "111257.413000", "111257.416000", "111257.418000", "111257.421000", "111257.424000", "111257.427000", "111257.430000", "111257.433000"],
