{
  "AcquisitionMatrixPE": 104,
  "AcquisitionNumber": 1,
  "AcquisitionTime": "09:44:0.027500",
  "BandwidthPerPixelPhaseEncode": 17.17,
  "BaseResolution": 104,
  "BodyPartExamined": "BRAIN",
  "CoilString": "HC1-7;NC1_2",
  "ConsistencyInfo": "N4_VE11C_LATEST_20160120",
  "ConversionSoftware": "dcm2niix",
  "ConversionSoftwareVersion": "v1.0.20190902",
  "DerivedVendorReportedEchoSpacing": 0.000560011,
  "DeviceSerialNumber": "167006",
  "DwellTime": 2.1e-06,
  "EchoTime": 0.037,
  "EchoTrainLength": 104,
  "EffectiveEchoSpacing": 0.000560011,
  "FlipAngle": 52,
  "ImageComments": "Unaliased_MB4_PE3_LB",
  "ImageOrientationPatientDICOM": [0.999813, 0.0191508, 0.00272867, -0.0151827, 0.864284, -0.502775],
  "ImageType": [
    "ORIGINAL",
    "PRIMARY",
    "M",
    "MB",
    "ND",
    "MOSAIC"
],
  "ImagingFrequency": 123.259,
  "InPlanePhaseEncodingDirectionDICOM": "COL",
  "InstitutionAddress": "Chemin_Queen-Mary_4565_Montreal_District_CA_H3W_1W5",
  "InstitutionName": "IUGM",
  "InstitutionalDepartmentName": "Department",
  "MRAcquisitionType": "2D",
  "MagneticFieldStrength": 3,
  "Manufacturer": "Siemens",
  "ManufacturersModelName": "Prisma_fit",
  "Modality": "MR",
  "MultibandAccelerationFactor": 4,
  "PartialFourier": 1,
  "PatientPosition": "HFS",
  "PercentPhaseFOV": 100,
  "PhaseEncodingDirection": "j",
  "PhaseEncodingSteps": 104,
  "PhaseResolution": 1,
  "PixelBandwidth": 2290,
  "ProcedureStepDescription": "video_friends",
  "ProtocolName": "func_task-friends-s03e22a",
  "PulseSequenceDetails": "%CustomerSeq%_cmrr_mbep2d_bold",
  "ReceiveCoilActiveElements": "HC1-7;NC1,2",
  "ReceiveCoilName": "HeadNeck_64",
  "ReconMatrixPE": 104,
  "RepetitionTime": 1.49,
  "SAR": 0.0363862,
  "ScanOptions": "FS",
  "ScanningSequence": "EP",
  "SequenceName": "epfid2d1_104",
  "SequenceVariant": "SK_SS",
  "SeriesDescription": "func_task-friends-s03e22a",
  "SeriesNumber": 13,
  "ShimSetting": [621, -7205, -8855, 396, -29, -192, -2, -41],
  "SliceThickness": 2,
  "SliceTiming": [0, 0.785, 0.1, 0.8825, 0.1975, 0.98, 0.295, 1.08, 0.3925, 1.1775, 0.49, 1.275, 0.59, 1.3725, 0.6875, 0, 0.785, 0.1, 0.8825, 0.1975, 0.98, 0.295, 1.08, 0.3925, 1.1775, 0.49, 1.275, 0.59, 1.3725, 0.6875, 0, 0.785, 0.1, 0.8825, 0.1975, 0.98, 0.295, 1.08, 0.3925, 1.1775, 0.49, 1.275, 0.59, 1.3725, 0.6875, 0, 0.785, 0.1, 0.8825, 0.1975, 0.98, 0.295, 1.08, 0.3925, 1.1775, 0.49, 1.275, 0.59, 1.3725, 0.6875],
  "SoftwareVersions": "syngo_MR_E11",
  "SpacingBetweenSlices": 2,
  "StationName": "MRC35049",
  "TaskName": "s03e22a",
  "TotalReadoutTime": 0.0576811,
  "TxRefAmp": 250.737,
  "WipMemBlock": "e3e803b6-912b-48e0-903d-d3163c16d092||Sequence: R016 ve11c/master r/e634e98; Dec 19 2017 11:00:25 by eja",
  "dcmmeta_affine": [
    [-1.9996258020401, -0.03036532737314701, 0.023973772302269936, 103.88267517089844],
    [-0.03830159455537796, 1.7285683155059814, -1.0052783489227295, -57.86215591430664],
    [0.0054573495872318745, 1.0055493116378784, 1.7288264036178589, -91.87167358398438],
    [0.0, 0.0, 0.0, 1.0]
],
  "dcmmeta_reorient_transform": [
    [0.0, -1.0, 0.0, 103.0],
    [1.0, 0.0, 0.0, 0.0],
    [0.0, 0.0, 1.0, 0.0],
    [0.0, 0.0, 0.0, 1.0]
],
  "dcmmeta_shape": [104, 104, 60, 463],
  "dcmmeta_slice_dim": 2,
  "dcmmeta_version": 0.6,
  "global": {
    "const": {
      "AcquisitionMatrix": [104, 0, 0, 104],
      "AngioFlag": "N",
      "BitsAllocated": 16,
      "BitsStored": 16,
      "BodyPartExamined": "BRAIN",
      "Columns": 832,
      "EchoNumbers": 1,
      "EchoTime": 37.0,
      "EchoTrainLength": 104,
      "FlipAngle": 52.0,
      "HighBit": 15,
      "ImageOrientationPatient": [0.99981288313383, 0.01915079773401, 0.00272867472862, -0.0151826634922, 0.86428415944541, -0.5027746796141],
      "ImagePositionPatient": [-817.56584692274, -763.32102882823, 375.73340164452],
      "ImageType": [
        "ORIGINAL",
        "PRIMARY",
        "M",
        "MB",
        "ND",
        "MOSAIC"
],
      "ImagedNucleus": "1H",
      "ImagingFrequency": 123.259043,
      "InPlanePhaseEncodingDirection": "COL",
      "MRAcquisitionType": "2D",
      "MagneticFieldStrength": 3.0,
      "Manufacturer": "SIEMENS",
      "ManufacturerModelName": "Prisma_fit",
      "Modality": "MR",
      "NumberOfAverages": 1.0,
      "NumberOfPhaseEncodingSteps": 104,
      "PercentPhaseFieldOfView": 100.0,
      "PercentSampling": 100.0,
      "PerformedProcedureStepStartTime": "085602.767000",
      "PhotometricInterpretation": "MONOCHROME2",
      "PixelBandwidth": 2290.0,
      "PixelRepresentation": 0,
      "PixelSpacing": [2.0, 2.0],
      "ProtocolName": "func_task-friends-s03e22a",
      "RepetitionTime": 1490.0,
      "Rows": 832,
      "SAR": 0.03638624142105,
      "SamplesPerPixel": 1,
      "ScanOptions": "FS",
      "ScanningSequence": "EP",
      "SequenceName": "epfid2d1_104",
      "SequenceVariant": [
        "SK",
        "SS"
],
      "SeriesDescription": "func_task-friends-s03e22a",
      "SeriesNumber": 13,
      "SeriesTime": "094508.782000",
      "SliceLocation": -49.086070862335,
      "SliceThickness": 2.0,
      "SmallestImagePixelValue": 0,
      "SoftwareVersions": "syngo MR E11",
      "SpacingBetweenSlices": 1.9999999699507,
      "SpecificCharacterSet": "ISO_IR 100",
      "StudyID": "1",
      "StudyTime": "085602.604000",
      "TransmitCoilName": "Body",
      "VariableFlipAngleFlag": "N",
      "WindowCenterWidthExplanation": "Algo1",
      "dBdt": 0.0},
    "slices": {}
  },
  "time": {
    "samples": {
      "AcquisitionNumber": [1, 2, 3, 4, 5, 6, 7, 8, 9, 10, 11, 12, 13, 14, 15, 16, 17, 18, 19, 20, 21, 22, 23, 24, 25, 26, 27, 28, 29, 30, 31, 32, 33, 34, 35, 36, 37, 38, 39, 40, 41, 42, 43, 44, 45, 46, 47, 48, 49, 50, 51, 52, 53, 54, 55, 56, 57, 58, 59, 60, 61, 62, 63, 64, 65, 66, 67, 68, 69, 70, 71, 72, 73, 74, 75, 76, 77, 78, 79, 80, 81, 82, 83, 84, 85, 86, 87, 88, 89, 90, 91, 92, 93, 94, 95, 96, 97, 98, 99, 100, 101, 102, 103, 104, 105, 106, 107, 108, 109, 110, 111, 112, 113, 114, 115, 116, 117, 118, 119, 120, 121, 122, 123, 124, 125, 126, 127, 128, 129, 130, 131, 132, 133, 134, 135, 136, 137, 138, 139, 140, 141, 142, 143, 144, 145, 146, 147, 148, 149, 150, 151, 152, 153, 154, 155, 156, 157, 158, 159, 160, 161, 162, 163, 164, 165, 166, 167, 168, 169, 170, 171, 172, 173, 174, 175, 176, 177, 178, 179, 180, 181, 182, 183, 184, 185, 186, 187, 188, 189, 190, 191, 192, 193, 194, 195, 196, 197, 198, 199, 200, 201, 202, 203, 204, 205, 206, 207, 208, 209, 210, 211, 212, 213, 214, 215, 216, 217, 218, 219, 220, 221, 222, 223, 224, 225, 226, 227, 228, 229, 230, 231, 232, 233, 234, 235, 236, 237, 238, 239, 240, 241, 242, 243, 244, 245, 246, 247, 248, 249, 250, 251, 252, 253, 254, 255, 256, 257, 258, 259, 260, 261, 262, 263, 264, 265, 266, 267, 268, 269, 270, 271, 272, 273, 274, 275, 276, 277, 278, 279, 280, 281, 282, 283, 284, 285, 286, 287, 288, 289, 290, 291, 292, 293, 294, 295, 296, 297, 298, 299, 300, 301, 302, 303, 304, 305, 306, 307, 308, 309, 310, 311, 312, 313, 314, 315, 316, 317, 318, 319, 320, 321, 322, 323, 324, 325, 326, 327, 328, 329, 330, 331, 332, 333, 334, 335, 336, 337, 338, 339, 340, 341, 342, 343, 344, 345, 346, 347, 348, 349, 350, 351, 352, 353, 354, 355, 356, 357, 358, 359, 360, 361, 362, 363, 364, 365, 366, 367, 368, 369, 370, 371, 372, 373, 374, 375, 376, 377, 378, 379, 380, 381, 382, 383, 384, 385, 386, 387, 388, 389, 390, 391, 392, 393, 394, 395, 396, 397, 398, 399, 400, 401, 402, 403, 404, 405, 406, 407, 408, 409, 410, 411, 412, 413, 414, 415, 416, 417, 418, 419, 420, 421, 422, 423, 424, 425, 426, 427, 428, 429, 430, 431, 432, 433, 434, 435, 436, 437, 438, 439, 440, 441, 442, 443, 444, 445, 446, 447, 448, 449, 450, 451, 452, 453, 454, 455, 456, 457, 458, 459, 460, 461, 462, 463],
      "AcquisitionTime": ["094400.027500", "094401.517500", "094403.007500", "094404.497500", "094405.987500", "094407.477500", "094408.967500", "094410.457500", "094411.947500", "094413.437500", "094414.927500", "094416.417500", "094417.907500", "094419.397500", "094420.887500", "094422.377500", "094423.867500", "094425.357500", "094426.847500", "094428.337500", "094429.827500", "094431.317500", "094432.807500", "094434.297500", "094435.787500", "094437.277500", "094438.767500", "094440.257500", "094441.747500", "094443.237500", "094444.727500", "094446.217500", "094447.707500", "094449.197500", "094450.687500", "094452.177500", "094453.667500", "094455.157500", "094456.647500", "094458.137500", "094459.627500", "094501.117500", "094502.607500", "094504.097500", "094505.587500", "094507.077500", "094508.567500", "094510.057500", "094511.547500", "094513.037500", "094514.527500", "094516.017500", "094517.507500", "094518.997500", "094520.487500", "094521.977500", "094523.467500", "094524.957500", "094526.447500", "094527.937500", "094529.427500", "094530.917500", "094532.407500", "094533.897500", "094535.387500", "094536.877500", "094538.367500", "094539.857500", "094541.347500", "094542.837500", "094544.327500", "094545.817500", "094547.307500", "094548.797500", "094550.287500", "094551.777500", "094553.267500", "094554.757500", "094556.247500", "094557.737500", "094559.227500", "094600.717500", "094602.207500", "094603.697500", "094605.187500", "094606.677500", "094608.167500", "094609.657500", "094611.147500", "094612.637500", "094614.127500", "094615.617500", "094617.107500", "094618.597500", "094620.087500", "094621.577500", "094623.067500", "094624.557500", "094626.047500", "094627.537500", "094629.027500", "094630.517500", "094632.007500", "094633.497500", "094634.987500", "094636.477500", "094637.967500", "094639.457500", "094640.947500", "094642.437500", "094643.927500", "094645.417500", "094646.907500", "094648.397500", "094649.887500", "094651.377500", "094652.867500", "094654.357500", "094655.847500", "094657.337500", "094658.827500", "094700.317500", "094701.807500", "094703.297500", "094704.787500", "094706.277500", "094707.767500", "094709.257500", "094710.747500", "094712.237500", "094713.727500", "094715.217500", "094716.707500", "094718.197500", "094719.687500", "094721.177500", "094722.667500", "094724.157500", "094725.647500", "094727.137500", "094728.627500", "094730.117500", "094731.607500", "094733.097500", "094734.587500", "094736.077500", "094737.567500", "094739.057500", "094740.547500", "094742.037500", "094743.527500", "094745.017500", "094746.507500", "094747.997500", "094749.487500", "094750.977500", "094752.467500", "094753.957500", "094755.447500", "094756.937500", "094758.427500", "094759.917500", "094801.407500", "094802.897500", "094804.387500", "094805.877500", "094807.367500", "094808.857500", "094810.347500", "094811.837500", "094813.327500", "094814.817500", "094816.307500", "094817.797500", "094819.287500", "094820.777500", "094822.267500", "094823.757500", "094825.247500", "094826.737500", "094828.227500", "094829.717500", "094831.207500", "094832.697500", "094834.187500", "094835.677500", "094837.167500", "094838.657500", "094840.147500", "094841.637500", "094843.127500", "094844.617500", "094846.107500", "094847.597500", "094849.087500", "094850.577500", "094852.067500", "094853.557500", "094855.047500", "094856.537500", "094858.027500", "094859.517500", "094901.007500", "094902.497500", "094903.987500", "094905.477500", "094906.967500", "094908.457500", "094909.947500", "094911.437500", "094912.927500", "094914.417500", "094915.907500", "094917.397500", "094918.887500", "094920.377500", "094921.867500", "094923.357500", "094924.847500", "094926.337500", "094927.827500", "094929.317500", "094930.807500", "094932.297500", "094933.787500", "094935.277500", "094936.767500", "094938.257500", "094939.747500", "094941.237500", "094942.727500", "094944.217500", "094945.707500", "094947.197500", "094948.687500", "094950.177500", "094951.667500", "094953.157500", "094954.647500", "094956.137500", "094957.627500", "094959.117500", "095000.607500", "095002.097500", "095003.587500", "095005.077500", "095006.567500", "095008.057500", "095009.547500", "095011.037500", "095012.527500", "095014.017500", "095015.507500", "095016.997500", "095018.487500", "095019.977500", "095021.467500", "095022.957500", "095024.447500", "095025.937500", "095027.427500", "095028.917500", "095030.407500", "095031.897500", "095033.387500", "095034.877500", "095036.367500", "095037.857500", "095039.347500", "095040.837500", "095042.327500", "095043.817500", "095045.307500", "095046.797500", "095048.287500", "095049.777500", "095051.267500", "095052.757500", "095054.247500", "095055.737500", "095057.227500", "095058.717500", "095100.207500", "095101.697500", "095103.187500", "095104.677500", "095106.167500", "095107.657500", "095109.147500", "095110.637500", "095112.127500", "095113.617500", "095115.107500", "095116.597500", "095118.087500", "095119.577500", "095121.067500", "095122.557500", "095124.047500", "095125.537500", "095127.027500", "095128.517500", "095130.007500", "095131.497500", "095132.987500", "095134.477500", "095135.967500", "095137.457500", "095138.947500", "095140.437500", "095141.927500", "095143.417500", "095144.907500", "095146.397500", "095147.887500", "095149.377500", "095150.867500", "095152.357500", "095153.847500", "095155.337500", "095156.827500", "095158.317500", "095159.807500", "095201.297500", "095202.787500", "095204.277500", "095205.767500", "095207.257500", "095208.747500", "095210.237500", "095211.727500", "095213.217500", "095214.707500", "095216.197500", "095217.687500", "095219.177500", "095220.667500", "095222.157500", "095223.647500", "095225.137500", "095226.627500", "095228.117500", "095229.607500", "095231.097500", "095232.587500", "095234.077500", "095235.567500", "095237.057500", "095238.547500", "095240.037500", "095241.527500", "095243.017500", "095244.507500", "095245.997500", "095247.487500", "095248.977500", "095250.467500", "095251.957500", "095253.447500", "095254.937500", "095256.427500", "095257.917500", "095259.407500", "095300.897500", "095302.387500", "095303.877500", "095305.367500", "095306.857500", "095308.347500", "095309.837500", "095311.327500", "095312.817500", "095314.307500", "095315.797500", "095317.287500", "095318.777500", "095320.267500", "095321.757500", "095323.247500", "095324.737500", "095326.227500", "095327.717500", "095329.207500", "095330.697500", "095332.187500", "095333.677500", "095335.167500", "095336.657500", "095338.147500", "095339.637500", "095341.127500", "095342.617500", "095344.107500", "095345.597500", "095347.087500", "095348.577500", "095350.067500", "095351.557500", "095353.047500", "095354.537500", "095356.027500", "095357.517500", "095359.007500", "095400.497500", "095401.987500", "095403.477500", "095404.967500", "095406.457500", "095407.947500", "095409.437500", "095410.927500", "095412.417500", "095413.907500", "095415.397500", "095416.887500", "095418.377500", "095419.867500", "095421.357500", "095422.847500", "095424.337500", "095425.827500", "095427.317500", "095428.807500", "095430.297500", "095431.787500", "095433.277500", "095434.767500", "095436.257500", "095437.747500", "095439.237500", "095440.727500", "095442.217500", "095443.707500", "095445.197500", "095446.687500", "095448.177500", "095449.667500", "095451.157500", "095452.647500", "095454.137500", "095455.627500", "095457.117500", "095458.607500", "095500.097500", "095501.587500", "095503.077500", "095504.567500", "095506.057500", "095507.547500", "095509.037500", "095510.527500", "095512.017500", "095513.507500", "095514.997500", "095516.487500", "095517.977500", "095519.467500", "095520.957500", "095522.447500", "095523.937500", "095525.427500", "095526.917500", "095528.407500"],
      "ContentTime": ["094508.784000", "094508.788000", "094508.791000", "094508.794000", "094508.801000", "094508.804000", "094508.807000", "094508.810000", "094508.813000", "094508.816000", "094508.819000", "094508.822000", "094508.825000", "094508.828000", "094508.831000", "094508.840000", "094528.752000", "094528.755000", "094528.758000", "094528.761000", "094528.764000", "094528.767000", "094528.770000", "094528.773000", "094528.776000", "094528.779000", "094528.782000", "094528.785000", "094528.788000", "094528.791000", "094528.794000", "094528.797000", "094528.800000", "094528.803000", "094528.806000", "094528.809000", "094548.752000", "094548.755000", "094548.758000", "094548.761000", "094548.764000", "094548.767000", "094548.780000", "094548.783000", "094548.786000", "094548.789000", "094548.792000", "094548.795000", "094548.798000", "094548.801000", "094548.804000", "094548.807000", "094548.811000", "094548.814000", "094548.818000", "094548.821000", "094608.753000", "094608.756000", "094608.759000", "094608.762000", "094608.765000", "094608.768000", "094608.771000", "094608.774000", "094608.777000", "094608.780000", "094608.783000", "094608.786000", "094608.789000", "094608.792000", "094608.795000", "094608.798000", "094608.801000", "094608.803000", "094608.806000", "094608.809000", "094608.812000", "094628.753000", "094628.756000", "094628.759000", "094628.762000", "094628.765000", "094628.768000", "094628.771000", "094628.774000", "094628.777000", "094628.780000", "094628.783000", "094628.786000", "094628.789000", "094628.792000", "094628.794000", "094628.813000", "094628.816000", "094628.819000", "094628.822000", "094628.825000", "094708.753000", "094708.756000", "094708.759000", "094708.762000", "094708.765000", "094708.768000", "094708.771000", "094708.774000", "094708.777000", "094708.780000", "094708.783000", "094708.786000", "094708.789000", "094708.792000", "094708.795000", "094708.798000", "094708.801000", "094708.804000", "094708.807000", "094708.825000", "094708.828000", "094708.831000", "094708.834000", "094708.837000", "094708.840000", "094708.843000", "094708.846000", "094708.849000", "094708.852000", "094748.752000", "094748.755000", "094748.758000", "094748.761000", "094748.764000", "094748.767000", "094748.770000", "094748.773000", "094748.776000", "094748.779000", "094748.782000", "094748.785000", "094748.788000", "094748.791000", "094748.794000", "094748.797000", "094748.800000", "094748.804000", "094748.807000", "094748.810000", "094748.813000", "094748.816000", "094748.819000", "094748.823000", "094748.825000", "094748.828000", "094828.753000", "094828.756000", "094828.759000", "094828.762000", "094828.765000", "094828.768000", "094828.771000", "094828.774000", "094828.777000", "094828.780000", "094828.783000", "094828.786000", "094828.789000", "094828.792000", "094828.795000", "094828.798000", "094828.801000", "094828.804000", "094828.807000", "094828.810000", "094828.813000", "094828.816000", "094828.819000", "094828.822000", "094828.825000", "094828.828000", "094828.831000", "094908.753000", "094908.756000", "094908.759000", "094908.762000", "094908.765000", "094908.768000", "094908.771000", "094908.774000", "094908.777000", "094908.780000", "094908.783000", "094908.786000", "094908.789000", "094908.792000", "094908.795000", "094908.798000", "094908.801000", "094908.804000", "094908.807000", "094908.810000", "094908.813000", "094908.816000", "094908.819000", "094908.822000", "094908.825000", "094908.828000", "094908.831000", "094948.753000", "094948.756000", "094948.759000", "094948.762000", "094948.765000", "094948.768000", "094948.771000", "094948.774000", "094948.777000", "094948.780000", "094948.783000", "094948.786000", "094948.789000", "094948.792000", "094948.795000", "094948.798000", "094948.801000", "094948.804000", "094948.807000", "094948.810000", "094948.813000", "094948.816000", "094948.819000", "094948.822000", "094948.825000", "094948.828000", "094948.831000", "095028.752000", "095028.755000", "095028.758000", "095028.761000", "095028.764000", "095028.767000", "095028.770000", "095028.773000", "095028.776000", "095028.779000", "095028.782000", "095028.785000", "095028.788000", "095028.791000", "095028.794000", "095028.797000", "095028.800000", "095028.803000", "095028.806000", "095028.809000", "095028.812000", "095028.815000", "095028.818000", "095028.821000", "095028.824000", "095028.827000", "095028.830000", "095108.753000", "095108.756000", "095108.759000", "095108.762000", "095108.765000", "095108.768000", "095108.771000", "095108.774000", "095108.777000", "095108.780000", "095108.783000", "095108.786000", "095108.789000", "095108.792000", "095108.795000", "095108.798000", "095108.801000", "095108.804000", "095108.807000", "095108.810000", "095108.813000", "095108.816000", "095108.819000", "095108.822000", "095108.825000", "095108.828000", "095108.831000", "095148.753000", "095148.756000", "095148.759000", "095148.762000", "095148.765000", "095148.768000", "095148.771000", "095148.775000", "095148.778000", "095148.781000", "095148.783000", "095148.787000", "095148.789000", "095148.792000", "095148.795000", "095148.799000", "095148.801000", "095148.804000", "095148.807000", "095148.810000", "095148.813000", "095148.816000", "095148.819000", "095148.822000", "095148.825000", "095148.828000", "095148.842000", "095228.752000", "095228.755000", "095228.758000", "095228.761000", "095228.764000", "095228.767000", "095228.770000", "095228.773000", "095228.776000", "095228.780000", "095228.783000", "095228.786000", "095228.789000", "095228.792000", "095228.795000", "095228.798000", "095228.801000", "095228.804000", "095228.807000", "095228.810000", "095228.813000", "095228.816000", "095228.819000", "095228.822000", "095228.825000", "095228.828000", "095308.753000", "095308.756000", "095308.759000", "095308.762000", "095308.766000", "095308.769000", "095308.772000", "095308.775000", "095308.778000", "095308.781000", "095308.784000", "095308.787000", "095308.790000", "095308.793000", "095308.796000", "095308.799000", "095308.802000", "095308.805000", "095308.808000", "095308.811000", "095308.814000", "095308.817000", "095308.820000", "095308.823000", "095308.826000", "095308.829000", "095308.832000", "095348.753000", "095348.756000", "095348.759000", "095348.762000", "095348.765000", "095348.768000", "095348.771000", "095348.774000", "095348.777000", "095348.780000", "095348.783000", "095348.786000", "095348.789000", "095348.792000", "095348.795000", "095348.798000", "095348.801000", "095348.804000", "095348.808000", "095348.811000", "095348.814000", "095348.817000", "095348.820000", "095348.823000", "095348.825000", "095348.829000", "095348.832000", "095428.753000", "095428.756000", "095428.759000", "095428.762000", "095428.765000", "095428.768000", "095428.771000", "095428.774000", "095428.777000", "095428.780000", "095428.783000", "095428.786000", "095428.789000", "095428.792000", "095428.795000", "095428.798000", "095428.801000", "095428.804000", "095428.807000", "095428.810000", "095428.813000", "095428.816000", "095428.819000", "095428.822000", "095428.825000", "095428.828000", "095428.831000", "095508.752000", "095508.755000", "095508.758000", "095508.761000", "095508.764000", "095508.767000", "095508.770000", "095508.773000", "095508.776000", "095508.779000", "095508.782000", "095508.785000", "095508.788000", "095508.791000", "095508.794000", "095508.797000", "095508.800000", "095508.803000", "095508.806000", "095508.809000", "095508.812000", "095508.815000", "095508.818000", "095508.821000", "095508.824000", "095508.827000", "095508.830000", "095530.749000", "095530.753000", "095530.756000", "095530.759000", "095530.762000", "095530.765000", "095530.768000", "095530.771000", "095530.774000", "095530.777000", "095530.780000", "095530.783000", "095530.786000", "095530.789000", "095530.793000"],
