{
  "AcquisitionMatrixPE": 104,
  "AcquisitionNumber": 1,
  "AcquisitionTime": "09:55:58.402500",
  "BandwidthPerPixelPhaseEncode": 17.17,
  "BaseResolution": 104,
  "BodyPartExamined": "BRAIN",
  "CoilString": "HC1-7;NC1_2",
  "ConsistencyInfo": "N4_VE11C_LATEST_20160120",
  "ConversionSoftware": "dcm2niix",
  "ConversionSoftwareVersion": "v1.0.20190902",
  "DerivedVendorReportedEchoSpacing": 0.000560011,
  "DeviceSerialNumber": "167006",
  "DwellTime": 2.1e-06,
  "EchoTime": 0.037,
  "EchoTrainLength": 104,
  "EffectiveEchoSpacing": 0.000560011,
  "FlipAngle": 52,
  "ImageComments": "Unaliased_MB4_PE3_LB",
  "ImageOrientationPatientDICOM": [0.999813, 0.0191508, 0.00272867, -0.0151827, 0.864284, -0.502775],
  "ImageType": [
    "ORIGINAL",
    "PRIMARY",
    "M",
    "MB",
    "ND",
    "MOSAIC"
],
  "ImagingFrequency": 123.259,
  "InPlanePhaseEncodingDirectionDICOM": "COL",
  "InstitutionAddress": "Chemin_Queen-Mary_4565_Montreal_District_CA_H3W_1W5",
  "InstitutionName": "IUGM",
  "InstitutionalDepartmentName": "Department",
  "MRAcquisitionType": "2D",
  "MagneticFieldStrength": 3,
  "Manufacturer": "Siemens",
  "ManufacturersModelName": "Prisma_fit",
  "Modality": "MR",
  "MultibandAccelerationFactor": 4,
  "PartialFourier": 1,
  "PatientPosition": "HFS",
  "PercentPhaseFOV": 100,
  "PhaseEncodingDirection": "j",
  "PhaseEncodingSteps": 104,
  "PhaseResolution": 1,
  "PixelBandwidth": 2290,
  "ProcedureStepDescription": "video_friends",
  "ProtocolName": "func_task-friends-s03e22b",
  "PulseSequenceDetails": "%CustomerSeq%_cmrr_mbep2d_bold",
  "ReceiveCoilActiveElements": "HC1-7;NC1,2",
  "ReceiveCoilName": "HeadNeck_64",
  "ReconMatrixPE": 104,
  "RepetitionTime": 1.49,
  "SAR": 0.0363862,
  "ScanOptions": "FS",
  "ScanningSequence": "EP",
  "SequenceName": "epfid2d1_104",
  "SequenceVariant": "SK_SS",
  "SeriesDescription": "func_task-friends-s03e22b",
  "SeriesNumber": 15,
  "ShimSetting": [621, -7205, -8855, 396, -29, -192, -2, -41],
  "SliceThickness": 2,
  "SliceTiming": [0, 0.7825, 0.0975, 0.8825, 0.195, 0.98, 0.2925, 1.0775, 0.3925, 1.175, 0.49, 1.2725, 0.5875, 1.3725, 0.685, 0, 0.7825, 0.0975, 0.8825, 0.195, 0.98, 0.2925, 1.0775, 0.3925, 1.175, 0.49, 1.2725, 0.5875, 1.3725, 0.685, 0, 0.7825, 0.0975, 0.8825, 0.195, 0.98, 0.2925, 1.0775, 0.3925, 1.175, 0.49, 1.2725, 0.5875, 1.3725, 0.685, 0, 0.7825, 0.0975, 0.8825, 0.195, 0.98, 0.2925, 1.0775, 0.3925, 1.175, 0.49, 1.2725, 0.5875, 1.3725, 0.685],
  "SoftwareVersions": "syngo_MR_E11",
  "SpacingBetweenSlices": 2,
  "StationName": "MRC35049",
  "TaskName": "s03e22b",
  "TotalReadoutTime": 0.0576811,
  "TxRefAmp": 250.737,
  "WipMemBlock": "f2b08eff-347d-48f0-83a7-c9de6aeb1855||Sequence: R016 ve11c/master r/e634e98; Dec 19 2017 11:00:25 by eja",
  "dcmmeta_affine": [
    [-1.9996258020401, -0.03036532737314701, 0.023973772302269936, 103.88267517089844],
    [-0.03830159455537796, 1.7285683155059814, -1.0052783489227295, -57.86215591430664],
    [0.0054573495872318745, 1.0055493116378784, 1.7288264036178589, -91.87167358398438],
    [0.0, 0.0, 0.0, 1.0]
],
  "dcmmeta_reorient_transform": [
    [0.0, -1.0, 0.0, 103.0],
    [1.0, 0.0, 0.0, 0.0],
    [0.0, 0.0, 1.0, 0.0],
    [0.0, 0.0, 0.0, 1.0]
],
  "dcmmeta_shape": [104, 104, 60, 463],
  "dcmmeta_slice_dim": 2,
  "dcmmeta_version": 0.6,
  "global": {
    "const": {
      "AcquisitionMatrix": [104, 0, 0, 104],
      "AngioFlag": "N",
      "BitsAllocated": 16,
      "BitsStored": 16,
      "BodyPartExamined": "BRAIN",
      "Columns": 832,
      "EchoNumbers": 1,
      "EchoTime": 37.0,
      "EchoTrainLength": 104,
      "FlipAngle": 52.0,
      "HighBit": 15,
      "ImageOrientationPatient": [0.99981288313383, 0.01915079773401, 0.00272867472862, -0.0151826634922, 0.86428415944541, -0.5027746796141],
      "ImagePositionPatient": [-817.56584692274, -763.32102882823, 375.73340164452],
      "ImageType": [
        "ORIGINAL",
        "PRIMARY",
        "M",
        "MB",
        "ND",
        "MOSAIC"
],
      "ImagedNucleus": "1H",
      "ImagingFrequency": 123.259051,
      "InPlanePhaseEncodingDirection": "COL",
      "MRAcquisitionType": "2D",
      "MagneticFieldStrength": 3.0,
      "Manufacturer": "SIEMENS",
      "ManufacturerModelName": "Prisma_fit",
      "Modality": "MR",
      "NumberOfAverages": 1.0,
      "NumberOfPhaseEncodingSteps": 104,
      "PercentPhaseFieldOfView": 100.0,
      "PercentSampling": 100.0,
      "PerformedProcedureStepStartTime": "085602.767000",
      "PhotometricInterpretation": "MONOCHROME2",
      "PixelBandwidth": 2290.0,
      "PixelRepresentation": 0,
      "PixelSpacing": [2.0, 2.0],
      "ProtocolName": "func_task-friends-s03e22b",
      "RepetitionTime": 1490.0,
      "Rows": 832,
      "SAR": 0.03638624142105,
      "SamplesPerPixel": 1,
      "ScanOptions": "FS",
      "ScanningSequence": "EP",
      "SequenceName": "epfid2d1_104",
      "SequenceVariant": [
        "SK",
        "SS"
],
      "SeriesDescription": "func_task-friends-s03e22b",
      "SeriesNumber": 15,
      "SeriesTime": "095727.983000",
      "SliceLocation": -49.086070862335,
      "SliceThickness": 2.0,
      "SmallestImagePixelValue": 0,
      "SoftwareVersions": "syngo MR E11",
      "SpacingBetweenSlices": 1.9999999699507,
      "SpecificCharacterSet": "ISO_IR 100",
      "StudyID": "1",
      "StudyTime": "085602.604000",
      "TransmitCoilName": "Body",
      "VariableFlipAngleFlag": "N",
      "WindowCenterWidthExplanation": "Algo1",
      "dBdt": 0.0},
    "slices": {}
  },
  "time": {
    "samples": {
      "AcquisitionNumber": [1, 2, 3, 4, 5, 6, 7, 8, 9, 10, 11, 12, 13, 14, 15, 16, 17, 18, 19, 20, 21, 22, 23, 24, 25, 26, 27, 28, 29, 30, 31, 32, 33, 34, 35, 36, 37, 38, 39, 40, 41, 42, 43, 44, 45, 46, 47, 48, 49, 50, 51, 52, 53, 54, 55, 56, 57, 58, 59, 60, 61, 62, 63, 64, 65, 66, 67, 68, 69, 70, 71, 72, 73, 74, 75, 76, 77, 78, 79, 80, 81, 82, 83, 84, 85, 86, 87, 88, 89, 90, 91, 92, 93, 94, 95, 96, 97, 98, 99, 100, 101, 102, 103, 104, 105, 106, 107, 108, 109, 110, 111, 112, 113, 114, 115, 116, 117, 118, 119, 120, 121, 122, 123, 124, 125, 126, 127, 128, 129, 130, 131, 132, 133, 134, 135, 136, 137, 138, 139, 140, 141, 142, 143, 144, 145, 146, 147, 148, 149, 150, 151, 152, 153, 154, 155, 156, 157, 158, 159, 160, 161, 162, 163, 164, 165, 166, 167, 168, 169, 170, 171, 172, 173, 174, 175, 176, 177, 178, 179, 180, 181, 182, 183, 184, 185, 186, 187, 188, 189, 190, 191, 192, 193, 194, 195, 196, 197, 198, 199, 200, 201, 202, 203, 204, 205, 206, 207, 208, 209, 210, 211, 212, 213, 214, 215, 216, 217, 218, 219, 220, 221, 222, 223, 224, 225, 226, 227, 228, 229, 230, 231, 232, 233, 234, 235, 236, 237, 238, 239, 240, 241, 242, 243, 244, 245, 246, 247, 248, 249, 250, 251, 252, 253, 254, 255, 256, 257, 258, 259, 260, 261, 262, 263, 264, 265, 266, 267, 268, 269, 270, 271, 272, 273, 274, 275, 276, 277, 278, 279, 280, 281, 282, 283, 284, 285, 286, 287, 288, 289, 290, 291, 292, 293, 294, 295, 296, 297, 298, 299, 300, 301, 302, 303, 304, 305, 306, 307, 308, 309, 310, 311, 312, 313, 314, 315, 316, 317, 318, 319, 320, 321, 322, 323, 324, 325, 326, 327, 328, 329, 330, 331, 332, 333, 334, 335, 336, 337, 338, 339, 340, 341, 342, 343, 344, 345, 346, 347, 348, 349, 350, 351, 352, 353, 354, 355, 356, 357, 358, 359, 360, 361, 362, 363, 364, 365, 366, 367, 368, 369, 370, 371, 372, 373, 374, 375, 376, 377, 378, 379, 380, 381, 382, 383, 384, 385, 386, 387, 388, 389, 390, 391, 392, 393, 394, 395, 396, 397, 398, 399, 400, 401, 402, 403, 404, 405, 406, 407, 408, 409, 410, 411, 412, 413, 414, 415, 416, 417, 418, 419, 420, 421, 422, 423, 424, 425, 426, 427, 428, 429, 430, 431, 432, 433, 434, 435, 436, 437, 438, 439, 440, 441, 442, 443, 444, 445, 446, 447, 448, 449, 450, 451, 452, 453, 454, 455, 456, 457, 458, 459, 460, 461, 462, 463],
      "AcquisitionTime": ["095558.402500", "095559.892500", "095601.382500", "095602.872500", "095604.362500", "095605.852500", "095607.342500", "095608.832500", "095610.322500", "095611.812500", "095613.302500", "095614.792500", "095616.282500", "095617.772500", "095619.262500", "095620.752500", "095622.242500", "095623.732500", "095625.222500", "095626.712500", "095628.202500", "095629.692500", "095631.182500", "095632.672500", "095634.162500", "095635.652500", "095637.142500", "095638.632500", "095640.122500", "095641.612500", "095643.102500", "095644.592500", "095646.082500", "095647.572500", "095649.062500", "095650.552500", "095652.042500", "095653.532500", "095655.022500", "095656.512500", "095658.002500", "095659.492500", "095700.982500", "095702.472500", "095703.962500", "095705.452500", "095706.942500", "095708.432500", "095709.922500", "095711.412500", "095712.902500", "095714.392500", "095715.882500", "095717.372500", "095718.862500", "095720.352500", "095721.842500", "095723.332500", "095724.822500", "095726.312500", "095727.802500", "095729.292500", "095730.782500", "095732.272500", "095733.762500", "095735.252500", "095736.742500", "095738.232500", "095739.722500", "095741.212500", "095742.702500", "095744.192500", "095745.682500", "095747.172500", "095748.662500", "095750.152500", "095751.642500", "095753.132500", "095754.622500", "095756.112500", "095757.602500", "095759.092500", "095800.582500", "095802.072500", "095803.562500", "095805.052500", "095806.542500", "095808.032500", "095809.522500", "095811.012500", "095812.502500", "095813.992500", "095815.482500", "095816.972500", "095818.462500", "095819.952500", "095821.442500", "095822.932500", "095824.422500", "095825.912500", "095827.402500", "095828.892500", "095830.382500", "095831.872500", "095833.362500", "095834.852500", "095836.342500", "095837.832500", "095839.322500", "095840.812500", "095842.302500", "095843.792500", "095845.282500", "095846.772500", "095848.262500", "095849.752500", "095851.242500", "095852.732500", "095854.222500", "095855.712500", "095857.202500", "095858.692500", "095900.182500", "095901.672500", "095903.162500", "095904.652500", "095906.142500", "095907.632500", "095909.122500", "095910.612500", "095912.102500", "095913.592500", "095915.082500", "095916.572500", "095918.062500", "095919.552500", "095921.042500", "095922.532500", "095924.022500", "095925.512500", "095927.002500", "095928.492500", "095929.982500", "095931.472500", "095932.962500", "095934.452500", "095935.942500", "095937.432500", "095938.922500", "095940.412500", "095941.902500", "095943.392500", "095944.882500", "095946.372500", "095947.862500", "095949.352500", "095950.842500", "095952.332500", "095953.822500", "095955.312500", "095956.802500", "095958.292500", "095959.782500", "100001.272500", "100002.762500", "100004.252500", "100005.742500", "100007.232500", "100008.722500", "100010.212500", "100011.702500", "100013.192500", "100014.682500", "100016.172500", "100017.662500", "100019.152500", "100020.642500", "100022.132500", "100023.622500", "100025.112500", "100026.602500", "100028.092500", "100029.582500", "100031.072500", "100032.562500", "100034.052500", "100035.542500", "100037.032500", "100038.522500", "100040.012500", "100041.502500", "100042.992500", "100044.482500", "100045.972500", "100047.462500", "100048.952500", "100050.442500", "100051.932500", "100053.422500", "100054.912500", "100056.402500", "100057.892500", "100059.382500", "100100.872500", "100102.362500", "100103.852500", "100105.342500", "100106.832500", "100108.322500", "100109.812500", "100111.302500", "100112.792500", "100114.282500", "100115.772500", "100117.262500", "100118.752500", "100120.242500", "100121.732500", "100123.222500", "100124.712500", "100126.202500", "100127.692500", "100129.182500", "100130.672500", "100132.162500", "100133.652500", "100135.142500", "100136.632500", "100138.122500", "100139.612500", "100141.102500", "100142.592500", "100144.082500", "100145.572500", "100147.062500", "100148.552500", "100150.042500", "100151.532500", "100153.022500", "100154.512500", "100156.002500", "100157.492500", "100158.982500", "100200.472500", "100201.962500", "100203.452500", "100204.942500", "100206.432500", "100207.922500", "100209.412500", "100210.902500", "100212.392500", "100213.882500", "100215.372500", "100216.862500", "100218.352500", "100219.842500", "100221.332500", "100222.822500", "100224.312500", "100225.802500", "100227.292500", "100228.782500", "100230.272500", "100231.762500", "100233.252500", "100234.742500", "100236.232500", "100237.722500", "100239.212500", "100240.702500", "100242.192500", "100243.682500", "100245.172500", "100246.662500", "100248.152500", "100249.642500", "100251.132500", "100252.622500", "100254.112500", "100255.602500", "100257.092500", "100258.582500", "100300.072500", "100301.562500", "100303.052500", "100304.542500", "100306.032500", "100307.522500", "100309.012500", "100310.502500", "100311.992500", "100313.482500", "100314.972500", "100316.462500", "100317.952500", "100319.442500", "100320.932500", "100322.422500", "100323.912500", "100325.402500", "100326.892500", "100328.382500", "100329.872500", "100331.362500", "100332.852500", "100334.342500", "100335.832500", "100337.322500", "100338.812500", "100340.302500", "100341.792500", "100343.282500", "100344.772500", "100346.262500", "100347.752500", "100349.242500", "100350.732500", "100352.222500", "100353.712500", "100355.202500", "100356.692500", "100358.182500", "100359.672500", "100401.162500", "100402.652500", "100404.142500", "100405.632500", "100407.122500", "100408.612500", "100410.102500", "100411.592500", "100413.082500", "100414.572500", "100416.062500", "100417.552500", "100419.042500", "100420.532500", "100422.022500", "100423.512500", "100425.002500", "100426.492500", "100427.982500", "100429.472500", "100430.962500", "100432.452500", "100433.942500", "100435.432500", "100436.922500", "100438.412500", "100439.902500", "100441.392500", "100442.882500", "100444.372500", "100445.862500", "100447.352500", "100448.842500", "100450.332500", "100451.822500", "100453.312500", "100454.802500", "100456.292500", "100457.782500", "100459.272500", "100500.762500", "100502.252500", "100503.742500", "100505.232500", "100506.722500", "100508.212500", "100509.702500", "100511.192500", "100512.682500", "100514.172500", "100515.662500", "100517.152500", "100518.642500", "100520.132500", "100521.622500", "100523.112500", "100524.602500", "100526.092500", "100527.582500", "100529.072500", "100530.562500", "100532.052500", "100533.542500", "100535.032500", "100536.522500", "100538.012500", "100539.502500", "100540.992500", "100542.482500", "100543.972500", "100545.462500", "100546.952500", "100548.442500", "100549.932500", "100551.422500", "100552.912500", "100554.402500", "100555.892500", "100557.382500", "100558.872500", "100600.362500", "100601.852500", "100603.342500", "100604.832500", "100606.322500", "100607.812500", "100609.302500", "100610.792500", "100612.282500", "100613.772500", "100615.262500", "100616.752500", "100618.242500", "100619.732500", "100621.222500", "100622.712500", "100624.202500", "100625.692500", "100627.182500", "100628.672500", "100630.162500", "100631.652500", "100633.142500", "100634.632500", "100636.122500", "100637.612500", "100639.102500", "100640.592500", "100642.082500", "100643.572500", "100645.062500", "100646.552500", "100648.042500", "100649.532500", "100651.022500", "100652.512500", "100654.002500", "100655.492500", "100656.982500", "100658.472500", "100659.962500", "100701.452500", "100702.942500", "100704.432500", "100705.922500", "100707.412500", "100708.902500", "100710.392500", "100711.882500", "100713.372500", "100714.862500", "100716.352500", "100717.842500", "100719.332500", "100720.822500", "100722.312500", "100723.802500", "100725.292500", "100726.782500"],
      "ContentTime": ["095727.986000", "095727.989000", "095727.992000", "095727.995000", "095727.998000", "095728.002000", "095728.005000", "095728.008000", "095728.011000", "095728.014000", "095728.017000", "095728.020000", "095728.023000", "095728.026000", "095728.029000", "095728.032000", "095728.035000", "095728.038000", "095728.041000", "095728.044000", "095728.047000", "095728.050000", "095728.053000", "095728.056000", "095728.059000", "095728.062000", "095728.065000", "095728.068000", "095728.070000", "095728.073000", "095728.076000", "095728.079000", "095728.082000", "095728.085000", "095728.088000", "095728.091000", "095747.947000", "095747.950000", "095747.953000", "095747.956000", "095747.959000", "095747.962000", "095747.973000", "095747.976000", "095747.978000", "095747.981000", "095747.984000", "095747.987000", "095747.990000", "095747.993000", "095747.996000", "095748.000000", "095748.003000", "095748.006000", "095748.009000", "095748.012000", "095807.947000", "095807.950000", "095807.953000", "095807.956000", "095807.959000", "095807.962000", "095807.965000", "095807.968000", "095807.971000", "095807.974000", "095807.976000", "095807.979000", "095807.982000", "095807.985000", "095807.988000", "095807.991000", "095807.994000", "095807.997000", "095808.001000", "095808.004000", "095808.007000", "095827.947000", "095827.950000", "095827.953000", "095827.956000", "095827.959000", "095827.962000", "095827.965000", "095827.968000", "095827.971000", "095827.974000", "095827.977000", "095827.980000", "095827.983000", "095827.986000", "095827.989000", "095827.992000", "095827.995000", "095827.998000", "095828.002000", "095828.005000", "095907.946000", "095907.949000", "095907.952000", "095907.955000", "095907.958000", "095907.961000", "095907.964000", "095907.967000", "095907.970000", "095907.973000", "095907.976000", "095907.979000", "095907.982000", "095907.985000", "095907.988000", "095907.991000", "095907.994000", "095907.997000", "095907.999000", "095908.003000", "095908.006000", "095908.008000", "095908.011000", "095908.014000", "095908.017000", "095908.020000", "095908.023000", "095908.026000", "095908.029000", "095947.946000", "095947.950000", "095947.953000", "095947.956000", "095947.966000", "095947.969000", "095947.972000", "095947.975000", "095947.983000", "095947.986000", "095947.989000", "095947.992000", "095947.995000", "095947.998000", "095948.001000", "095948.004000", "095948.007000", "095948.010000", "095948.013000", "095948.016000", "095948.019000", "095948.022000", "095948.025000", "095948.027000", "095948.031000", "095948.033000", "095948.036000", "100027.947000", "100027.962000", "100027.965000", "100027.968000", "100027.971000", "100027.974000", "100027.977000", "100027.980000", "100027.982000", "100027.985000", "100027.988000", "100027.991000", "100027.994000", "100027.997000", "100028.001000", "100028.004000", "100028.007000", "100028.010000", "100028.013000", "100028.016000", "100028.019000", "100028.022000", "100028.025000", "100028.028000", "100028.031000", "100028.034000", "100028.037000", "100107.947000", "100107.950000", "100107.953000", "100107.956000", "100107.959000", "100107.962000", "100107.965000", "100107.968000", "100107.971000", "100107.974000", "100107.977000", "100107.980000", "100107.983000", "100107.986000", "100107.989000", "100108.007000", "100108.011000", "100108.013000", "100108.017000", "100108.019000", "100108.022000", "100108.025000", "100108.028000", "100108.031000", "100108.034000", "100108.037000", "100108.040000", "100147.946000", "100147.949000", "100147.952000", "100147.955000", "100147.958000", "100147.961000", "100147.964000", "100147.967000", "100147.970000", "100147.973000", "100147.976000", "100147.979000", "100147.982000", "100147.985000", "100147.988000", "100147.991000", "100147.994000", "100147.997000", "100148.001000", "100148.004000", "100148.007000", "100148.010000", "100148.013000", "100148.016000", "100148.019000", "100148.022000", "100148.025000", "100227.947000", "100227.951000", "100227.954000", "100227.957000", "100227.960000", "100227.963000", "100227.966000", "100227.969000", "100227.972000", "100227.975000", "100227.978000", "100227.981000", "100227.984000", "100227.987000", "100227.990000", "100227.992000", "100227.995000", "100227.998000", "100228.001000", "100228.004000", "100228.013000", "100228.016000", "100228.024000", "100228.027000", "100228.030000", "100228.033000", "100307.947000", "100307.950000", "100307.953000", "100307.956000", "100307.959000", "100307.962000", "100307.965000", "100307.968000", "100307.971000", "100307.974000", "100307.977000", "100307.980000", "100307.983000", "100307.986000", "100307.989000", "100307.992000", "100307.995000", "100307.997000", "100308.001000", "100308.004000", "100308.007000", "100308.010000", "100308.013000", "100308.016000", "100308.019000", "100308.022000", "100308.025000", "100347.946000", "100347.949000", "100347.952000", "100347.955000", "100347.958000", "100347.961000", "100347.964000", "100347.967000", "100347.970000", "100347.973000", "100347.976000", "100347.979000", "100347.982000", "100347.985000", "100347.988000", "100347.991000", "100347.994000", "100347.997000", "100348.001000", "100348.004000", "100348.007000", "100348.010000", "100348.013000", "100348.016000", "100348.019000", "100348.022000", "100348.025000", "100427.946000", "100427.949000", "100427.952000", "100427.955000", "100427.958000", "100427.961000", "100427.964000", "100427.967000", "100427.970000", "100427.973000", "100427.976000", "100427.979000", "100427.982000", "100427.985000", "100427.988000", "100427.991000", "100427.994000", "100427.997000", "100428.015000", "100428.018000", "100428.021000", "100428.024000", "100428.027000", "100428.030000", "100428.033000", "100428.036000", "100428.039000", "100507.947000", "100507.950000", "100507.953000", "100507.956000", "100507.959000", "100507.962000", "100507.965000", "100507.968000", "100507.971000", "100507.974000", "100507.977000", "100507.980000", "100507.983000", "100507.986000", "100507.989000", "100507.992000", "100507.995000", "100507.998000", "100508.001000", "100508.004000", "100508.007000", "100508.010000", "100508.013000", "100508.016000", "100508.019000", "100508.022000", "100508.025000", "100547.947000", "100547.950000", "100547.953000", "100547.956000", "100547.959000", "100547.962000", "100547.965000", "100547.968000", "100547.971000", "100547.974000", "100547.995000", "100547.998000", "100548.002000", "100548.005000", "100548.008000", "100548.011000", "100548.014000", "100548.016000", "100548.020000", "100548.023000", "100548.025000", "100548.028000", "100548.032000", "100548.035000", "100548.038000", "100548.041000", "100548.044000", "100627.946000", "100627.949000", "100627.952000", "100627.955000", "100627.958000", "100627.961000", "100627.964000", "100627.967000", "100627.970000", "100627.973000", "100627.976000", "100627.979000", "100627.982000", "100627.985000", "100627.988000", "100627.991000", "100627.994000", "100627.997000", "100628.001000", "100628.004000", "100628.007000", "100628.010000", "100628.013000", "100628.016000", "100628.019000", "100628.022000", "100628.025000", "100707.947000", "100707.950000", "100707.953000", "100707.956000", "100707.959000", "100707.962000", "100707.965000", "100707.968000", "100707.971000", "100707.974000", "100707.977000", "100707.980000", "100707.983000", "100707.986000", "100707.989000", "100707.992000", "100707.995000", "100707.998000", "100708.002000", "100708.005000", "100708.008000", "100708.011000", "100708.014000", "100708.017000", "100708.020000", "100708.023000", "100728.973000", "100728.976000", "100728.979000", "100728.982000", "100728.985000", "100728.988000", "100728.991000", "100728.994000", "100728.997000", "100729.001000", "100729.004000", "100729.007000", "100729.010000", "100729.014000", "100729.017000"],
